#lamb flux
1010.0 5.6266e-09
1030.0 6.1759e-09
1050.0 6.8076e-09
1070.0 7.5188e-09
1090.0 8.3266e-09
1110.0 9.1552e-09
1130.0 9.9891e-09
1150.0 1.0863e-08
1170.0 1.1764e-08
1190.0 1.2618e-08
1210.0 1.3484e-08
1230.0 1.4379e-08
1250.0 1.5255e-08
1270.0 1.6107e-08
1290.0 1.7006e-08
1310.0 1.7905e-08
1330.0 1.8767e-08
1350.0 1.9639e-08
1370.0 2.0539e-08
1390.0 2.1417e-08
1410.0 2.2268e-08
1430.0 2.3158e-08
1450.0 2.4048e-08
1470.0 2.4908e-08
1490.0 2.5778e-08
1510.0 2.6696e-08
1530.0 2.7566e-08
1550.0 2.8425e-08
1570.0 2.9313e-08
1590.0 3.0202e-08
1610.0 3.1051e-08
1630.0 3.1927e-08
1650.0 3.2825e-08
1670.0 3.3695e-08
1690.0 3.4553e-08
1710.0 3.5445e-08
1730.0 3.6341e-08
1750.0 3.7184e-08
1770.0 3.8052e-08
1790.0 3.8938e-08
1810.0 3.9795e-08
1830.0 4.0637e-08
1850.0 4.1531e-08
1870.0 4.2401e-08
1890.0 4.3242e-08
1910.0 4.4099e-08
1930.0 4.4976e-08
1950.0 4.5813e-08
1970.0 4.6637e-08
1990.0 4.7493e-08
2010.0 4.8333e-08
2030.0 4.9139e-08
2050.0 4.9969e-08
2070.0 5.0818e-08
2090.0 5.1614e-08
2110.0 5.2404e-08
2130.0 5.3215e-08
2150.0 5.4005e-08
2170.0 5.4753e-08
2190.0 5.5527e-08
2210.0 5.63e-08
2230.0 5.7032e-08
2250.0 5.7754e-08
2270.0 5.8505e-08
2290.0 5.9222e-08
2310.0 5.9898e-08
2330.0 6.0597e-08
2350.0 6.131e-08
2370.0 6.2012e-08
2390.0 6.278e-08
2410.0 6.3714e-08
2430.0 6.4813e-08
2450.0 6.6161e-08
2470.0 6.794e-08
2490.0 7.023e-08
2510.0 7.2858e-08
2530.0 7.6059e-08
2550.0 8.0108e-08
2570.0 8.5168e-08
2590.0 9.1755e-08
2610.0 1.0162e-07
2630.0 1.1563e-07
2650.0 1.338e-07
2670.0 1.5712e-07
2690.0 1.8556e-07
2710.0 2.1561e-07
2730.0 2.4498e-07
2750.0 2.7358e-07
2770.0 2.9806e-07
2790.0 3.1704e-07
2810.0 3.3167e-07
2830.0 3.4266e-07
2850.0 3.4962e-07
2870.0 3.5429e-07
2890.0 3.5765e-07
2910.0 3.6001e-07
2930.0 3.6169e-07
2950.0 3.6324e-07
2970.0 3.6474e-07
2990.0 3.661e-07
3010.0 1.1018e-05
3030.0 1.1057e-05
3050.0 1.1094e-05
3070.0 1.1122e-05
3090.0 1.1142e-05
3110.0 1.1141e-05
3130.0 1.1104e-05
3150.0 1.1022e-05
3170.0 1.0871e-05
3190.0 1.0655e-05
3210.0 1.0391e-05
3230.0 1.0093e-05
3250.0 9.7928e-06
3270.0 9.5703e-06
3290.0 9.4234e-06
3310.0 9.4148e-06
3330.0 9.5206e-06
3350.0 9.7294e-06
3370.0 1.0041e-05
3390.0 1.0441e-05
3410.0 1.0881e-05
3430.0 1.1377e-05
3450.0 1.1951e-05
3470.0 1.2581e-05
3490.0 1.3252e-05
3510.0 1.4012e-05
3530.0 1.4833e-05
3550.0 1.5682e-05
3570.0 1.6587e-05
3590.0 1.7579e-05
3610.0 1.8635e-05
3630.0 1.9681e-05
3650.0 2.0775e-05
3670.0 2.1765e-05
3690.0 2.2501e-05
3710.0 2.2899e-05
3730.0 2.2811e-05
3750.0 2.2285e-05
3770.0 2.2482e-05
3790.0 2.2293e-05
3810.0 2.0001e-05
3830.0 2.029e-05
3850.0 2.5376e-05
3870.0 2.6356e-05
3890.0 2.3671e-05
3910.0 2.2928e-05
3930.0 2.5e-05
3950.0 2.7128e-05
3970.0 2.6785e-05
3990.0 2.0434e-05
4010.0 5.3847e-05
4030.0 6.1785e-05
4050.0 7.047e-05
4070.0 6.5855e-05
4090.0 6.0354e-05
4110.0 5.2153e-05
4130.0 5.2912e-05
4150.0 6.2437e-05
4170.0 5.5898e-05
4190.0 5.561e-05
4210.0 5.7867e-05
4230.0 6.5025e-05
4250.0 7.774e-05
4270.0 8.1173e-05
4290.0 7.3084e-05
4310.0 7.2375e-05
4330.0 7.4533e-05
4350.0 8.8045e-05
4370.0 0.00010326
4390.0 9.0244e-05
4410.0 5.9571e-05
4430.0 4.759e-05
4450.0 4.4193e-05
4470.0 3.1059e-05
4490.0 3.9172e-05
4510.0 7.0317e-05
4530.0 8.3396e-05
4550.0 8.0685e-05
4570.0 8.2105e-05
4590.0 9.0869e-05
4610.0 0.00014538
4630.0 0.00019683
4650.0 0.00020047
4670.0 0.00018111
4690.0 0.00017717
4710.0 0.00018599
4730.0 0.00016584
4750.0 0.0001174
4770.0 8.3187e-05
4790.0 8.3073e-05
4810.0 8.2981e-05
4830.0 7.8651e-05
4850.0 8.5681e-05
4870.0 0.00011333
4890.0 0.00013245
4910.0 0.00011044
4930.0 0.00010209
4950.0 0.00011468
4970.0 0.00014921
4990.0 0.00020203
5010.0 0.00023365
5030.0 0.0001974
5050.0 0.00012835
5070.0 8.7327e-05
5090.0 6.8145e-05
5110.0 6.7175e-05
5130.0 7.923e-05
5150.0 8.2116e-05
5170.0 7.9302e-05
5190.0 7.2451e-05
5210.0 7.8066e-05
5230.0 8.8064e-05
5250.0 9.8361e-05
5270.0 9.9051e-05
5290.0 0.00010824
5310.0 0.00013429
5330.0 0.00014723
5350.0 0.00014579
5370.0 0.00015756
5390.0 0.00018819
5410.0 0.0001755
5430.0 0.00014658
5450.0 0.0001401
5470.0 0.00015454
5490.0 0.0001904
5510.0 0.00023469
5530.0 0.00027073
5550.0 0.00025409
5570.0 0.00022982
5590.0 0.000195
5610.0 0.00018732
5630.0 0.00019457
5650.0 0.00018185
5670.0 0.00016972
5690.0 0.00014483
5710.0 0.00014476
5730.0 0.00013657
5750.0 8.6282e-05
5770.0 6.467e-05
5790.0 7.5923e-05
5810.0 8.3003e-05
5830.0 0.00011296
5850.0 0.0001407
5870.0 0.00015427
5890.0 0.0001527
5910.0 0.00014944
5930.0 0.00014264
5950.0 0.00014602
5970.0 0.00017341
5990.0 0.00015331
6010.0 0.00012396
6030.0 0.00010331
6050.0 9.0957e-05
6070.0 9.7955e-05
6090.0 0.0001078
6110.0 0.00011552
6130.0 0.00011272
6150.0 9.3321e-05
6170.0 7.7405e-05
6190.0 8.9465e-05
6210.0 0.00012806
6230.0 0.00017822
6250.0 0.00019319
6270.0 0.00015884
6290.0 0.00013481
6310.0 0.00010413
6330.0 7.8006e-05
6350.0 7.264e-05
6370.0 7.6318e-05
6390.0 8.942e-05
6410.0 0.00011302
6430.0 0.00013391
6450.0 0.00015839
6470.0 0.00017403
6490.0 0.00020905
6510.0 0.00023402
6530.0 0.00023465
6550.0 0.00021398
6570.0 0.00017578
6590.0 0.00016216
6610.0 0.00013707
6630.0 0.00013304
6650.0 0.00012786
6670.0 0.00011723
6690.0 9.7869e-05
6710.0 9.2166e-05
6730.0 5.2789e-05
6750.0 5.9716e-05
6770.0 7.8272e-05
6790.0 9.7193e-05
6810.0 7.7448e-05
6830.0 7.9388e-05
6850.0 6.9925e-05
6870.0 6.4453e-05
6890.0 5.8205e-05
6910.0 6.6357e-05
6930.0 6.2361e-05
6950.0 6.919e-05
6970.0 7.2539e-05
6990.0 8.1427e-05
7010.0 8.0016e-05
7030.0 8.6957e-05
7050.0 7.8906e-05
7070.0 7.0187e-05
7090.0 7.2963e-05
7110.0 7.6575e-05
7130.0 8.5467e-05
7150.0 9.3856e-05
7170.0 0.00010457
7190.0 0.00011357
7210.0 0.00010621
7230.0 0.00010842
7250.0 0.00011609
7270.0 0.00012512
7290.0 0.00015179
7310.0 0.00016317
7330.0 0.0001557
7350.0 0.00014024
7370.0 0.00011299
7390.0 0.00011253
7410.0 0.00012803
7430.0 0.00014423
7450.0 0.00015627
7470.0 0.00014831
7490.0 0.00012564
7510.0 0.00017
7530.0 0.00016153
7550.0 0.00014953
7570.0 0.00010882
7590.0 6.1496e-05
7610.0 4.9046e-05
7630.0 6.2392e-05
7650.0 7.8088e-05
7670.0 0.00010951
7690.0 0.00012108
7710.0 0.0001176
7730.0 0.00012053
7750.0 0.00014622
7770.0 0.00014955
7790.0 0.00013691
7810.0 0.00011743
7830.0 0.00012424
7850.0 0.00012852
7870.0 0.0001219
7890.0 9.8489e-05
7910.0 7.2936e-05
7930.0 7.2637e-05
7950.0 6.5961e-05
7970.0 5.8327e-05
7990.0 5.5538e-05
8010.0 1.5012e-05
8030.0 1.3613e-05
8050.0 1.473e-05
8070.0 1.6922e-05
8090.0 2.1067e-05
8110.0 1.9897e-05
8130.0 1.1415e-05
8150.0 1.2112e-05
8170.0 6.3756e-06
8190.0 3.5044e-06
8210.0 1.0958e-05
8230.0 1.3407e-05
8250.0 4.8694e-06
8270.0 3.6992e-06
8290.0 8.0851e-06
8310.0 7.3446e-06
8330.0 4.542e-06
8350.0 3.6091e-06
8370.0 6.6772e-07
8390.0 3.8853e-06
8410.0 4.4135e-06
8430.0 5.4587e-06
8450.0 6.1973e-06
8470.0 1.0627e-05
8490.0 8.699e-06
8510.0 6.6537e-06
8530.0 3.3346e-06
8550.0 1.217e-05
8570.0 1.8743e-05
8590.0 1.2988e-05
8610.0 1.9663e-05
8630.0 2.1556e-05
8650.0 1.1843e-05
8670.0 1.7451e-05
8690.0 2.6797e-05
8710.0 2.2839e-05
8730.0 2.4417e-05
8750.0 1.9082e-05
8770.0 1.6913e-05
8790.0 1.8704e-05
8810.0 2.0321e-05
8830.0 1.1169e-05
8850.0 4.5078e-06
8870.0 3.0688e-06
8890.0 8.2721e-06
8910.0 1.3342e-05
8930.0 1.787e-05
8950.0 1.9649e-05
8970.0 1.8844e-05
8990.0 1.3749e-05
9010.0 2.5706e-05
9030.0 2.0809e-05
9050.0 2.1271e-05
9070.0 2.1801e-05
9090.0 2.2242e-05
9110.0 2.2784e-05
9130.0 2.3179e-05
9150.0 2.3463e-05
9170.0 2.3766e-05
9190.0 2.4089e-05
9210.0 2.443e-05
9230.0 2.4789e-05
9250.0 2.5151e-05
9270.0 2.5525e-05
9290.0 2.5909e-05
9310.0 2.6292e-05
9330.0 2.6679e-05
9350.0 2.7081e-05
9370.0 2.7484e-05
9390.0 2.7888e-05
9410.0 2.8303e-05
9430.0 2.8729e-05
9450.0 2.915e-05
9470.0 2.9578e-05
9490.0 3.0018e-05
9510.0 3.0461e-05
9530.0 3.0904e-05
9550.0 3.1363e-05
9570.0 3.1828e-05
9590.0 3.2292e-05
9610.0 3.2763e-05
9630.0 3.3248e-05
9650.0 3.3734e-05
9670.0 3.4219e-05
9690.0 3.4718e-05
9710.0 3.5224e-05
9730.0 3.5729e-05
9750.0 3.6241e-05
9770.0 3.6771e-05
9790.0 3.7297e-05
9810.0 3.7824e-05
9830.0 3.8364e-05
9850.0 3.891e-05
9870.0 3.9452e-05
9890.0 4.0004e-05
9910.0 4.0567e-05
9930.0 4.1128e-05
9950.0 4.1691e-05
9970.0 4.2268e-05
9990.0 4.285e-05
10010.0 3.7585e-05
10030.0 3.809e-05
10050.0 3.8603e-05
10070.0 3.9116e-05
10090.0 3.9624e-05
10110.0 4.0145e-05
10130.0 4.0666e-05
10150.0 4.1183e-05
10170.0 4.1706e-05
10190.0 4.2238e-05
10210.0 4.2762e-05
10230.0 4.3284e-05
10250.0 4.3815e-05
10270.0 4.4345e-05
10290.0 4.4868e-05
10310.0 4.5398e-05
10330.0 4.5934e-05
10350.0 4.6459e-05
10370.0 4.6983e-05
10390.0 4.7513e-05
10410.0 4.8041e-05
10430.0 4.8557e-05
10450.0 4.9078e-05
10470.0 4.9601e-05
10490.0 5.0114e-05
10510.0 5.0623e-05
10530.0 5.1142e-05
10550.0 5.165e-05
10570.0 5.2147e-05
10590.0 5.2647e-05
10610.0 5.3146e-05
10630.0 5.3631e-05
10650.0 5.4112e-05
10670.0 5.4598e-05
10690.0 5.5073e-05
10710.0 5.5537e-05
10730.0 5.6002e-05
10750.0 5.6467e-05
10770.0 5.6911e-05
10790.0 5.7351e-05
10810.0 5.7791e-05
10830.0 5.8216e-05
10850.0 5.862e-05
10870.0 5.9015e-05
10890.0 5.9372e-05
10910.0 5.9662e-05
10930.0 5.986e-05
10950.0 5.9915e-05
10970.0 5.9778e-05
10990.0 5.9431e-05
11010.0 5.6013e-05
11030.0 5.514e-05
11050.0 5.4058e-05
11070.0 5.2754e-05
11090.0 5.1181e-05
11110.0 4.9551e-05
11130.0 4.7852e-05
11150.0 4.6026e-05
11170.0 4.4149e-05
11190.0 4.2333e-05
11210.0 4.0464e-05
11230.0 3.8554e-05
11250.0 3.6734e-05
11270.0 3.4989e-05
11290.0 3.3246e-05
11310.0 3.1597e-05
11330.0 3.0142e-05
11350.0 2.8767e-05
11370.0 2.7494e-05
11390.0 2.6386e-05
11410.0 2.5411e-05
11430.0 2.4498e-05
11450.0 2.3704e-05
11470.0 2.3008e-05
11490.0 2.2355e-05
11510.0 2.1721e-05
11530.0 2.113e-05
11550.0 2.0542e-05
11570.0 1.9919e-05
11590.0 1.9277e-05
11610.0 1.8627e-05
11630.0 1.7926e-05
11650.0 1.7181e-05
11670.0 1.645e-05
11690.0 1.5711e-05
11710.0 1.4952e-05
11730.0 1.4217e-05
11750.0 1.3536e-05
11770.0 1.2869e-05
11790.0 1.2241e-05
11810.0 1.1685e-05
11830.0 1.1185e-05
11850.0 1.0721e-05
11870.0 1.0327e-05
11890.0 9.9955e-06
11910.0 9.6999e-06
11930.0 9.4418e-06
11950.0 9.2226e-06
11970.0 9.0244e-06
11990.0 8.8362e-06
12010.0 8.6613e-06
12030.0 8.4933e-06
12050.0 8.3214e-06
12070.0 8.1446e-06
12090.0 7.9745e-06
12110.0 7.8026e-06
12130.0 7.6303e-06
12150.0 7.4696e-06
12170.0 7.3259e-06
12190.0 7.1967e-06
12210.0 7.0972e-06
12230.0 7.0333e-06
12250.0 7.0076e-06
12270.0 7.0281e-06
12290.0 7.0956e-06
12310.0 7.2062e-06
12330.0 7.3725e-06
12350.0 7.5875e-06
12370.0 7.8371e-06
12390.0 8.129e-06
12410.0 8.4754e-06
12430.0 8.8284e-06
12450.0 9.195e-06
12470.0 9.5861e-06
12490.0 9.979e-06
12510.0 1.0346e-05
12530.0 1.0712e-05
12550.0 1.1064e-05
12570.0 1.1372e-05
12590.0 1.1641e-05
12610.0 1.1879e-05
12630.0 1.2066e-05
12650.0 1.2189e-05
12670.0 1.2265e-05
12690.0 1.2287e-05
12710.0 1.2251e-05
12730.0 1.2165e-05
12750.0 1.2024e-05
12770.0 1.1835e-05
12790.0 1.161e-05
12810.0 1.1345e-05
12830.0 1.1041e-05
12850.0 1.0724e-05
12870.0 1.0391e-05
12890.0 1.0032e-05
12910.0 9.6695e-06
12930.0 9.3128e-06
12950.0 8.9424e-06
12970.0 8.567e-06
12990.0 8.2123e-06
13010.0 7.8629e-06
13030.0 7.5107e-06
13050.0 7.1727e-06
13070.0 6.856e-06
13090.0 6.5385e-06
13110.0 6.2311e-06
13130.0 5.9471e-06
13150.0 5.6774e-06
13170.0 5.4128e-06
13190.0 5.1759e-06
13210.0 4.9659e-06
13230.0 4.7723e-06
13250.0 4.6034e-06
13270.0 4.4674e-06
13290.0 4.3582e-06
13310.0 4.2783e-06
13330.0 4.2343e-06
13350.0 4.2239e-06
13370.0 4.2486e-06
13390.0 4.311e-06
13410.0 4.4013e-06
13430.0 4.5232e-06
13450.0 4.6776e-06
13470.0 4.8518e-06
13490.0 5.0386e-06
13510.0 5.252e-06
13530.0 5.4704e-06
13550.0 5.6812e-06
13570.0 5.891e-06
13590.0 6.0973e-06
13610.0 6.2825e-06
13630.0 6.4455e-06
13650.0 6.596e-06
13670.0 6.7224e-06
13690.0 6.8215e-06
13710.0 6.8997e-06
13730.0 6.9575e-06
13750.0 6.9886e-06
13770.0 6.9992e-06
13790.0 6.9906e-06
13810.0 6.9627e-06
13830.0 6.9189e-06
13850.0 6.8582e-06
13870.0 6.7807e-06
13890.0 6.6913e-06
13910.0 6.5901e-06
13930.0 6.4728e-06
13950.0 6.3445e-06
13970.0 6.2134e-06
13990.0 6.0707e-06
14010.0 5.9191e-06
14030.0 5.768e-06
14050.0 5.6159e-06
14070.0 5.4556e-06
14090.0 5.3019e-06
14110.0 5.1575e-06
14130.0 5.0174e-06
14150.0 4.8853e-06
14170.0 4.7722e-06
14190.0 4.674e-06
14210.0 4.5902e-06
14230.0 4.5273e-06
14250.0 4.4856e-06
14270.0 4.4639e-06
14290.0 4.4651e-06
14310.0 4.4874e-06
14330.0 4.5296e-06
14350.0 4.5933e-06
14370.0 4.6738e-06
14390.0 4.7661e-06
14410.0 4.8758e-06
14430.0 4.9971e-06
14450.0 5.1219e-06
14470.0 5.2524e-06
14490.0 5.392e-06
14510.0 5.5265e-06
14530.0 5.6552e-06
14550.0 5.7845e-06
14570.0 5.9094e-06
14590.0 6.0237e-06
14610.0 6.1347e-06
14630.0 6.2447e-06
14650.0 6.3474e-06
14670.0 6.4464e-06
14690.0 6.5494e-06
14710.0 6.6573e-06
14730.0 6.7649e-06
14750.0 6.8839e-06
14770.0 7.0184e-06
14790.0 7.1642e-06
14810.0 7.3223e-06
14830.0 7.5094e-06
14850.0 7.7131e-06
14870.0 7.9262e-06
14890.0 8.1564e-06
14910.0 8.4012e-06
14930.0 8.6374e-06
14950.0 8.8589e-06
14970.0 9.0693e-06
14990.0 9.247e-06
15010.0 9.3844e-06
15030.0 9.4878e-06
15050.0 9.5583e-06
15070.0 9.5959e-06
15090.0 9.6131e-06
15110.0 9.616e-06
15130.0 9.6099e-06
15150.0 9.5996e-06
15170.0 9.5864e-06
15190.0 9.5717e-06
15210.0 9.5575e-06
15230.0 9.5433e-06
15250.0 9.5283e-06
15270.0 9.5137e-06
15290.0 9.5002e-06
15310.0 9.4862e-06
15330.0 9.472e-06
15350.0 9.4587e-06
15370.0 9.4455e-06
15390.0 9.4314e-06
15410.0 9.4179e-06
15430.0 9.4051e-06
15450.0 9.3919e-06
15470.0 9.3783e-06
15490.0 9.3658e-06
15510.0 9.3534e-06
15530.0 9.3402e-06
15550.0 9.3275e-06
15570.0 9.3155e-06
15590.0 9.3026e-06
15610.0 9.2895e-06
15630.0 9.2775e-06
15650.0 9.2654e-06
15670.0 9.2527e-06
15690.0 9.2404e-06
15710.0 9.2289e-06
15730.0 9.2164e-06
15750.0 9.2039e-06
15770.0 9.1921e-06
15790.0 9.1802e-06
15810.0 9.1673e-06
15830.0 9.1552e-06
15850.0 9.1437e-06
15870.0 9.1314e-06
15890.0 9.119e-06
15910.0 9.1075e-06
15930.0 9.0955e-06
15950.0 9.0827e-06
15970.0 9.0706e-06
15990.0 9.0589e-06
16010.0 9.0463e-06
16030.0 9.0335e-06
16050.0 9.0219e-06
16070.0 9.0097e-06
16090.0 8.9969e-06
16110.0 8.9847e-06
16130.0 8.9728e-06
16150.0 8.9595e-06
16170.0 8.9466e-06
16190.0 8.9344e-06
16210.0 8.9217e-06
16230.0 8.9084e-06
16250.0 8.8958e-06
16270.0 8.8834e-06
16290.0 8.8699e-06
16310.0 8.8566e-06
16330.0 8.8439e-06
16350.0 8.8306e-06
16370.0 8.8162e-06
16390.0 8.8031e-06
16410.0 8.7899e-06
16430.0 8.7759e-06
16450.0 8.7619e-06
16470.0 8.7488e-06
16490.0 8.7345e-06
16510.0 8.7199e-06
16530.0 8.7059e-06
16550.0 8.6919e-06
16570.0 8.6768e-06
16590.0 8.6619e-06
16610.0 8.6479e-06
16630.0 8.6329e-06
16650.0 8.6176e-06
16670.0 8.6029e-06
16690.0 8.5881e-06
16710.0 8.5719e-06
16730.0 8.5563e-06
16750.0 8.5411e-06
16770.0 8.5252e-06
16790.0 8.5087e-06
16810.0 8.4932e-06
16830.0 8.4773e-06
16850.0 8.4605e-06
16870.0 8.444e-06
16890.0 8.428e-06
16910.0 8.4108e-06
16930.0 8.3932e-06
16950.0 8.3767e-06
16970.0 8.3597e-06
16990.0 8.3418e-06
17010.0 8.3244e-06
17030.0 8.3075e-06
17050.0 8.2893e-06
17070.0 8.271e-06
17090.0 8.2533e-06
17110.0 8.2353e-06
17130.0 8.216e-06
17150.0 8.1975e-06
17170.0 8.1794e-06
17190.0 8.1603e-06
17210.0 8.1411e-06
17230.0 8.1226e-06
17250.0 8.1034e-06
17270.0 8.0832e-06
17290.0 8.0638e-06
17310.0 8.0445e-06
17330.0 8.0242e-06
17350.0 8.0037e-06
17370.0 7.9842e-06
17390.0 7.964e-06
17410.0 7.9431e-06
17430.0 7.9228e-06
17450.0 7.9027e-06
17470.0 7.881e-06
17490.0 7.8596e-06
17510.0 7.839e-06
17530.0 7.8177e-06
17550.0 7.7958e-06
17570.0 7.7745e-06
17590.0 7.7534e-06
17610.0 7.7311e-06
17630.0 7.709e-06
17650.0 7.6874e-06
17670.0 7.6652e-06
17690.0 7.6418e-06
17710.0 7.6198e-06
17730.0 7.5976e-06
17750.0 7.5745e-06
17770.0 7.5516e-06
17790.0 7.5294e-06
17810.0 7.506e-06
17830.0 7.4823e-06
17850.0 7.4593e-06
17870.0 7.4362e-06
17890.0 7.412e-06
17910.0 7.3881e-06
17930.0 7.3652e-06
17950.0 7.3412e-06
17970.0 7.3169e-06
17990.0 7.2933e-06
18010.0 7.2695e-06
18030.0 7.2444e-06
18050.0 7.22e-06
18070.0 7.1961e-06
18090.0 7.1713e-06
18110.0 7.1461e-06
18130.0 7.122e-06
18150.0 7.0975e-06
18170.0 7.0721e-06
18190.0 7.0472e-06
18210.0 7.0228e-06
18230.0 6.9972e-06
18250.0 6.9713e-06
18270.0 6.9466e-06
18290.0 6.9214e-06
18310.0 6.8955e-06
18330.0 6.8702e-06
18350.0 6.8453e-06
18370.0 6.8192e-06
18390.0 6.7932e-06
18410.0 6.7679e-06
18430.0 6.7422e-06
18450.0 6.7155e-06
18470.0 6.6898e-06
18490.0 6.6644e-06
18510.0 6.6381e-06
18530.0 6.6118e-06
18550.0 6.5863e-06
18570.0 6.5601e-06
18590.0 6.5332e-06
18610.0 6.5071e-06
18630.0 6.4813e-06
18650.0 6.4545e-06
18670.0 6.4277e-06
18690.0 6.4021e-06
18710.0 6.3757e-06
18730.0 6.3488e-06
18750.0 6.3226e-06
18770.0 6.2966e-06
18790.0 6.2692e-06
18810.0 6.2424e-06
18830.0 6.2164e-06
18850.0 6.1897e-06
18870.0 6.1625e-06
18890.0 6.1363e-06
18910.0 6.1101e-06
18930.0 6.0829e-06
18950.0 6.0561e-06
18970.0 6.03e-06
18990.0 6.0032e-06
19010.0 5.9754e-06
19030.0 5.9493e-06
19050.0 5.9229e-06
19070.0 5.8958e-06
19090.0 5.869e-06
19110.0 5.8431e-06
19130.0 5.816e-06
19150.0 5.7887e-06
19170.0 5.7624e-06
19190.0 5.7359e-06
19210.0 5.7085e-06
19230.0 5.6817e-06
19250.0 5.6557e-06
19270.0 5.6289e-06
19290.0 5.6018e-06
19310.0 5.5757e-06
19330.0 5.5493e-06
19350.0 5.5218e-06
19370.0 5.4952e-06
19390.0 5.4691e-06
19410.0 5.4423e-06
19430.0 5.4152e-06
19450.0 5.3893e-06
19470.0 5.363e-06
19490.0 5.336e-06
19510.0 5.3097e-06
19530.0 5.2838e-06
19550.0 5.2568e-06
19570.0 5.2298e-06
19590.0 5.204e-06
19610.0 5.1778e-06
19630.0 5.1511e-06
19650.0 5.125e-06
19670.0 5.0994e-06
19690.0 5.0726e-06
19710.0 5.0462e-06
19730.0 5.0205e-06
19750.0 4.9944e-06
19770.0 4.9675e-06
19790.0 4.9416e-06
19810.0 4.9161e-06
19830.0 4.8897e-06
19850.0 4.8632e-06
19870.0 4.8373e-06
19890.0 4.8096e-06
19910.0 4.7796e-06
19930.0 4.7479e-06
19950.0 4.7121e-06
19970.0 4.6689e-06
19990.0 4.6177e-06
20010.0 4.1568e-06
20030.0 4.0939e-06
20050.0 4.021e-06
20070.0 3.9424e-06
20090.0 3.8584e-06
20110.0 3.7638e-06
20130.0 3.6684e-06
20150.0 3.5741e-06
20170.0 3.4766e-06
20190.0 3.378e-06
20210.0 3.285e-06
20230.0 3.1945e-06
20250.0 3.1038e-06
20270.0 3.0197e-06
20290.0 2.9428e-06
20310.0 2.8697e-06
20330.0 2.8013e-06
20350.0 2.7442e-06
20370.0 2.6933e-06
20390.0 2.6483e-06
20410.0 2.6117e-06
20430.0 2.5829e-06
20450.0 2.5598e-06
20470.0 2.5436e-06
20490.0 2.5341e-06
20510.0 2.5301e-06
20530.0 2.5315e-06
20550.0 2.5377e-06
20570.0 2.5477e-06
20590.0 2.5618e-06
20610.0 2.5794e-06
20630.0 2.5991e-06
20650.0 2.6214e-06
20670.0 2.6471e-06
20690.0 2.6735e-06
20710.0 2.7009e-06
20730.0 2.7306e-06
20750.0 2.7616e-06
20770.0 2.792e-06
20790.0 2.8239e-06
20810.0 2.8577e-06
20830.0 2.891e-06
20850.0 2.9244e-06
20870.0 2.9601e-06
20890.0 2.9963e-06
20910.0 3.031e-06
20930.0 3.067e-06
20950.0 3.1041e-06
20970.0 3.1401e-06
20990.0 3.1756e-06
21010.0 3.2128e-06
21030.0 3.249e-06
21050.0 3.2835e-06
21070.0 3.3179e-06
21090.0 3.3523e-06
21110.0 3.3836e-06
21130.0 3.4129e-06
21150.0 3.4412e-06
21170.0 3.4668e-06
21190.0 3.4887e-06
21210.0 3.5083e-06
21230.0 3.5246e-06
21250.0 3.536e-06
21270.0 3.543e-06
21290.0 3.5452e-06
21310.0 3.5418e-06
21330.0 3.5331e-06
21350.0 3.5182e-06
21370.0 3.4966e-06
21390.0 3.4692e-06
21410.0 3.4358e-06
21430.0 3.3937e-06
21450.0 3.3464e-06
21470.0 3.2949e-06
21490.0 3.2367e-06
21510.0 3.1728e-06
21530.0 3.1079e-06
21550.0 3.04e-06
21570.0 2.9675e-06
21590.0 2.8961e-06
21610.0 2.8271e-06
21630.0 2.758e-06
21650.0 2.6905e-06
21670.0 2.6317e-06
21690.0 2.5775e-06
21710.0 2.5285e-06
21730.0 2.4882e-06
21750.0 2.4567e-06
21770.0 2.4325e-06
21790.0 2.418e-06
21810.0 2.413e-06
21830.0 2.4168e-06
21850.0 2.4302e-06
21870.0 2.4517e-06
21890.0 2.48e-06
21910.0 2.5166e-06
21930.0 2.5598e-06
21950.0 2.6067e-06
21970.0 2.6589e-06
21990.0 2.7176e-06
22010.0 2.7764e-06
22030.0 2.8362e-06
22050.0 2.8991e-06
22070.0 2.9625e-06
22090.0 3.0225e-06
22110.0 3.0831e-06
22130.0 3.1437e-06
22150.0 3.2004e-06
22170.0 3.2538e-06
22190.0 3.3068e-06
22210.0 3.3562e-06
22230.0 3.3996e-06
22250.0 3.4405e-06
22270.0 3.4781e-06
22290.0 3.5102e-06
22310.0 3.5377e-06
22330.0 3.5619e-06
22350.0 3.5805e-06
22370.0 3.5934e-06
22390.0 3.6013e-06
22410.0 3.6035e-06
22430.0 3.5997e-06
22450.0 3.59e-06
22470.0 3.5737e-06
22490.0 3.551e-06
22510.0 3.5228e-06
22530.0 3.487e-06
22550.0 3.4434e-06
22570.0 3.3952e-06
22590.0 3.3409e-06
22610.0 3.2785e-06
