#lamb flux
1010.0 3.5777e-08
1030.0 4.0141e-08
1050.0 4.5161e-08
1070.0 5.0811e-08
1090.0 5.723e-08
1110.0 6.3813e-08
1130.0 7.0439e-08
1150.0 7.7379e-08
1170.0 8.4538e-08
1190.0 9.1327e-08
1210.0 9.8207e-08
1230.0 1.0532e-07
1250.0 1.1228e-07
1270.0 1.1905e-07
1290.0 1.262e-07
1310.0 1.3334e-07
1330.0 1.4019e-07
1350.0 1.4711e-07
1370.0 1.5427e-07
1390.0 1.6124e-07
1410.0 1.68e-07
1430.0 1.7507e-07
1450.0 1.8214e-07
1470.0 1.8897e-07
1490.0 1.9587e-07
1510.0 2.0316e-07
1530.0 2.1007e-07
1550.0 2.1688e-07
1570.0 2.2392e-07
1590.0 2.3097e-07
1610.0 2.377e-07
1630.0 2.4463e-07
1650.0 2.5174e-07
1670.0 2.5861e-07
1690.0 2.6538e-07
1710.0 2.724e-07
1730.0 2.7945e-07
1750.0 2.8607e-07
1770.0 2.9286e-07
1790.0 2.9978e-07
1810.0 3.0644e-07
1830.0 3.1297e-07
1850.0 3.1987e-07
1870.0 3.2656e-07
1890.0 3.3297e-07
1910.0 3.3947e-07
1930.0 3.4609e-07
1950.0 3.5233e-07
1970.0 3.5842e-07
1990.0 3.6469e-07
2010.0 3.7077e-07
2030.0 3.7651e-07
2050.0 3.8235e-07
2070.0 3.8825e-07
2090.0 3.9363e-07
2110.0 3.9886e-07
2130.0 4.0414e-07
2150.0 4.0913e-07
2170.0 4.1367e-07
2190.0 4.1827e-07
2210.0 4.2271e-07
2230.0 4.2668e-07
2250.0 4.3041e-07
2270.0 4.3419e-07
2290.0 4.3752e-07
2310.0 4.4034e-07
2330.0 4.4311e-07
2350.0 4.4569e-07
2370.0 4.4782e-07
2390.0 4.4989e-07
2410.0 4.523e-07
2430.0 4.5474e-07
2450.0 4.5748e-07
2470.0 4.6121e-07
2490.0 4.6621e-07
2510.0 4.7199e-07
2530.0 4.8002e-07
2550.0 4.9235e-07
2570.0 5.1075e-07
2590.0 5.3818e-07
2610.0 5.8323e-07
2630.0 6.487e-07
2650.0 7.3197e-07
2670.0 8.3506e-07
2690.0 9.5467e-07
2710.0 1.0731e-06
2730.0 1.1807e-06
2750.0 1.2779e-06
2770.0 1.3529e-06
2790.0 1.4031e-06
2810.0 1.4353e-06
2830.0 1.4537e-06
2850.0 1.4582e-06
2870.0 1.4554e-06
2890.0 1.449e-06
2910.0 1.4399e-06
2930.0 1.4288e-06
2950.0 1.4178e-06
2970.0 1.4071e-06
2990.0 1.3961e-06
3010.0 3.6176e-05
3030.0 3.5902e-05
3050.0 3.5633e-05
3070.0 3.5343e-05
3090.0 3.504e-05
3110.0 3.4691e-05
3130.0 3.4253e-05
3150.0 3.3703e-05
3170.0 3.2992e-05
3190.0 3.2137e-05
3210.0 3.1197e-05
3230.0 3.0226e-05
3250.0 2.9328e-05
3270.0 2.8685e-05
3290.0 2.832e-05
3310.0 2.8351e-05
3330.0 2.8742e-05
3350.0 2.9436e-05
3370.0 3.0445e-05
3390.0 3.1731e-05
3410.0 3.3143e-05
3430.0 3.4746e-05
3450.0 3.6601e-05
3470.0 3.8633e-05
3490.0 4.0795e-05
3510.0 4.3236e-05
3530.0 4.5867e-05
3550.0 4.8595e-05
3570.0 5.1532e-05
3590.0 5.4838e-05
3610.0 5.8407e-05
3630.0 6.2104e-05
3650.0 6.6011e-05
3670.0 6.964e-05
3690.0 7.2432e-05
3710.0 7.4019e-05
3730.0 7.3791e-05
3750.0 7.1693e-05
3770.0 6.8692e-05
3790.0 6.3715e-05
3810.0 5.4698e-05
3830.0 4.9069e-05
3850.0 4.8327e-05
3870.0 3.6694e-05
3890.0 4.2809e-05
3910.0 6.3337e-05
3930.0 7.9182e-05
3950.0 8.1275e-05
3970.0 8.9366e-05
3990.0 9.1052e-05
4010.0 0.00012612
4030.0 0.00012139
4050.0 0.0001075
4070.0 0.0001063
4090.0 0.00010161
4110.0 0.00011541
4130.0 0.00012958
4150.0 0.00014314
4170.0 0.00013137
4190.0 0.00012654
4210.0 0.00013066
4230.0 0.00015291
4250.0 0.00017142
4270.0 0.00017906
4290.0 0.00017387
4310.0 0.00016992
4330.0 0.00018135
4350.0 0.00021897
4370.0 0.00025469
4390.0 0.00022557
4410.0 0.00016437
4430.0 0.00013228
4450.0 0.00011546
4470.0 0.00010458
4490.0 0.0001269
4510.0 0.00017087
4530.0 0.00019645
4550.0 0.00021323
4570.0 0.00023012
4590.0 0.00026893
4610.0 0.00039705
4630.0 0.0005105
4650.0 0.00050478
4670.0 0.00046732
4690.0 0.00049687
4710.0 0.00052842
4730.0 0.00043826
4750.0 0.0002974
4770.0 0.00023182
4790.0 0.00023633
4810.0 0.00022751
4830.0 0.00021774
4850.0 0.00024481
4870.0 0.00032112
4890.0 0.00037399
4910.0 0.00030412
4930.0 0.00027448
4950.0 0.00030941
4970.0 0.0004177
4990.0 0.00055354
5010.0 0.00060954
5030.0 0.00049484
5050.0 0.00030651
5070.0 0.00021265
5090.0 0.00018102
5110.0 0.00018333
5130.0 0.00020311
5150.0 0.00020695
5170.0 0.00020324
5190.0 0.00019418
5210.0 0.00019373
5230.0 0.00021206
5250.0 0.00023404
5270.0 0.00024873
5290.0 0.00028262
5310.0 0.00033383
5330.0 0.0003448
5350.0 0.00034285
5370.0 0.00037843
5390.0 0.00043421
5410.0 0.00040249
5430.0 0.00032938
5450.0 0.00031042
5470.0 0.00035277
5490.0 0.00045215
5510.0 0.00057422
5530.0 0.00065052
5550.0 0.00061199
5570.0 0.00054916
5590.0 0.0004743
5610.0 0.00045298
5630.0 0.00045613
5650.0 0.00045148
5670.0 0.00043209
5690.0 0.00038066
5710.0 0.00037111
5730.0 0.00034816
5750.0 0.00022101
5770.0 0.0001824
5790.0 0.00021213
5810.0 0.00025007
5830.0 0.00031314
5850.0 0.00036619
5870.0 0.00038163
5890.0 0.00036595
5910.0 0.0003511
5930.0 0.00034803
5950.0 0.00036309
5970.0 0.00041206
5990.0 0.00037107
6010.0 0.00030158
6030.0 0.00024836
6050.0 0.00021636
6070.0 0.00022922
6090.0 0.00026066
6110.0 0.00028056
6130.0 0.00026475
6150.0 0.00023011
6170.0 0.00023019
6190.0 0.00028113
6210.0 0.00037039
6230.0 0.00046395
6250.0 0.00047509
6270.0 0.00040222
6290.0 0.00033607
6310.0 0.00026312
6330.0 0.00020286
6350.0 0.00018626
6370.0 0.00019847
6390.0 0.00023796
6410.0 0.00028541
6430.0 0.00033585
6450.0 0.00039956
6470.0 0.00046345
6490.0 0.00056922
6510.0 0.00063624
6530.0 0.00060606
6550.0 0.00055525
6570.0 0.00050868
6590.0 0.00049119
6610.0 0.00042506
6630.0 0.00040063
6650.0 0.00037224
6670.0 0.00036756
6690.0 0.00034064
6710.0 0.0003103
6730.0 0.00024232
6750.0 0.00023328
6770.0 0.00025548
6790.0 0.00030401
6810.0 0.00027685
6830.0 0.00028451
6850.0 0.00026775
6870.0 0.00025547
6890.0 0.00024115
6910.0 0.0002458
6930.0 0.00022956
6950.0 0.00024637
6970.0 0.00024882
6990.0 0.00027773
7010.0 0.00029072
7030.0 0.00028271
7050.0 0.000259
7070.0 0.00024412
7090.0 0.00023485
7110.0 0.00022689
7130.0 0.00024021
7150.0 0.00026143
7170.0 0.00028318
7190.0 0.0002894
7210.0 0.00027295
7230.0 0.00027926
7250.0 0.00031396
7270.0 0.00036065
7290.0 0.00040749
7310.0 0.00040643
7330.0 0.00036419
7350.0 0.00032489
7370.0 0.00028473
7390.0 0.00029082
7410.0 0.00032285
7430.0 0.00035666
7450.0 0.00038517
7470.0 0.00039998
7490.0 0.00041566
7510.0 0.00048756
7530.0 0.00044806
7550.0 0.00038489
7570.0 0.00028876
7590.0 0.00019026
7610.0 0.00016301
7630.0 0.00018562
7650.0 0.00022052
7670.0 0.00027522
7690.0 0.00031205
7710.0 0.00031923
7730.0 0.00032379
7750.0 0.0003563
7770.0 0.00035687
7790.0 0.00033892
7810.0 0.00032257
7830.0 0.00032263
7850.0 0.00030706
7870.0 0.00028432
7890.0 0.00024604
7910.0 0.00019766
7930.0 0.00017838
7950.0 0.00016092
7970.0 0.00015173
7990.0 0.00015171
8010.0 0.00015724
8030.0 0.00015568
8050.0 0.00015862
8070.0 0.00015866
8090.0 0.00016695
8110.0 0.00015698
8130.0 0.0001297
8150.0 0.00012262
8170.0 0.00010688
8190.0 0.00010194
8210.0 0.00011794
8230.0 0.00012843
8250.0 0.00010956
8270.0 9.6927e-05
8290.0 8.5981e-05
8310.0 6.0927e-05
8330.0 3.9106e-05
8350.0 2.9092e-05
8370.0 2.6732e-05
8390.0 3.5261e-05
8410.0 4.4302e-05
8430.0 5.4474e-05
8450.0 6.0437e-05
8470.0 7.1571e-05
8490.0 6.7887e-05
8510.0 6.567e-05
8530.0 6.3619e-05
8550.0 8.6471e-05
8570.0 0.00011148
8590.0 0.00011731
8610.0 0.00014639
8630.0 0.0001679
8650.0 0.00016298
8670.0 0.00017213
8690.0 0.00018291
8710.0 0.00016899
8730.0 0.00016539
8750.0 0.00014866
8770.0 0.00014118
8790.0 0.00014291
8810.0 0.00013925
8830.0 0.00010969
8850.0 8.5155e-05
8870.0 6.9905e-05
8890.0 7.5159e-05
8910.0 8.6878e-05
8930.0 9.6725e-05
8950.0 0.00010953
8970.0 0.00011015
8990.0 0.00010301
9010.0 9.1944e-05
9030.0 8.8506e-05
9050.0 8.9812e-05
9070.0 9.0912e-05
9090.0 9.1752e-05
9110.0 9.2601e-05
9130.0 9.3282e-05
9150.0 9.3855e-05
9170.0 9.4464e-05
9190.0 9.5113e-05
9210.0 9.5796e-05
9230.0 9.6516e-05
9250.0 9.7269e-05
9270.0 9.805e-05
9290.0 9.8858e-05
9310.0 9.9694e-05
9330.0 0.00010056
9350.0 0.00010144
9370.0 0.00010236
9390.0 0.0001033
9410.0 0.00010426
9430.0 0.00010525
9450.0 0.00010626
9470.0 0.0001073
9490.0 0.00010837
9510.0 0.00010945
9530.0 0.00011057
9550.0 0.0001117
9570.0 0.00011286
9590.0 0.00011404
9610.0 0.00011524
9630.0 0.00011647
9650.0 0.00011771
9670.0 0.00011898
9690.0 0.00012027
9710.0 0.00012158
9730.0 0.0001229
9750.0 0.00012425
9770.0 0.00012561
9790.0 0.000127
9810.0 0.00012839
9830.0 0.00012981
9850.0 0.00013124
9870.0 0.00013268
9890.0 0.00013414
9910.0 0.00013561
9930.0 0.00013709
9950.0 0.00013859
9970.0 0.00014009
9990.0 0.00014161
10010.0 0.00013462
10030.0 0.00013603
10050.0 0.00013743
10070.0 0.00013883
10090.0 0.00014026
10110.0 0.00014168
10130.0 0.0001431
10150.0 0.00014452
10170.0 0.00014595
10190.0 0.00014736
10210.0 0.00014878
10230.0 0.00015019
10250.0 0.0001516
10270.0 0.000153
10290.0 0.00015439
10310.0 0.00015577
10330.0 0.00015714
10350.0 0.00015851
10370.0 0.00015986
10390.0 0.00016119
10410.0 0.00016252
10430.0 0.00016383
10450.0 0.00016512
10470.0 0.00016638
10490.0 0.00016764
10510.0 0.00016887
10530.0 0.00017008
10550.0 0.00017126
10570.0 0.00017243
10590.0 0.00017357
10610.0 0.00017468
10630.0 0.00017577
10650.0 0.00017683
10670.0 0.00017786
10690.0 0.00017886
10710.0 0.00017983
10730.0 0.00018077
10750.0 0.00018167
10770.0 0.00018255
10790.0 0.00018339
10810.0 0.00018419
10830.0 0.00018495
10850.0 0.00018567
10870.0 0.0001863
10890.0 0.00018682
10910.0 0.00018718
10930.0 0.00018729
10950.0 0.00018698
10970.0 0.00018618
10990.0 0.00018483
11010.0 0.00018193
11030.0 0.0001791
11050.0 0.0001757
11070.0 0.00017163
11090.0 0.00016672
11110.0 0.00016163
11130.0 0.00015632
11150.0 0.00015059
11170.0 0.0001447
11190.0 0.00013903
11210.0 0.00013321
11230.0 0.00012732
11250.0 0.00012177
11270.0 0.00011653
11290.0 0.00011136
11310.0 0.00010655
11330.0 0.00010238
11350.0 9.8492e-05
11370.0 9.4934e-05
11390.0 9.1867e-05
11410.0 8.9174e-05
11430.0 8.6636e-05
11450.0 8.4388e-05
11470.0 8.2366e-05
11490.0 8.0393e-05
11510.0 7.8392e-05
11530.0 7.6444e-05
11550.0 7.444e-05
11570.0 7.2256e-05
11590.0 6.9972e-05
11610.0 6.7645e-05
11630.0 6.5132e-05
11650.0 6.2476e-05
11670.0 5.9892e-05
11690.0 5.731e-05
11710.0 5.4687e-05
11730.0 5.2181e-05
11750.0 4.9887e-05
11770.0 4.7664e-05
11790.0 4.5599e-05
11810.0 4.3787e-05
11830.0 4.2168e-05
11850.0 4.0672e-05
11870.0 3.94e-05
11890.0 3.8316e-05
11910.0 3.733e-05
11930.0 3.6439e-05
11950.0 3.5647e-05
11970.0 3.4891e-05
11990.0 3.4128e-05
12010.0 3.3379e-05
12030.0 3.2625e-05
12050.0 3.1827e-05
12070.0 3.0986e-05
12090.0 3.0166e-05
12110.0 2.9328e-05
12130.0 2.8477e-05
12150.0 2.7672e-05
12170.0 2.6936e-05
12190.0 2.6242e-05
12210.0 2.5657e-05
12230.0 2.521e-05
12250.0 2.4894e-05
12270.0 2.4732e-05
12290.0 2.4734e-05
12310.0 2.4886e-05
12330.0 2.5209e-05
12350.0 2.5687e-05
12370.0 2.6277e-05
12390.0 2.6991e-05
12410.0 2.7856e-05
12430.0 2.8739e-05
12450.0 2.9653e-05
12470.0 3.0622e-05
12490.0 3.1581e-05
12510.0 3.2456e-05
12530.0 3.3307e-05
12550.0 3.4102e-05
12570.0 3.4767e-05
12590.0 3.5314e-05
12610.0 3.5765e-05
12630.0 3.6077e-05
12650.0 3.6229e-05
12670.0 3.6262e-05
12690.0 3.6164e-05
12710.0 3.5939e-05
12730.0 3.5604e-05
12750.0 3.5151e-05
12770.0 3.4605e-05
12790.0 3.399e-05
12810.0 3.3295e-05
12830.0 3.2524e-05
12850.0 3.1732e-05
12870.0 3.0907e-05
12890.0 3.0026e-05
12910.0 2.913e-05
12930.0 2.824e-05
12950.0 2.7308e-05
12970.0 2.635e-05
12990.0 2.5424e-05
13010.0 2.4496e-05
13030.0 2.3543e-05
13050.0 2.261e-05
13070.0 2.1718e-05
13090.0 2.0813e-05
13110.0 1.9926e-05
13130.0 1.9096e-05
13150.0 1.8304e-05
13170.0 1.7527e-05
13190.0 1.6831e-05
13210.0 1.6216e-05
13230.0 1.5656e-05
13250.0 1.5175e-05
13270.0 1.4793e-05
13290.0 1.4494e-05
13310.0 1.4283e-05
13330.0 1.4173e-05
13350.0 1.4154e-05
13370.0 1.4226e-05
13390.0 1.439e-05
13410.0 1.4616e-05
13430.0 1.4911e-05
13450.0 1.5273e-05
13470.0 1.567e-05
13490.0 1.6083e-05
13510.0 1.6544e-05
13530.0 1.7003e-05
13550.0 1.7435e-05
13570.0 1.7854e-05
13590.0 1.8258e-05
13610.0 1.8608e-05
13630.0 1.8906e-05
13650.0 1.9172e-05
13670.0 1.9382e-05
13690.0 1.9532e-05
13710.0 1.9635e-05
13730.0 1.9691e-05
13750.0 1.969e-05
13770.0 1.9646e-05
13790.0 1.956e-05
13810.0 1.9435e-05
13830.0 1.9279e-05
13850.0 1.909e-05
13870.0 1.8868e-05
13890.0 1.8627e-05
13910.0 1.8367e-05
13930.0 1.8078e-05
13950.0 1.7772e-05
13970.0 1.7468e-05
13990.0 1.7145e-05
14010.0 1.6811e-05
14030.0 1.6485e-05
14050.0 1.6162e-05
14070.0 1.583e-05
14090.0 1.5517e-05
14110.0 1.5228e-05
14130.0 1.4954e-05
14150.0 1.4701e-05
14170.0 1.4488e-05
14190.0 1.4309e-05
14210.0 1.4162e-05
14230.0 1.4057e-05
14250.0 1.3995e-05
14270.0 1.3974e-05
14290.0 1.3998e-05
14310.0 1.4061e-05
14330.0 1.4162e-05
14350.0 1.4304e-05
14370.0 1.4477e-05
14390.0 1.4672e-05
14410.0 1.4899e-05
14430.0 1.515e-05
14450.0 1.5408e-05
14470.0 1.568e-05
14490.0 1.5976e-05
14510.0 1.627e-05
14530.0 1.6561e-05
14550.0 1.687e-05
14570.0 1.7189e-05
14590.0 1.7504e-05
14610.0 1.7837e-05
14630.0 1.82e-05
14650.0 1.8572e-05
14670.0 1.8961e-05
14690.0 1.9392e-05
14710.0 1.9862e-05
14730.0 2.0338e-05
14750.0 2.0859e-05
14770.0 2.1429e-05
14790.0 2.2017e-05
14810.0 2.262e-05
14830.0 2.3286e-05
14850.0 2.3961e-05
14870.0 2.4618e-05
14890.0 2.5283e-05
14910.0 2.5946e-05
14930.0 2.6549e-05
14950.0 2.7086e-05
14970.0 2.7573e-05
14990.0 2.7966e-05
15010.0 2.8257e-05
15030.0 2.8466e-05
15050.0 2.8598e-05
15070.0 2.8659e-05
15090.0 2.8678e-05
15110.0 2.8666e-05
15130.0 2.8635e-05
15150.0 2.8597e-05
15170.0 2.8553e-05
15190.0 2.8505e-05
15210.0 2.846e-05
15230.0 2.8415e-05
15250.0 2.8367e-05
15270.0 2.8321e-05
15290.0 2.8279e-05
15310.0 2.8234e-05
15330.0 2.8189e-05
15350.0 2.8147e-05
15370.0 2.8105e-05
15390.0 2.8059e-05
15410.0 2.8016e-05
15430.0 2.7975e-05
15450.0 2.7933e-05
15470.0 2.7889e-05
15490.0 2.7849e-05
15510.0 2.7808e-05
15530.0 2.7765e-05
15550.0 2.7724e-05
15570.0 2.7684e-05
15590.0 2.7642e-05
15610.0 2.7598e-05
15630.0 2.7558e-05
15650.0 2.7517e-05
15670.0 2.7474e-05
15690.0 2.7433e-05
15710.0 2.7393e-05
15730.0 2.7351e-05
15750.0 2.7307e-05
15770.0 2.7266e-05
15790.0 2.7225e-05
15810.0 2.7179e-05
15830.0 2.7137e-05
15850.0 2.7096e-05
15870.0 2.7051e-05
15890.0 2.7007e-05
15910.0 2.6965e-05
15930.0 2.6921e-05
15950.0 2.6874e-05
15970.0 2.6829e-05
15990.0 2.6785e-05
16010.0 2.6738e-05
16030.0 2.669e-05
16050.0 2.6646e-05
16070.0 2.6599e-05
16090.0 2.655e-05
16110.0 2.6502e-05
16130.0 2.6456e-05
16150.0 2.6404e-05
16170.0 2.6353e-05
16190.0 2.6305e-05
16210.0 2.6254e-05
16230.0 2.6201e-05
16250.0 2.615e-05
16270.0 2.6099e-05
16290.0 2.6045e-05
16310.0 2.599e-05
16330.0 2.5938e-05
16350.0 2.5883e-05
16370.0 2.5824e-05
16390.0 2.5769e-05
16410.0 2.5714e-05
16430.0 2.5655e-05
16450.0 2.5596e-05
16470.0 2.554e-05
16490.0 2.548e-05
16510.0 2.5418e-05
16530.0 2.5358e-05
16550.0 2.5297e-05
16570.0 2.5233e-05
16590.0 2.5169e-05
16610.0 2.5108e-05
16630.0 2.5043e-05
16650.0 2.4977e-05
16670.0 2.4912e-05
16690.0 2.4847e-05
16710.0 2.4777e-05
16730.0 2.4709e-05
16750.0 2.4642e-05
16770.0 2.4572e-05
16790.0 2.45e-05
16810.0 2.4431e-05
16830.0 2.4361e-05
16850.0 2.4287e-05
16870.0 2.4214e-05
16890.0 2.4142e-05
16910.0 2.4066e-05
16930.0 2.3989e-05
16950.0 2.3915e-05
16970.0 2.3839e-05
16990.0 2.3761e-05
17010.0 2.3683e-05
17030.0 2.3607e-05
17050.0 2.3526e-05
17070.0 2.3445e-05
17090.0 2.3366e-05
17110.0 2.3286e-05
17130.0 2.3201e-05
17150.0 2.3119e-05
17170.0 2.3038e-05
17190.0 2.2953e-05
17210.0 2.2868e-05
17230.0 2.2785e-05
17250.0 2.2699e-05
17270.0 2.2611e-05
17290.0 2.2524e-05
17310.0 2.2438e-05
17330.0 2.2349e-05
17350.0 2.2259e-05
17370.0 2.2172e-05
17390.0 2.2083e-05
17410.0 2.1991e-05
17430.0 2.1901e-05
17450.0 2.1812e-05
17470.0 2.1717e-05
17490.0 2.1624e-05
17510.0 2.1533e-05
17530.0 2.1439e-05
17550.0 2.1344e-05
17570.0 2.1251e-05
17590.0 2.1158e-05
17610.0 2.1061e-05
17630.0 2.0965e-05
17650.0 2.0871e-05
17670.0 2.0774e-05
17690.0 2.0674e-05
17710.0 2.0578e-05
17730.0 2.0482e-05
17750.0 2.0383e-05
17770.0 2.0284e-05
17790.0 2.0188e-05
17810.0 2.0088e-05
17830.0 1.9987e-05
17850.0 1.9888e-05
17870.0 1.9789e-05
17890.0 1.9687e-05
17910.0 1.9586e-05
17930.0 1.9487e-05
17950.0 1.9386e-05
17970.0 1.9283e-05
17990.0 1.9183e-05
18010.0 1.9083e-05
18030.0 1.8978e-05
18050.0 1.8876e-05
18070.0 1.8775e-05
18090.0 1.8672e-05
18110.0 1.8568e-05
18130.0 1.8467e-05
18150.0 1.8365e-05
18170.0 1.826e-05
18190.0 1.8157e-05
18210.0 1.8056e-05
18230.0 1.7951e-05
18250.0 1.7845e-05
18270.0 1.7743e-05
18290.0 1.764e-05
18310.0 1.7535e-05
18330.0 1.7432e-05
18350.0 1.733e-05
18370.0 1.7225e-05
18390.0 1.712e-05
18410.0 1.7018e-05
18430.0 1.6914e-05
18450.0 1.6807e-05
18470.0 1.6704e-05
18490.0 1.6602e-05
18510.0 1.6498e-05
18530.0 1.6393e-05
18550.0 1.6292e-05
18570.0 1.6188e-05
18590.0 1.6082e-05
18610.0 1.598e-05
18630.0 1.5878e-05
18650.0 1.5773e-05
18670.0 1.5669e-05
18690.0 1.5568e-05
18710.0 1.5466e-05
18730.0 1.5361e-05
18750.0 1.526e-05
18770.0 1.5159e-05
18790.0 1.5054e-05
18810.0 1.4952e-05
18830.0 1.4851e-05
18850.0 1.475e-05
18870.0 1.4646e-05
18890.0 1.4546e-05
18910.0 1.4447e-05
18930.0 1.4344e-05
18950.0 1.4243e-05
18970.0 1.4145e-05
18990.0 1.4044e-05
19010.0 1.3941e-05
19030.0 1.3843e-05
19050.0 1.3744e-05
19070.0 1.3644e-05
19090.0 1.3545e-05
19110.0 1.3449e-05
19130.0 1.3349e-05
19150.0 1.3249e-05
19170.0 1.3152e-05
19190.0 1.3055e-05
19210.0 1.2956e-05
19230.0 1.2859e-05
19250.0 1.2764e-05
19270.0 1.2667e-05
19290.0 1.257e-05
19310.0 1.2475e-05
19330.0 1.2381e-05
19350.0 1.2283e-05
19370.0 1.2188e-05
19390.0 1.2095e-05
19410.0 1.2e-05
19430.0 1.1904e-05
19450.0 1.1813e-05
19470.0 1.172e-05
19490.0 1.1626e-05
19510.0 1.1533e-05
19530.0 1.1443e-05
19550.0 1.1349e-05
19570.0 1.1256e-05
19590.0 1.1166e-05
19610.0 1.1076e-05
19630.0 1.0984e-05
19650.0 1.0894e-05
19670.0 1.0806e-05
19690.0 1.0715e-05
19710.0 1.0625e-05
19730.0 1.0538e-05
19750.0 1.0449e-05
19770.0 1.0359e-05
19790.0 1.0272e-05
19810.0 1.0186e-05
19830.0 1.0098e-05
19850.0 1.001e-05
19870.0 9.9239e-06
19890.0 9.8343e-06
19910.0 9.7398e-06
19930.0 9.6429e-06
19950.0 9.5385e-06
19970.0 9.4194e-06
19990.0 9.2855e-06
20010.0 9.2706e-06
20030.0 9.1027e-06
20050.0 8.9152e-06
20070.0 8.7191e-06
20090.0 8.5145e-06
20110.0 8.2909e-06
20130.0 8.0699e-06
20150.0 7.8555e-06
20170.0 7.6379e-06
20190.0 7.4215e-06
20210.0 7.2196e-06
20230.0 7.025e-06
20250.0 6.8324e-06
20270.0 6.6546e-06
20290.0 6.4927e-06
20310.0 6.3395e-06
20330.0 6.1967e-06
20350.0 6.0772e-06
20370.0 5.9708e-06
20390.0 5.8773e-06
20410.0 5.8012e-06
20430.0 5.7417e-06
20450.0 5.6947e-06
20470.0 5.6631e-06
20490.0 5.6459e-06
20510.0 5.6411e-06
20530.0 5.649e-06
20550.0 5.6677e-06
20570.0 5.6946e-06
20590.0 5.7316e-06
20610.0 5.7766e-06
20630.0 5.826e-06
20650.0 5.8814e-06
20670.0 5.945e-06
20690.0 6.0091e-06
20710.0 6.0748e-06
20730.0 6.1454e-06
20750.0 6.2181e-06
20770.0 6.2883e-06
20790.0 6.3611e-06
20810.0 6.4373e-06
20830.0 6.5116e-06
20850.0 6.5851e-06
20870.0 6.6632e-06
20890.0 6.742e-06
20910.0 6.8168e-06
20930.0 6.8942e-06
20950.0 6.9743e-06
20970.0 7.0519e-06
20990.0 7.1284e-06
21010.0 7.2095e-06
21030.0 7.2889e-06
21050.0 7.3646e-06
21070.0 7.441e-06
21090.0 7.5186e-06
21110.0 7.5897e-06
21130.0 7.6573e-06
21150.0 7.7245e-06
21170.0 7.7869e-06
21190.0 7.8422e-06
21210.0 7.895e-06
21230.0 7.943e-06
21250.0 7.9818e-06
21270.0 8.0135e-06
21290.0 8.0385e-06
21310.0 8.0539e-06
21330.0 8.0589e-06
21350.0 8.0543e-06
21370.0 8.0381e-06
21390.0 8.0103e-06
21410.0 7.9706e-06
21430.0 7.9154e-06
21450.0 7.8479e-06
21470.0 7.7694e-06
21490.0 7.6761e-06
21510.0 7.569e-06
21530.0 7.455e-06
21550.0 7.3308e-06
21570.0 7.1934e-06
21590.0 7.0525e-06
21610.0 6.9108e-06
21630.0 6.7631e-06
21650.0 6.612e-06
21670.0 6.4736e-06
21690.0 6.3387e-06
21710.0 6.2083e-06
21730.0 6.0909e-06
21750.0 5.9885e-06
21770.0 5.8945e-06
21790.0 5.8172e-06
21810.0 5.7584e-06
21830.0 5.7155e-06
21850.0 5.6893e-06
21870.0 5.6811e-06
21890.0 5.6889e-06
21910.0 5.7134e-06
21930.0 5.7538e-06
21950.0 5.8065e-06
21970.0 5.873e-06
21990.0 5.9561e-06
22010.0 6.046e-06
22030.0 6.1436e-06
22050.0 6.2528e-06
22070.0 6.3689e-06
22090.0 6.4844e-06
22110.0 6.6065e-06
22130.0 6.7342e-06
22150.0 6.8586e-06
22170.0 6.9803e-06
22190.0 7.1058e-06
22210.0 7.2266e-06
22230.0 7.3362e-06
22250.0 7.4422e-06
22270.0 7.5426e-06
22290.0 7.6303e-06
22310.0 7.7072e-06
22330.0 7.7767e-06
22350.0 7.8321e-06
22370.0 7.8727e-06
22390.0 7.9007e-06
22410.0 7.9142e-06
22430.0 7.9117e-06
22450.0 7.8947e-06
22470.0 7.8616e-06
22490.0 7.8129e-06
22510.0 7.7509e-06
22530.0 7.6712e-06
22550.0 7.574e-06
22570.0 7.466e-06
22590.0 7.3443e-06
22610.0 7.2046e-06
