#lamb flux
1010.0 2.8598e-05
1030.0 3.8743e-05
1050.0 5.2475e-05
1070.0 7.061e-05
1090.0 9.4427e-05
1110.0 0.00012358
1130.0 0.00015817
1150.0 0.00019934
1170.0 0.00024708
1190.0 0.00029897
1210.0 0.0003558
1230.0 0.00041737
1250.0 0.00048066
1270.0 0.00054343
1290.0 0.00060678
1310.0 0.00066667
1330.0 0.00071921
1350.0 0.00076447
1370.0 0.00080158
1390.0 0.00082684
1410.0 0.00083934
1430.0 0.0008416
1450.0 0.00083204
1470.0 0.00081029
1490.0 0.00077911
1510.0 0.00074097
1530.0 0.00069433
1550.0 0.0006424
1570.0 0.00058795
1590.0 0.00053156
1610.0 0.00047401
1630.0 0.00041778
1650.0 0.00036353
1670.0 0.00031134
1690.0 0.00026214
1710.0 0.0002166
1730.0 0.00017462
1750.0 0.00013608
1770.0 0.00010139
1790.0 7.0346e-05
1810.0 4.2737e-05
1830.0 1.85e-05
1850.0 9.6531e-06
1870.0 1.3571e-05
1890.0 1.6875e-05
1910.0 1.9612e-05
1930.0 2.1817e-05
1950.0 2.2582e-05
1970.0 2.2834e-05
1990.0 2.3186e-05
2010.0 2.3613e-05
2030.0 2.4105e-05
2050.0 2.4684e-05
2070.0 2.3936e-05
2090.0 2.2576e-05
2110.0 2.0861e-05
2130.0 1.8816e-05
2150.0 1.6448e-05
2170.0 1.3779e-05
2190.0 1.0847e-05
2210.0 1.6533e-05
2230.0 3.3223e-05
2250.0 5.0825e-05
2270.0 6.9263e-05
2290.0 8.8347e-05
2310.0 0.00010789
2330.0 0.00012785
2350.0 0.00014806
2370.0 0.00016827
2390.0 0.00018839
2410.0 0.00020837
2430.0 0.0002278
2450.0 0.00024646
2470.0 0.00026426
2490.0 0.00028092
2510.0 0.00029617
2530.0 0.00031036
2550.0 0.00032416
2570.0 0.00033867
2590.0 0.00035551
2610.0 0.00037837
2630.0 0.00041049
2650.0 0.00045355
2670.0 0.00051191
2690.0 0.00058997
2710.0 0.00068314
2730.0 0.00078728
2750.0 0.00090561
2770.0 0.0010249
2790.0 0.0011321
2810.0 0.0012263
2830.0 0.0013064
2850.0 0.0013576
2870.0 0.0013879
2890.0 0.0014042
2910.0 0.0014064
2930.0 0.0013946
2950.0 0.0013775
2970.0 0.0013554
2990.0 0.0013259
3010.0 0.0012921
3030.0 0.0012578
3050.0 0.0012217
3070.0 0.0011812
3090.0 0.0011422
3110.0 0.0011049
3130.0 0.0010684
3150.0 0.000957
3170.0 0.0008659
3190.0 0.00076852
3210.0 0.00067749
3230.0 0.0006265
3250.0 0.00075178
3270.0 0.0011324
3290.0 0.0013054
3310.0 0.00079467
3330.0 0.00073917
3350.0 0.00078768
3370.0 0.00085099
3390.0 0.00090921
3410.0 0.00093228
3430.0 0.00092741
3450.0 0.0009146
3470.0 0.000916
3490.0 0.00086675
3510.0 0.00060224
3530.0 0.00033403
3550.0 0.00035522
3570.0 0.00075312
3590.0 0.0017327
3610.0 0.002238
3630.0 0.0035465
3650.0 0.0037915
3670.0 0.0030185
3690.0 0.002052
3710.0 0.0014791
3730.0 0.0015265
3750.0 0.0016207
3770.0 0.0016745
3790.0 0.0017179
3810.0 0.0021432
3830.0 0.0019272
3850.0 0.0014173
3870.0 0.001124
3890.0 0.0015107
3910.0 0.001796
3930.0 0.0018025
3950.0 0.0019861
3970.0 0.002192
3990.0 0.0020697
4010.0 0.0022617
4030.0 0.002139
4050.0 0.0019732
4070.0 0.0018363
4090.0 0.0018616
4110.0 0.0019732
4130.0 0.001934
4150.0 0.0017924
4170.0 0.0017023
4190.0 0.0017625
4210.0 0.0015466
4230.0 0.0013703
4250.0 0.001123
4270.0 0.00084199
4290.0 0.00084953
4310.0 0.00080926
4330.0 0.0007945
4350.0 0.0011185
4370.0 0.001125
4390.0 0.0013643
4410.0 0.0015148
4430.0 0.0016731
4450.0 0.0014378
4470.0 0.0011344
4490.0 0.001065
4510.0 0.00095936
4530.0 0.00088626
4550.0 0.00080218
4570.0 0.00077815
4590.0 0.0007933
4610.0 0.00063249
4630.0 0.00053378
4650.0 0.000409
4670.0 0.00040352
4690.0 0.00028848
4710.0 0.00022332
4730.0 0.00010603
4750.0 4.8416e-05
4770.0 7.9225e-05
4790.0 7.5322e-05
4810.0 7.6899e-05
4830.0 0.00013469
4850.0 0.00011445
4870.0 0.00013256
4890.0 0.00013923
4910.0 8.403e-05
4930.0 6.642e-05
4950.0 0.0001157
4970.0 9.981e-05
4990.0 8.6589e-05
5010.0 9.5903e-05
5030.0 9.582e-05
5050.0 9.0298e-05
5070.0 9.7196e-05
5090.0 0.00010103
5110.0 9.5154e-05
5130.0 0.0001002
5150.0 8.8879e-05
5170.0 0.00011545
5190.0 0.00011527
5210.0 0.00010978
5230.0 0.00011602
5250.0 9.695e-05
5270.0 9.7732e-05
5290.0 8.6294e-05
5310.0 8.0703e-05
5330.0 7.3027e-05
5350.0 9.946e-05
5370.0 9.1885e-05
5390.0 7.4882e-05
5410.0 8.0182e-05
5430.0 6.4295e-05
5450.0 8.5207e-05
5470.0 8.7669e-05
5490.0 0.00023627
5510.0 0.00022996
5530.0 0.00024086
5550.0 0.00019992
5570.0 0.00028764
5590.0 0.00040353
5610.0 0.00041183
5630.0 0.0003665
5650.0 0.00038055
5670.0 0.00037684
5690.0 0.00041709
5710.0 0.00033255
5730.0 0.00038001
5750.0 0.00038317
5770.0 0.00034848
5790.0 0.00045822
5810.0 0.00052873
5830.0 0.00047706
5850.0 0.00033267
5870.0 0.00025588
5890.0 0.00024937
5910.0 0.00034482
5930.0 0.00031058
5950.0 0.00035157
5970.0 0.00035838
5990.0 0.00040824
6010.0 0.00037988
6030.0 0.00040133
6050.0 0.00038827
6070.0 0.00030723
6090.0 0.00035833
6110.0 0.00038574
6130.0 0.00034176
6150.0 0.00034941
6170.0 0.00037001
6190.0 0.00023166
6210.0 0.00024815
6230.0 0.00028966
6250.0 0.00028359
6270.0 0.00027956
6290.0 0.00033269
6310.0 0.00040116
6330.0 0.00041159
6350.0 0.00039298
6370.0 0.00041605
6390.0 0.00033812
6410.0 0.00036468
6430.0 0.00032585
6450.0 0.00034519
6470.0 0.00036619
6490.0 0.00037959
6510.0 0.00030932
6530.0 0.00032425
6550.0 0.00031937
6570.0 0.00027828
6590.0 0.00032048
6610.0 0.00032494
6630.0 0.00033015
6650.0 0.00029097
6670.0 0.00026759
6690.0 0.00025294
6710.0 0.00023283
6730.0 0.00021708
6750.0 0.00021851
6770.0 0.00017324
6790.0 8.3065e-06
6810.0 4.918e-05
6830.0 0.00017376
6850.0 0.00013109
6870.0 0.00013087
6890.0 0.00012459
6910.0 0.00012129
6930.0 0.00010474
6950.0 0.00013394
6970.0 0.00012813
6990.0 0.00012707
7010.0 0.00012266
7030.0 0.00014945
7050.0 0.00014965
7070.0 7.5363e-05
7090.0 8.9229e-06
7110.0 1.3736e-05
7130.0 1.4447e-05
7150.0 2.893e-05
7170.0 2.7031e-05
7190.0 1.7161e-05
7210.0 5.054e-05
7230.0 0.0001092
7250.0 0.00010275
7270.0 0.00011129
7290.0 0.00013855
7310.0 8.9365e-05
7330.0 7.7024e-05
7350.0 6.532e-05
7370.0 0.00011098
7390.0 0.00016798
7410.0 8.2388e-05
7430.0 9.5854e-05
7450.0 9.0999e-05
7470.0 0.00014366
7490.0 0.00015688
7510.0 0.00011432
7530.0 0.00014612
7550.0 2.636e-05
7570.0 3.2878e-05
7590.0 5.8732e-05
7610.0 0.00013282
7630.0 8.6324e-05
7650.0 0.00012933
7670.0 2.8482e-05
7690.0 4.2758e-05
7710.0 3.5479e-05
7730.0 6.5113e-05
7750.0 3.7964e-05
7770.0 9.0849e-05
7790.0 0.00013341
7810.0 7.0879e-05
7830.0 0.00012424
7850.0 3.8817e-05
7870.0 0.00010891
7890.0 6.3026e-05
7910.0 6.6005e-05
7930.0 3.919e-05
7950.0 5.472e-05
7970.0 4.4537e-05
7990.0 5.5577e-05
8010.0 0.00067556
8030.0 0.00064525
8050.0 0.00063329
8070.0 0.00062211
8090.0 0.00060822
8110.0 0.00058016
8130.0 0.00062407
8150.0 0.00067263
8170.0 0.00070311
8190.0 0.00074962
8210.0 0.00070439
8230.0 0.00069951
8250.0 0.0006878
8270.0 0.00071205
8290.0 0.00071431
8310.0 0.00067159
8330.0 0.00062618
8350.0 0.0006516
8370.0 0.00067235
8390.0 0.00065093
8410.0 0.00064355
8430.0 0.00061856
8450.0 0.00058623
8470.0 0.00064284
8490.0 0.0006451
8510.0 0.00059538
8530.0 0.00061501
8550.0 0.00060989
8570.0 0.00054774
8590.0 0.00056314
8610.0 0.0005544
8630.0 0.00059335
8650.0 0.00059816
8670.0 0.00061238
8690.0 0.00059636
8710.0 0.00059507
8730.0 0.00055994
8750.0 0.00053925
8770.0 0.0005302
8790.0 0.00058057
8810.0 0.00052583
8830.0 0.00050864
8850.0 0.00055077
8870.0 0.00052015
8890.0 0.00046759
8910.0 0.00046471
8930.0 0.0004954
8950.0 0.00043873
8970.0 0.00041726
8990.0 0.0004069
9010.0 0.00037822
9030.0 0.00037193
9050.0 0.00037043
9070.0 0.00036918
9090.0 0.00036792
9110.0 0.00036667
9130.0 0.00036538
9150.0 0.00036406
9170.0 0.00036272
9190.0 0.00036138
9210.0 0.00036002
9230.0 0.00035866
9250.0 0.00035728
9270.0 0.0003559
9290.0 0.0003545
9310.0 0.00035349
9330.0 0.00035305
9350.0 0.00035262
9370.0 0.00035215
9390.0 0.00035165
9410.0 0.00035115
9430.0 0.00035063
9450.0 0.00035008
9470.0 0.0003497
9490.0 0.00034921
9510.0 0.00034849
9530.0 0.00034777
9550.0 0.00034709
9570.0 0.00034642
9590.0 0.00034571
9610.0 0.00034569
9630.0 0.00034574
9650.0 0.00034574
9670.0 0.00034566
9690.0 0.0003456
9710.0 0.00034552
9730.0 0.00034537
9750.0 0.0003452
9770.0 0.00034507
9790.0 0.00034486
9810.0 0.0003446
9830.0 0.00034435
9850.0 0.00034383
9870.0 0.00034303
9890.0 0.00034299
9910.0 0.00034282
9930.0 0.00034242
9950.0 0.00034205
9970.0 0.00034171
9990.0 0.00034131
10010.0 0.00034085
10030.0 0.00034037
10050.0 0.00033987
10070.0 0.00033933
10090.0 0.00033877
10110.0 0.0003382
10130.0 0.00033761
10150.0 0.00033699
10170.0 0.00033636
10190.0 0.00033573
10210.0 0.00033507
10230.0 0.00033438
10250.0 0.0003337
10270.0 0.000333
10290.0 0.00033227
10310.0 0.00033154
10330.0 0.00033081
10350.0 0.00033005
10370.0 0.00032928
10390.0 0.00032849
10410.0 0.00032747
10430.0 0.00032636
10450.0 0.00032581
10470.0 0.00032511
10490.0 0.00032437
10510.0 0.0003236
10530.0 0.00032277
10550.0 0.00032193
10570.0 0.0003211
10590.0 0.00032024
10610.0 0.00031937
10630.0 0.00031851
10650.0 0.00031765
10670.0 0.00031676
10690.0 0.00031588
10710.0 0.000315
10730.0 0.00031411
10750.0 0.00031321
10770.0 0.00031233
10790.0 0.00031144
10810.0 0.00031054
10830.0 0.00030964
10850.0 0.00030876
10870.0 0.00030784
10890.0 0.0003069
10910.0 0.00030595
10930.0 0.00030494
10950.0 0.00030384
10970.0 0.00030264
10990.0 0.00030135
11010.0 0.00014136
11030.0 0.00014047
11050.0 0.00013933
11070.0 0.00013797
11090.0 0.0001364
11110.0 0.00013474
11130.0 0.000133
11150.0 0.00013119
11170.0 0.00012935
11190.0 0.00012751
11210.0 0.00012565
11230.0 0.00012376
11250.0 0.0001219
11270.0 0.00012006
11290.0 0.00011821
11310.0 0.00011638
11330.0 0.00011462
11350.0 0.00011288
11370.0 0.00011118
11390.0 0.00010953
11410.0 0.00010795
11430.0 0.00010638
11450.0 0.00010486
11470.0 0.0001034
11490.0 0.00010196
11510.0 0.00010054
11530.0 9.9164e-05
11550.0 9.7808e-05
11570.0 9.6451e-05
11590.0 9.5109e-05
11610.0 9.3784e-05
11630.0 9.245e-05
11650.0 9.1105e-05
11670.0 8.9776e-05
11690.0 8.8443e-05
11710.0 8.7089e-05
11730.0 8.5733e-05
11750.0 8.4387e-05
11770.0 8.3018e-05
11790.0 8.1637e-05
11810.0 8.027e-05
11830.0 7.8904e-05
11850.0 7.7517e-05
11870.0 7.6157e-05
11890.0 7.4829e-05
11910.0 7.3509e-05
11930.0 7.2213e-05
11950.0 7.0971e-05
11970.0 6.9765e-05
11990.0 6.8589e-05
12010.0 6.7476e-05
12030.0 6.6424e-05
12050.0 6.5422e-05
12070.0 6.4478e-05
12090.0 6.3608e-05
12110.0 6.2794e-05
12130.0 6.2041e-05
12150.0 6.1347e-05
12170.0 6.0705e-05
12190.0 6.0119e-05
12210.0 5.9581e-05
12230.0 5.9076e-05
12250.0 5.8605e-05
12270.0 5.8168e-05
12290.0 5.7743e-05
12310.0 5.7324e-05
12330.0 5.6919e-05
12350.0 5.6513e-05
12370.0 5.6093e-05
12390.0 5.5664e-05
12410.0 5.5226e-05
12430.0 5.4757e-05
12450.0 5.4264e-05
12470.0 5.3746e-05
12490.0 5.3196e-05
12510.0 5.2617e-05
12530.0 5.2004e-05
12550.0 5.1352e-05
12570.0 5.0671e-05
12590.0 4.9961e-05
12610.0 4.9208e-05
12630.0 4.8421e-05
12650.0 4.7625e-05
12670.0 4.6795e-05
12690.0 4.5932e-05
12710.0 4.5066e-05
12730.0 4.4192e-05
12750.0 4.3276e-05
12770.0 4.2365e-05
12790.0 4.1467e-05
12810.0 4.0556e-05
12830.0 3.9635e-05
12850.0 3.875e-05
12870.0 3.7881e-05
12890.0 3.7008e-05
12910.0 3.6167e-05
12930.0 3.5371e-05
12950.0 3.4588e-05
12970.0 3.3835e-05
12990.0 3.3151e-05
13010.0 3.2513e-05
13030.0 3.1916e-05
13050.0 3.1383e-05
13070.0 3.0919e-05
13090.0 3.0503e-05
13110.0 3.0148e-05
13130.0 2.9858e-05
13150.0 2.9623e-05
13170.0 2.9442e-05
13190.0 2.9317e-05
13210.0 2.9237e-05
13230.0 2.9204e-05
13250.0 2.9214e-05
13270.0 2.9255e-05
13290.0 2.9329e-05
13310.0 2.9439e-05
13330.0 2.9565e-05
13350.0 2.9703e-05
13370.0 2.9857e-05
13390.0 3.0017e-05
13410.0 3.016e-05
13430.0 3.0297e-05
13450.0 3.0424e-05
13470.0 3.0528e-05
13490.0 3.0609e-05
13510.0 3.0674e-05
13530.0 3.0715e-05
13550.0 3.0735e-05
13570.0 3.0739e-05
13590.0 3.0727e-05
13610.0 3.0704e-05
13630.0 3.0671e-05
13650.0 3.0625e-05
13670.0 3.0569e-05
13690.0 3.0504e-05
13710.0 3.0425e-05
13730.0 3.032e-05
13750.0 3.0206e-05
13770.0 3.0074e-05
13790.0 2.9913e-05
13810.0 2.9728e-05
13830.0 2.9532e-05
13850.0 2.9306e-05
13870.0 2.9052e-05
13890.0 2.8792e-05
13910.0 2.8524e-05
13930.0 2.823e-05
13950.0 2.7934e-05
13970.0 2.7661e-05
13990.0 2.738e-05
14010.0 2.7102e-05
14030.0 2.685e-05
14050.0 2.6617e-05
14070.0 2.6381e-05
14090.0 2.6175e-05
14110.0 2.5998e-05
14130.0 2.5832e-05
14150.0 2.5678e-05
14170.0 2.5555e-05
14190.0 2.5447e-05
14210.0 2.5343e-05
14230.0 2.5257e-05
14250.0 2.5188e-05
14270.0 2.512e-05
14290.0 2.5058e-05
14310.0 2.5016e-05
14330.0 2.4983e-05
14350.0 2.4953e-05
14370.0 2.4938e-05
14390.0 2.494e-05
14410.0 2.4946e-05
14430.0 2.4964e-05
14450.0 2.5e-05
14470.0 2.5046e-05
14490.0 2.5096e-05
14510.0 2.516e-05
14530.0 2.5237e-05
14550.0 2.5315e-05
14570.0 2.5397e-05
14590.0 2.5487e-05
14610.0 2.5577e-05
14630.0 2.5663e-05
14650.0 2.5752e-05
14670.0 2.5842e-05
14690.0 2.5927e-05
14710.0 2.6007e-05
14730.0 2.6091e-05
14750.0 2.6169e-05
14770.0 2.6238e-05
14790.0 2.6306e-05
14810.0 2.6371e-05
14830.0 2.642e-05
14850.0 2.6463e-05
14870.0 2.6505e-05
14890.0 2.6539e-05
14910.0 2.6563e-05
14930.0 2.6591e-05
14950.0 2.6626e-05
14970.0 2.666e-05
14990.0 2.6705e-05
15010.0 2.6768e-05
15030.0 2.6842e-05
15050.0 2.6923e-05
15070.0 2.7021e-05
15090.0 2.7126e-05
15110.0 2.7232e-05
15130.0 2.734e-05
15150.0 2.7451e-05
15170.0 2.7559e-05
15190.0 2.7663e-05
15210.0 2.7768e-05
15230.0 2.787e-05
15250.0 2.7967e-05
15270.0 2.8062e-05
15290.0 2.8158e-05
15310.0 2.8249e-05
15330.0 2.8335e-05
15350.0 2.8421e-05
15370.0 2.8505e-05
15390.0 2.8581e-05
15410.0 2.8657e-05
15430.0 2.8731e-05
15450.0 2.88e-05
15470.0 2.8864e-05
15490.0 2.8928e-05
15510.0 2.8989e-05
15530.0 2.9044e-05
15550.0 2.9096e-05
15570.0 2.9148e-05
15590.0 2.9192e-05
15610.0 2.9232e-05
15630.0 2.9272e-05
15650.0 2.9308e-05
15670.0 2.9338e-05
15690.0 2.9366e-05
15710.0 2.9393e-05
15730.0 2.9412e-05
15750.0 2.9428e-05
15770.0 2.9443e-05
15790.0 2.9453e-05
15810.0 2.9456e-05
15830.0 2.9459e-05
15850.0 2.9459e-05
15870.0 2.9454e-05
15890.0 2.9444e-05
15910.0 2.9434e-05
15930.0 2.9418e-05
15950.0 2.9396e-05
15970.0 2.9374e-05
15990.0 2.9349e-05
16010.0 2.9317e-05
16030.0 2.9281e-05
16050.0 2.9247e-05
16070.0 2.9207e-05
16090.0 2.9161e-05
16110.0 2.9114e-05
16130.0 2.9066e-05
16150.0 2.9008e-05
16170.0 2.895e-05
16190.0 2.8891e-05
16210.0 2.8827e-05
16230.0 2.8757e-05
16250.0 2.8688e-05
16270.0 2.8616e-05
16290.0 2.8538e-05
16310.0 2.8458e-05
16330.0 2.8377e-05
16350.0 2.8291e-05
16370.0 2.8199e-05
16390.0 2.811e-05
16410.0 2.8017e-05
16430.0 2.7919e-05
16450.0 2.7819e-05
16470.0 2.7719e-05
16490.0 2.7614e-05
16510.0 2.7505e-05
16530.0 2.7396e-05
16550.0 2.7285e-05
16570.0 2.7168e-05
16590.0 2.7051e-05
16610.0 2.6934e-05
16630.0 2.6813e-05
16650.0 2.6688e-05
16670.0 2.6564e-05
16690.0 2.6438e-05
16710.0 2.6305e-05
16730.0 2.6174e-05
16750.0 2.6042e-05
16770.0 2.5907e-05
16790.0 2.5768e-05
16810.0 2.5631e-05
16830.0 2.5492e-05
16850.0 2.5349e-05
16870.0 2.5206e-05
16890.0 2.5063e-05
16910.0 2.4916e-05
16930.0 2.4766e-05
16950.0 2.4619e-05
16970.0 2.4469e-05
16990.0 2.4317e-05
17010.0 2.4164e-05
17030.0 2.4013e-05
17050.0 2.3857e-05
17070.0 2.3701e-05
17090.0 2.3546e-05
17110.0 2.3389e-05
17130.0 2.3228e-05
17150.0 2.3069e-05
17170.0 2.2912e-05
17190.0 2.275e-05
17210.0 2.2588e-05
17230.0 2.2429e-05
17250.0 2.2267e-05
17270.0 2.2102e-05
17290.0 2.1939e-05
17310.0 2.1777e-05
17330.0 2.1612e-05
17350.0 2.1446e-05
17370.0 2.1284e-05
17390.0 2.1119e-05
17410.0 2.0953e-05
17430.0 2.0788e-05
17450.0 2.0625e-05
17470.0 2.0457e-05
17490.0 2.0291e-05
17510.0 2.0127e-05
17530.0 1.9962e-05
17550.0 1.9795e-05
17570.0 1.9631e-05
17590.0 1.9468e-05
17610.0 1.9301e-05
17630.0 1.9136e-05
17650.0 1.8974e-05
17670.0 1.8809e-05
17690.0 1.8643e-05
17710.0 1.8481e-05
17730.0 1.8319e-05
17750.0 1.8155e-05
17770.0 1.7992e-05
17790.0 1.7833e-05
17810.0 1.7671e-05
17830.0 1.7509e-05
17850.0 1.7349e-05
17870.0 1.719e-05
17890.0 1.703e-05
17910.0 1.687e-05
17930.0 1.6715e-05
17950.0 1.6557e-05
17970.0 1.64e-05
17990.0 1.6245e-05
18010.0 1.6091e-05
18030.0 1.5935e-05
18050.0 1.5781e-05
18070.0 1.563e-05
18090.0 1.5477e-05
18110.0 1.5325e-05
18130.0 1.5176e-05
18150.0 1.5028e-05
18170.0 1.4878e-05
18190.0 1.473e-05
18210.0 1.4585e-05
18230.0 1.4438e-05
18250.0 1.4292e-05
18270.0 1.4149e-05
18290.0 1.4007e-05
18310.0 1.3863e-05
18330.0 1.3723e-05
18350.0 1.3584e-05
18370.0 1.3444e-05
18390.0 1.3306e-05
18410.0 1.317e-05
18430.0 1.3034e-05
18450.0 1.2897e-05
18470.0 1.2764e-05
18490.0 1.2632e-05
18510.0 1.25e-05
18530.0 1.2369e-05
18550.0 1.2241e-05
18570.0 1.2113e-05
18590.0 1.1984e-05
18610.0 1.1858e-05
18630.0 1.1733e-05
18650.0 1.1608e-05
18670.0 1.1485e-05
18690.0 1.1364e-05
18710.0 1.1244e-05
18730.0 1.1123e-05
18750.0 1.1005e-05
18770.0 1.0889e-05
18790.0 1.0771e-05
18810.0 1.0656e-05
18830.0 1.0543e-05
18850.0 1.043e-05
18870.0 1.0317e-05
18890.0 1.0207e-05
18910.0 1.0099e-05
18930.0 9.9895e-06
18950.0 9.882e-06
18970.0 9.777e-06
18990.0 9.6717e-06
19010.0 9.5658e-06
19030.0 9.4641e-06
19050.0 9.3631e-06
19070.0 9.2616e-06
19090.0 9.162e-06
19110.0 9.0652e-06
19130.0 8.967e-06
19150.0 8.8697e-06
19170.0 8.7752e-06
19190.0 8.6815e-06
19210.0 8.5871e-06
19230.0 8.4947e-06
19250.0 8.4051e-06
19270.0 8.3148e-06
19290.0 8.2251e-06
19310.0 8.1381e-06
19330.0 8.0517e-06
19350.0 7.964e-06
19370.0 7.8791e-06
19390.0 7.796e-06
19410.0 7.7125e-06
19430.0 7.6295e-06
19450.0 7.5495e-06
19470.0 7.4698e-06
19490.0 7.3895e-06
19510.0 7.3114e-06
19530.0 7.2349e-06
19550.0 7.1574e-06
19570.0 7.0805e-06
19590.0 7.0068e-06
19610.0 6.933e-06
19630.0 6.859e-06
19650.0 6.787e-06
19670.0 6.7166e-06
19690.0 6.6449e-06
19710.0 6.5745e-06
19730.0 6.5061e-06
19750.0 6.4377e-06
19770.0 6.3686e-06
19790.0 6.302e-06
19810.0 6.2366e-06
19830.0 6.1705e-06
19850.0 6.1053e-06
19870.0 6.0424e-06
19890.0 5.9789e-06
19910.0 5.9154e-06
19930.0 5.8546e-06
19950.0 5.7956e-06
19970.0 5.7373e-06
19990.0 5.6819e-06
20010.0 5.631e-06
20030.0 5.5827e-06
20050.0 5.5382e-06
20070.0 5.4988e-06
20090.0 5.4638e-06
20110.0 5.4328e-06
20130.0 5.4067e-06
20150.0 5.385e-06
20170.0 5.3671e-06
20190.0 5.353e-06
20210.0 5.3419e-06
20230.0 5.3335e-06
20250.0 5.3279e-06
20270.0 5.3239e-06
20290.0 5.3208e-06
20310.0 5.319e-06
20330.0 5.3181e-06
20350.0 5.316e-06
20370.0 5.3138e-06
20390.0 5.3114e-06
20410.0 5.3078e-06
20430.0 5.3028e-06
20450.0 5.2974e-06
20470.0 5.291e-06
20490.0 5.2832e-06
20510.0 5.2747e-06
20530.0 5.2659e-06
20550.0 5.2564e-06
20570.0 5.2462e-06
20590.0 5.2362e-06
20610.0 5.2262e-06
20630.0 5.2159e-06
20650.0 5.2057e-06
20670.0 5.1959e-06
20690.0 5.1857e-06
20710.0 5.1752e-06
20730.0 5.1646e-06
20750.0 5.1536e-06
20770.0 5.1413e-06
20790.0 5.1282e-06
20810.0 5.1141e-06
20830.0 5.0983e-06
20850.0 5.0806e-06
20870.0 5.0613e-06
20890.0 5.0396e-06
20910.0 5.0156e-06
20930.0 4.9893e-06
20950.0 4.9605e-06
20970.0 4.9293e-06
20990.0 4.8959e-06
21010.0 4.8599e-06
21030.0 4.8217e-06
21050.0 4.7817e-06
21070.0 4.7396e-06
21090.0 4.6953e-06
21110.0 4.6497e-06
21130.0 4.6027e-06
21150.0 4.5536e-06
21170.0 4.5031e-06
21190.0 4.4514e-06
21210.0 4.3977e-06
21230.0 4.3419e-06
21250.0 4.2848e-06
21270.0 4.2258e-06
21290.0 4.1642e-06
21310.0 4.1003e-06
21330.0 4.0349e-06
21350.0 3.9663e-06
21370.0 3.8957e-06
21390.0 3.9098e-06
21410.0 3.9243e-06
21430.0 3.9395e-06
21450.0 3.9552e-06
21470.0 3.9714e-06
21490.0 3.9881e-06
21510.0 4.0054e-06
21530.0 4.0231e-06
21550.0 4.0413e-06
21570.0 4.0602e-06
21590.0 4.0795e-06
21610.0 4.0993e-06
21630.0 4.1197e-06
21650.0 4.1408e-06
21670.0 4.1621e-06
21690.0 4.1841e-06
21710.0 4.2068e-06
21730.0 4.2299e-06
21750.0 4.2535e-06
21770.0 4.278e-06
21790.0 4.303e-06
21810.0 4.3283e-06
21830.0 4.3543e-06
21850.0 4.381e-06
21870.0 4.4081e-06
21890.0 4.4356e-06
21910.0 4.4638e-06
21930.0 4.4925e-06
21950.0 4.5215e-06
21970.0 4.5511e-06
21990.0 4.5814e-06
22010.0 4.6119e-06
22030.0 4.6427e-06
22050.0 4.6741e-06
22070.0 4.6892e-06
22090.0 4.6746e-06
22110.0 4.66e-06
22130.0 4.6455e-06
22150.0 4.6316e-06
22170.0 4.6182e-06
22190.0 4.6047e-06
22210.0 4.5916e-06
22230.0 4.5792e-06
22250.0 4.5669e-06
22270.0 4.5548e-06
22290.0 4.543e-06
22310.0 4.5315e-06
22330.0 4.5199e-06
22350.0 4.5084e-06
22370.0 4.4972e-06
22390.0 4.4858e-06
22410.0 4.4743e-06
22430.0 4.463e-06
22450.0 4.4516e-06
22470.0 4.44e-06
22490.0 4.4282e-06
22510.0 4.4165e-06
22530.0 4.4045e-06
22550.0 4.3923e-06
22570.0 4.3802e-06
22590.0 4.3679e-06
22610.0 4.3554e-06
22630.0 4.3429e-06
22650.0 4.3305e-06
22670.0 4.3178e-06
22690.0 4.3051e-06
22710.0 4.2926e-06
