#lamb flux
1010.0 1.0381e-07
1030.0 1.1482e-07
1050.0 1.2747e-07
1070.0 1.4172e-07
1090.0 1.5791e-07
1110.0 1.7451e-07
1130.0 1.9121e-07
1150.0 2.0871e-07
1170.0 2.2677e-07
1190.0 2.4389e-07
1210.0 2.6123e-07
1230.0 2.7916e-07
1250.0 2.9673e-07
1270.0 3.1379e-07
1290.0 3.3181e-07
1310.0 3.4982e-07
1330.0 3.671e-07
1350.0 3.8456e-07
1370.0 4.026e-07
1390.0 4.2018e-07
1410.0 4.3724e-07
1430.0 4.5508e-07
1450.0 4.7292e-07
1470.0 4.9016e-07
1490.0 5.0758e-07
1510.0 5.2599e-07
1530.0 5.4344e-07
1550.0 5.6065e-07
1570.0 5.7846e-07
1590.0 5.9629e-07
1610.0 6.1333e-07
1630.0 6.3091e-07
1650.0 6.4895e-07
1670.0 6.6642e-07
1690.0 6.8367e-07
1710.0 7.016e-07
1730.0 7.1964e-07
1750.0 7.3663e-07
1770.0 7.5413e-07
1790.0 7.7201e-07
1810.0 7.8933e-07
1830.0 8.0638e-07
1850.0 8.245e-07
1870.0 8.4218e-07
1890.0 8.5929e-07
1910.0 8.7679e-07
1930.0 8.9473e-07
1950.0 9.1191e-07
1970.0 9.2891e-07
1990.0 9.4659e-07
2010.0 9.6402e-07
2030.0 9.8087e-07
2050.0 9.9828e-07
2070.0 1.0162e-06
2090.0 1.0331e-06
2110.0 1.05e-06
2130.0 1.0674e-06
2150.0 1.0845e-06
2170.0 1.101e-06
2190.0 1.118e-06
2210.0 1.1353e-06
2230.0 1.1518e-06
2250.0 1.1683e-06
2270.0 1.1856e-06
2290.0 1.2023e-06
2310.0 1.2184e-06
2330.0 1.2352e-06
2350.0 1.2524e-06
2370.0 1.2695e-06
2390.0 1.288e-06
2410.0 1.31e-06
2430.0 1.3353e-06
2450.0 1.3655e-06
2470.0 1.4042e-06
2490.0 1.453e-06
2510.0 1.5085e-06
2530.0 1.5753e-06
2550.0 1.6588e-06
2570.0 1.7628e-06
2590.0 1.8981e-06
2610.0 2.1006e-06
2630.0 2.3897e-06
2650.0 2.7677e-06
2670.0 3.2564e-06
2690.0 3.857e-06
2710.0 4.4981e-06
2730.0 5.1316e-06
2750.0 5.7556e-06
2770.0 6.2983e-06
2790.0 6.7293e-06
2810.0 7.0714e-06
2830.0 7.3386e-06
2850.0 7.521e-06
2870.0 7.6549e-06
2890.0 7.7609e-06
2910.0 7.8455e-06
2930.0 7.9146e-06
2950.0 7.9806e-06
2970.0 8.0451e-06
2990.0 8.1056e-06
3010.0 0.00022911
3030.0 0.00023082
3050.0 0.00023248
3070.0 0.0002339
3090.0 0.00023511
3110.0 0.00023587
3130.0 0.00023584
3150.0 0.00023479
3170.0 0.00023228
3190.0 0.00022833
3210.0 0.00022332
3230.0 0.00021759
3250.0 0.00021193
3270.0 0.0002078
3290.0 0.0002055
3310.0 0.00020587
3330.0 0.00020885
3350.0 0.00021404
3370.0 0.00022145
3390.0 0.00023078
3410.0 0.00024095
3430.0 0.00025235
3450.0 0.00026548
3470.0 0.00027983
3490.0 0.00029502
3510.0 0.0003122
3530.0 0.0003306
3550.0 0.00034922
3570.0 0.00036865
3590.0 0.00038978
3610.0 0.00041155
3630.0 0.00043326
3650.0 0.00045577
3670.0 0.00047633
3690.0 0.0004917
3710.0 0.00050051
3730.0 0.0005008
3750.0 0.00049383
3770.0 0.00049109
3790.0 0.00048817
3810.0 0.00047617
3830.0 0.00049091
3850.0 0.0005489
3870.0 0.00058073
3890.0 0.00057808
3910.0 0.00058054
3930.0 0.00059583
3950.0 0.00060523
3970.0 0.00055142
3990.0 0.00047448
4010.0 0.0014221
4030.0 0.001723
4050.0 0.0019754
4070.0 0.0017139
4090.0 0.0015523
4110.0 0.0013698
4130.0 0.0012607
4150.0 0.001341
4170.0 0.001321
4190.0 0.0014081
4210.0 0.0013952
4230.0 0.0014757
4250.0 0.0017458
4270.0 0.0017664
4290.0 0.0016277
4310.0 0.0016913
4330.0 0.001799
4350.0 0.0020171
4370.0 0.0022955
4390.0 0.0021541
4410.0 0.0015915
4430.0 0.0013473
4450.0 0.001238
4470.0 0.00095024
4490.0 0.0010254
4510.0 0.0015489
4530.0 0.0017864
4550.0 0.0018019
4570.0 0.0020276
4590.0 0.0023096
4610.0 0.0031151
4630.0 0.0040458
4650.0 0.0043877
4670.0 0.0040634
4690.0 0.0038772
4710.0 0.0040985
4730.0 0.0038678
4750.0 0.0028917
4770.0 0.0021211
4790.0 0.0019807
4810.0 0.001888
4830.0 0.0017284
4850.0 0.0018966
4870.0 0.0025056
4890.0 0.0029549
4910.0 0.0025925
4930.0 0.002294
4950.0 0.0025203
4970.0 0.0032321
4990.0 0.0043803
5010.0 0.005039
5030.0 0.0044432
5050.0 0.0030061
5070.0 0.0019811
5090.0 0.0015975
5110.0 0.0016429
5130.0 0.0018961
5150.0 0.0020543
5170.0 0.0020235
5190.0 0.0018908
5210.0 0.0019763
5230.0 0.0020776
5250.0 0.0022391
5270.0 0.0024158
5290.0 0.0026772
5310.0 0.0031162
5330.0 0.0034485
5350.0 0.0034265
5370.0 0.0035992
5390.0 0.0041302
5410.0 0.0041265
5430.0 0.0036493
5450.0 0.0033529
5470.0 0.0035602
5490.0 0.0043495
5510.0 0.0054385
5530.0 0.0062376
5550.0 0.0060288
5570.0 0.0054806
5590.0 0.0047655
5610.0 0.0043949
5630.0 0.0042616
5650.0 0.0040588
5670.0 0.0038461
5690.0 0.0034384
5710.0 0.0033525
5730.0 0.0030882
5750.0 0.0021773
5770.0 0.0016987
5790.0 0.001925
5810.0 0.0021737
5830.0 0.0026674
5850.0 0.0031752
5870.0 0.003523
5890.0 0.0035827
5910.0 0.0035149
5930.0 0.0033457
5950.0 0.0034093
5970.0 0.0038862
5990.0 0.0036541
6010.0 0.0030632
6030.0 0.002588
6050.0 0.0022538
6070.0 0.0022415
6090.0 0.0024305
6110.0 0.0027177
6130.0 0.0027593
6150.0 0.0023741
6170.0 0.0020885
6190.0 0.0023503
6210.0 0.0031071
6230.0 0.0040774
6250.0 0.0044164
6270.0 0.0038593
6290.0 0.003247
6310.0 0.0025349
6330.0 0.0019422
6350.0 0.0017324
6370.0 0.0018218
6390.0 0.0021061
6410.0 0.0025969
6430.0 0.0030325
6450.0 0.00347
6470.0 0.0039732
6490.0 0.0047993
6510.0 0.0053663
6530.0 0.0052647
6550.0 0.0047607
6570.0 0.0040414
6590.0 0.0036442
6610.0 0.0031422
6630.0 0.0028467
6650.0 0.002691
6670.0 0.0026142
6690.0 0.0023621
6710.0 0.0021472
6730.0 0.0015466
6750.0 0.0015333
6770.0 0.0016666
6790.0 0.0019156
6810.0 0.0017528
6830.0 0.0018049
6850.0 0.0016882
6870.0 0.0015421
6890.0 0.0014807
6910.0 0.0015779
6930.0 0.0014779
6950.0 0.0015205
6970.0 0.0015993
6990.0 0.0018153
7010.0 0.0018308
7030.0 0.0018599
7050.0 0.0017737
7070.0 0.00169
7090.0 0.001695
7110.0 0.001744
7130.0 0.0018768
7150.0 0.0019933
7170.0 0.0021995
7190.0 0.0024179
7210.0 0.0023759
7230.0 0.0024424
7250.0 0.0026248
7270.0 0.0028604
7290.0 0.003395
7310.0 0.0036839
7330.0 0.0035607
7350.0 0.0032205
7370.0 0.0028021
7390.0 0.0027184
7410.0 0.0028888
7430.0 0.0032106
7450.0 0.0034969
7470.0 0.0034648
7490.0 0.0031592
7510.0 0.0035786
7530.0 0.0035394
7550.0 0.0031813
7570.0 0.0024852
7590.0 0.0017085
7610.0 0.0014664
7630.0 0.0016661
7650.0 0.0019699
7670.0 0.0024517
7690.0 0.0026979
7710.0 0.0028115
7730.0 0.0029546
7750.0 0.0033168
7770.0 0.003369
7790.0 0.0030946
7810.0 0.0028236
7830.0 0.0029118
7850.0 0.0028305
7870.0 0.0025951
7890.0 0.0021804
7910.0 0.0017724
7930.0 0.0016923
7950.0 0.0015418
7970.0 0.0014272
7990.0 0.001419
8010.0 0.0001051
8030.0 0.00010373
8050.0 0.00010233
8070.0 0.00010367
8090.0 0.00011139
8110.0 0.0001095
8130.0 9.032e-05
8150.0 8.7961e-05
8170.0 7.5766e-05
8190.0 7.1804e-05
8210.0 9.3245e-05
8230.0 0.00010382
8250.0 9.3568e-05
8270.0 8.1438e-05
8290.0 7.9387e-05
8310.0 6.11e-05
8330.0 4.1181e-05
8350.0 2.9226e-05
8370.0 1.8413e-05
8390.0 3.3659e-05
8410.0 3.9222e-05
8430.0 4.8347e-05
8450.0 5.6773e-05
8470.0 7.0565e-05
8490.0 7.0068e-05
8510.0 6.8922e-05
8530.0 7.193e-05
8550.0 9.7047e-05
8570.0 0.00011489
8590.0 0.00012397
8610.0 0.00015659
8630.0 0.00018864
8650.0 0.00019734
8670.0 0.00020971
8690.0 0.00021089
8710.0 0.00019099
8730.0 0.00017765
8750.0 0.00015681
8770.0 0.00014879
8790.0 0.00014617
8810.0 0.00014007
8830.0 0.00011201
8850.0 8.1996e-05
8870.0 6.2783e-05
8890.0 6.1381e-05
8910.0 7.0343e-05
8930.0 8.001e-05
8950.0 8.1542e-05
8970.0 8.1928e-05
8990.0 7.307e-05
9010.0 0.00076574
9030.0 0.00069385
9050.0 0.0006972
9070.0 0.0007027
9090.0 0.00070753
9110.0 0.00071349
9130.0 0.00071809
9150.0 0.00072166
9170.0 0.00072547
9190.0 0.00072954
9210.0 0.00073383
9230.0 0.00073835
9250.0 0.00074295
9270.0 0.00074771
9290.0 0.00075262
9310.0 0.00075756
9330.0 0.0007626
9350.0 0.00076783
9370.0 0.00077312
9390.0 0.00077846
9410.0 0.00078395
9430.0 0.00078962
9450.0 0.00079525
9470.0 0.00080101
9490.0 0.00080694
9510.0 0.00081293
9530.0 0.00081895
9550.0 0.00082518
9570.0 0.00083152
9590.0 0.00083788
9610.0 0.00084435
9630.0 0.00085099
9650.0 0.00085768
9670.0 0.00086439
9690.0 0.00087128
9710.0 0.00087828
9730.0 0.00088529
9750.0 0.0008924
9770.0 0.00089973
9790.0 0.00090704
9810.0 0.0009144
9830.0 0.0009219
9850.0 0.00092951
9870.0 0.00093708
9890.0 0.00094478
9910.0 0.00095262
9930.0 0.00096047
9950.0 0.00096835
9970.0 0.00097638
9990.0 0.00098449
10010.0 0.00085428
10030.0 0.00086129
10050.0 0.00086845
10070.0 0.00087585
10090.0 0.00088283
10110.0 0.00088998
10130.0 0.00089715
10150.0 0.00090431
10170.0 0.00091155
10190.0 0.00091891
10210.0 0.00092619
10230.0 0.00093345
10250.0 0.00094083
10270.0 0.0009482
10290.0 0.00095547
10310.0 0.00096284
10330.0 0.00097029
10350.0 0.0009776
10370.0 0.00098489
10390.0 0.00099227
10410.0 0.00099961
10430.0 0.0010068
10450.0 0.0010141
10470.0 0.0010214
10490.0 0.0010285
10510.0 0.0010356
10530.0 0.0010429
10550.0 0.00105
10570.0 0.001057
10590.0 0.001064
10610.0 0.001071
10630.0 0.0010778
10650.0 0.0010846
10670.0 0.0010914
10690.0 0.0010981
10710.0 0.0011047
10730.0 0.0011112
10750.0 0.0011178
10770.0 0.0011241
10790.0 0.0011304
10810.0 0.0011367
10830.0 0.0011427
10850.0 0.0011485
10870.0 0.0011541
10890.0 0.001159
10910.0 0.0011627
10930.0 0.0011649
10950.0 0.0011644
10970.0 0.0011604
10990.0 0.0011527
11010.0 0.0011397
11030.0 0.0011216
11050.0 0.0010995
11070.0 0.0010731
11090.0 0.0010413
11110.0 0.0010085
11130.0 0.00097425
11150.0 0.00093737
11170.0 0.00089935
11190.0 0.00086247
11210.0 0.00082438
11230.0 0.00078533
11250.0 0.00074801
11270.0 0.00071217
11290.0 0.00067627
11310.0 0.00064226
11330.0 0.00061231
11350.0 0.00058401
11370.0 0.00055787
11390.0 0.00053524
11410.0 0.00051545
11430.0 0.00049707
11450.0 0.00048122
11470.0 0.00046752
11490.0 0.00045477
11510.0 0.00044249
11530.0 0.00043109
11550.0 0.00041977
11570.0 0.00040769
11590.0 0.00039518
11610.0 0.00038245
11630.0 0.00036859
11650.0 0.00035375
11670.0 0.00033913
11690.0 0.0003243
11710.0 0.000309
11730.0 0.00029418
11750.0 0.00028046
11770.0 0.000267
11790.0 0.00025439
11810.0 0.00024329
11830.0 0.00023337
11850.0 0.00022422
11870.0 0.00021657
11890.0 0.00021022
11910.0 0.00020463
11930.0 0.00019983
11950.0 0.00019583
11970.0 0.00019226
11990.0 0.00018888
12010.0 0.00018575
12030.0 0.00018274
12050.0 0.00017963
12070.0 0.00017639
12090.0 0.00017327
12110.0 0.0001701
12130.0 0.00016693
12150.0 0.000164
12170.0 0.00016145
12190.0 0.00015924
12210.0 0.0001577
12230.0 0.00015695
12250.0 0.00015707
12270.0 0.00015826
12290.0 0.00016049
12310.0 0.00016371
12330.0 0.0001682
12350.0 0.00017381
12370.0 0.00018019
12390.0 0.00018755
12410.0 0.00019618
12430.0 0.00020495
12450.0 0.00021403
12470.0 0.00022368
12490.0 0.00023337
12510.0 0.00024247
12530.0 0.00025152
12550.0 0.00026025
12570.0 0.00026795
12590.0 0.00027472
12610.0 0.00028075
12630.0 0.00028555
12650.0 0.00028887
12670.0 0.00029105
12690.0 0.00029192
12710.0 0.00029144
12730.0 0.00028975
12750.0 0.00028674
12770.0 0.0002826
12790.0 0.00027759
12810.0 0.0002716
12830.0 0.00026467
12850.0 0.00025742
12870.0 0.00024976
12890.0 0.00024147
12910.0 0.00023304
12930.0 0.00022473
12950.0 0.00021606
12970.0 0.00020724
12990.0 0.00019889
13010.0 0.00019065
13030.0 0.00018231
13050.0 0.0001743
13070.0 0.0001668
13090.0 0.00015928
13110.0 0.000152
13130.0 0.00014528
13150.0 0.00013892
13170.0 0.0001327
13190.0 0.00012716
13210.0 0.00012228
13230.0 0.00011783
13250.0 0.00011399
13270.0 0.00011096
13290.0 0.00010861
13310.0 0.00010699
13330.0 0.00010625
13350.0 0.00010633
13370.0 0.00010729
13390.0 0.00010916
13410.0 0.00011169
13430.0 0.00011498
13450.0 0.00011905
13470.0 0.00012356
13490.0 0.00012834
13510.0 0.00013374
13530.0 0.0001392
13550.0 0.00014443
13570.0 0.00014959
13590.0 0.00015462
13610.0 0.00015909
13630.0 0.00016299
13650.0 0.00016656
13670.0 0.00016952
13690.0 0.0001718
13710.0 0.00017357
13730.0 0.00017484
13750.0 0.00017547
13770.0 0.00017561
13790.0 0.00017529
13810.0 0.00017452
13830.0 0.00017338
13850.0 0.00017183
13870.0 0.00016987
13890.0 0.00016764
13910.0 0.00016512
13930.0 0.00016221
13950.0 0.00015903
13970.0 0.00015577
13990.0 0.00015223
14010.0 0.00014846
14030.0 0.0001447
14050.0 0.00014091
14070.0 0.00013692
14090.0 0.00013308
14110.0 0.00012948
14130.0 0.00012599
14150.0 0.00012271
14170.0 0.0001199
14190.0 0.00011748
14210.0 0.00011542
14230.0 0.0001139
14250.0 0.00011291
14270.0 0.00011244
14290.0 0.00011254
14310.0 0.00011317
14330.0 0.00011429
14350.0 0.00011595
14370.0 0.00011801
14390.0 0.00012036
14410.0 0.00012312
14430.0 0.00012616
14450.0 0.00012925
14470.0 0.00013247
14490.0 0.00013589
14510.0 0.00013915
14530.0 0.00014226
14550.0 0.00014536
14570.0 0.00014834
14590.0 0.00015105
14610.0 0.00015367
14630.0 0.00015627
14650.0 0.00015869
14670.0 0.00016102
14690.0 0.00016346
14710.0 0.00016602
14730.0 0.00016857
14750.0 0.00017141
14770.0 0.00017463
14790.0 0.00017811
14810.0 0.00018189
14830.0 0.00018637
14850.0 0.00019123
14870.0 0.00019631
14890.0 0.00020178
14910.0 0.0002076
14930.0 0.00021319
14950.0 0.00021841
14970.0 0.00022336
14990.0 0.00022751
15010.0 0.00023068
15030.0 0.00023303
15050.0 0.00023459
15070.0 0.00023534
15090.0 0.00023561
15110.0 0.00023553
15130.0 0.00023524
15150.0 0.00023484
15170.0 0.00023437
15190.0 0.00023386
15210.0 0.00023337
15230.0 0.00023287
15250.0 0.00023236
15270.0 0.00023185
15290.0 0.00023137
15310.0 0.00023087
15330.0 0.00023037
15350.0 0.00022989
15370.0 0.00022942
15390.0 0.00022892
15410.0 0.00022843
15430.0 0.00022796
15450.0 0.00022748
15470.0 0.000227
15490.0 0.00022653
15510.0 0.00022607
15530.0 0.00022559
15550.0 0.00022513
15570.0 0.00022468
15590.0 0.00022421
15610.0 0.00022373
15630.0 0.00022328
15650.0 0.00022283
15670.0 0.00022236
15690.0 0.00022191
15710.0 0.00022147
15730.0 0.00022101
15750.0 0.00022055
15770.0 0.00022011
15790.0 0.00021967
15810.0 0.0002192
15830.0 0.00021875
15850.0 0.00021832
15870.0 0.00021787
15890.0 0.00021742
15910.0 0.00021699
15930.0 0.00021655
15950.0 0.0002161
15970.0 0.00021566
15990.0 0.00021523
16010.0 0.00021478
16030.0 0.00021433
16050.0 0.0002139
16070.0 0.00021347
16090.0 0.00021302
16110.0 0.00021259
16130.0 0.00021216
16150.0 0.00021171
16170.0 0.00021126
16190.0 0.00021084
16210.0 0.0002104
16230.0 0.00020995
16250.0 0.00020952
16270.0 0.00020909
16290.0 0.00020864
16310.0 0.0002082
16330.0 0.00020778
16350.0 0.00020734
16370.0 0.00020688
16390.0 0.00020645
16410.0 0.00020601
16430.0 0.00020557
16450.0 0.00020512
16470.0 0.0002047
16490.0 0.00020425
16510.0 0.0002038
16530.0 0.00020336
16550.0 0.00020292
16570.0 0.00020247
16590.0 0.00020201
16610.0 0.00020158
16630.0 0.00020114
16650.0 0.00020068
16670.0 0.00020024
16690.0 0.0001998
16710.0 0.00019933
16730.0 0.00019888
16750.0 0.00019844
16770.0 0.00019798
16790.0 0.00019752
16810.0 0.00019708
16830.0 0.00019663
16850.0 0.00019616
16870.0 0.0001957
16890.0 0.00019526
16910.0 0.00019479
16930.0 0.00019431
16950.0 0.00019386
16970.0 0.0001934
16990.0 0.00019293
17010.0 0.00019247
17030.0 0.00019201
17050.0 0.00019154
17070.0 0.00019106
17090.0 0.0001906
17110.0 0.00019013
17130.0 0.00018964
17150.0 0.00018917
17170.0 0.00018871
17190.0 0.00018823
17210.0 0.00018775
17230.0 0.00018728
17250.0 0.0001868
17270.0 0.00018631
17290.0 0.00018583
17310.0 0.00018535
17330.0 0.00018486
17350.0 0.00018436
17370.0 0.00018389
17390.0 0.00018341
17410.0 0.00018291
17430.0 0.00018242
17450.0 0.00018194
17470.0 0.00018143
17490.0 0.00018093
17510.0 0.00018045
17530.0 0.00017995
17550.0 0.00017944
17570.0 0.00017895
17590.0 0.00017846
17610.0 0.00017795
17630.0 0.00017744
17650.0 0.00017695
17670.0 0.00017644
17690.0 0.00017592
17710.0 0.00017542
17730.0 0.00017492
17750.0 0.0001744
17770.0 0.00017389
17790.0 0.00017339
17810.0 0.00017288
17830.0 0.00017235
17850.0 0.00017184
17870.0 0.00017133
17890.0 0.0001708
17910.0 0.00017028
17930.0 0.00016978
17950.0 0.00016925
17970.0 0.00016873
17990.0 0.00016821
18010.0 0.0001677
18030.0 0.00016716
18050.0 0.00016663
18070.0 0.00016612
18090.0 0.00016559
18110.0 0.00016505
18130.0 0.00016453
18150.0 0.00016401
18170.0 0.00016347
18190.0 0.00016294
18210.0 0.00016242
18230.0 0.00016188
18250.0 0.00016133
18270.0 0.00016081
18290.0 0.00016028
18310.0 0.00015974
18330.0 0.00015921
18350.0 0.00015868
18370.0 0.00015814
18390.0 0.00015759
18410.0 0.00015707
18430.0 0.00015653
18450.0 0.00015597
18470.0 0.00015544
18490.0 0.00015491
18510.0 0.00015436
18530.0 0.00015382
18550.0 0.00015329
18570.0 0.00015275
18590.0 0.00015219
18610.0 0.00015165
18630.0 0.00015111
18650.0 0.00015056
18670.0 0.00015001
18690.0 0.00014948
18710.0 0.00014894
18730.0 0.00014838
18750.0 0.00014784
18770.0 0.00014731
18790.0 0.00014674
18810.0 0.00014619
18830.0 0.00014566
18850.0 0.00014511
18870.0 0.00014455
18890.0 0.00014401
18910.0 0.00014348
18930.0 0.00014292
18950.0 0.00014237
18970.0 0.00014183
18990.0 0.00014128
19010.0 0.00014071
19030.0 0.00014017
19050.0 0.00013963
19070.0 0.00013908
19090.0 0.00013853
19110.0 0.000138
19130.0 0.00013744
19150.0 0.00013688
19170.0 0.00013634
19190.0 0.00013579
19210.0 0.00013523
19230.0 0.00013468
19250.0 0.00013415
19270.0 0.0001336
19290.0 0.00013304
19310.0 0.0001325
19330.0 0.00013196
19350.0 0.00013139
19370.0 0.00013084
19390.0 0.00013031
19410.0 0.00012975
19430.0 0.0001292
19450.0 0.00012866
19470.0 0.00012812
19490.0 0.00012756
19510.0 0.00012702
19530.0 0.00012648
19550.0 0.00012592
19570.0 0.00012536
19590.0 0.00012483
19610.0 0.00012429
19630.0 0.00012373
19650.0 0.00012319
19670.0 0.00012266
19690.0 0.0001221
19710.0 0.00012155
19730.0 0.00012102
19750.0 0.00012048
19770.0 0.00011991
19790.0 0.00011937
19810.0 0.00011884
19830.0 0.00011829
19850.0 0.00011773
19870.0 0.00011719
19890.0 0.0001166
19910.0 0.00011596
19930.0 0.00011527
19950.0 0.00011448
19970.0 0.00011352
19990.0 0.00011235
20010.0 9.9956e-05
20030.0 9.851e-05
20050.0 9.6816e-05
20070.0 9.4982e-05
20090.0 9.3008e-05
20110.0 9.0776e-05
20130.0 8.8516e-05
20150.0 8.6277e-05
20170.0 8.3955e-05
20190.0 8.16e-05
20210.0 7.9375e-05
20230.0 7.7206e-05
20250.0 7.5031e-05
20270.0 7.3013e-05
20290.0 7.1171e-05
20310.0 6.942e-05
20330.0 6.7784e-05
20350.0 6.6426e-05
20370.0 6.522e-05
20390.0 6.4163e-05
20410.0 6.3309e-05
20430.0 6.2651e-05
20450.0 6.213e-05
20470.0 6.178e-05
20490.0 6.1593e-05
20510.0 6.1538e-05
20530.0 6.1615e-05
20550.0 6.1805e-05
20570.0 6.2081e-05
20590.0 6.2456e-05
20610.0 6.291e-05
20630.0 6.341e-05
20650.0 6.3969e-05
20670.0 6.4608e-05
20690.0 6.5259e-05
20710.0 6.5933e-05
20730.0 6.666e-05
20750.0 6.7418e-05
20770.0 6.8164e-05
20790.0 6.8948e-05
20810.0 6.9776e-05
20830.0 7.0601e-05
20850.0 7.1429e-05
20870.0 7.2316e-05
20890.0 7.322e-05
20910.0 7.4093e-05
20930.0 7.4998e-05
20950.0 7.5936e-05
20970.0 7.685e-05
20990.0 7.7752e-05
21010.0 7.8701e-05
21030.0 7.9628e-05
21050.0 8.0513e-05
21070.0 8.1397e-05
21090.0 8.2283e-05
21110.0 8.3091e-05
21130.0 8.3851e-05
21150.0 8.4587e-05
21170.0 8.5253e-05
21190.0 8.5826e-05
21210.0 8.6341e-05
21230.0 8.677e-05
21250.0 8.7076e-05
21270.0 8.727e-05
21290.0 8.7342e-05
21310.0 8.7272e-05
21330.0 8.7067e-05
21350.0 8.6705e-05
21370.0 8.6174e-05
21390.0 8.5499e-05
21410.0 8.4673e-05
21430.0 8.3627e-05
21450.0 8.2452e-05
21470.0 8.1173e-05
21490.0 7.9726e-05
21510.0 7.8139e-05
21530.0 7.6526e-05
21550.0 7.4837e-05
21570.0 7.3035e-05
21590.0 7.1263e-05
21610.0 6.9551e-05
21630.0 6.7837e-05
21650.0 6.6163e-05
21670.0 6.4711e-05
21690.0 6.3373e-05
21710.0 6.2167e-05
21730.0 6.118e-05
21750.0 6.0418e-05
21770.0 5.9837e-05
21790.0 5.9504e-05
21810.0 5.9411e-05
21830.0 5.9543e-05
21850.0 5.9915e-05
21870.0 6.0496e-05
21890.0 6.1245e-05
21910.0 6.2207e-05
21930.0 6.3335e-05
21950.0 6.4557e-05
21970.0 6.5911e-05
21990.0 6.743e-05
22010.0 6.8949e-05
22030.0 7.0491e-05
22050.0 7.2111e-05
22070.0 7.3739e-05
22090.0 7.5281e-05
22110.0 7.6835e-05
22130.0 7.8387e-05
22150.0 7.9837e-05
22170.0 8.1204e-05
22190.0 8.2558e-05
22210.0 8.3818e-05
22230.0 8.4927e-05
22250.0 8.5971e-05
22270.0 8.6933e-05
22290.0 8.7755e-05
22310.0 8.8461e-05
22330.0 8.9082e-05
22350.0 8.9562e-05
22370.0 8.9901e-05
22390.0 9.0112e-05
22410.0 9.018e-05
22430.0 9.0094e-05
22450.0 8.9861e-05
22470.0 8.946e-05
22490.0 8.8897e-05
22510.0 8.8195e-05
22530.0 8.7297e-05
22550.0 8.6204e-05
22570.0 8.4992e-05
22590.0 8.3625e-05
22610.0 8.2052e-05
22630.0 8.035e-05
22650.0 7.8591e-05
22670.0 7.6645e-05
22690.0 7.4568e-05
22710.0 7.2473e-05
22730.0 7.0313e-05
22750.0 6.7972e-05
22770.0 6.5684e-05
22790.0 6.3451e-05
22810.0 6.1158e-05
22830.0 5.887e-05
22850.0 5.6728e-05
22870.0 5.4629e-05
22890.0 5.254e-05
