#lamb flux
1010.0 2.9525e-07
1030.0 3.2922e-07
1050.0 3.6828e-07
1070.0 4.1226e-07
1090.0 4.6221e-07
1110.0 5.1344e-07
1130.0 5.6501e-07
1150.0 6.1902e-07
1170.0 6.7474e-07
1190.0 7.2757e-07
1210.0 7.8111e-07
1230.0 8.3645e-07
1250.0 8.9065e-07
1270.0 9.433e-07
1290.0 9.9893e-07
1310.0 1.0545e-06
1330.0 1.1078e-06
1350.0 1.1617e-06
1370.0 1.2174e-06
1390.0 1.2716e-06
1410.0 1.3243e-06
1430.0 1.3793e-06
1450.0 1.4343e-06
1470.0 1.4875e-06
1490.0 1.5412e-06
1510.0 1.5979e-06
1530.0 1.6517e-06
1550.0 1.7046e-06
1570.0 1.7595e-06
1590.0 1.8143e-06
1610.0 1.8666e-06
1630.0 1.9206e-06
1650.0 1.9759e-06
1670.0 2.0293e-06
1690.0 2.082e-06
1710.0 2.1367e-06
1730.0 2.1916e-06
1750.0 2.2431e-06
1770.0 2.2959e-06
1790.0 2.3498e-06
1810.0 2.4017e-06
1830.0 2.4524e-06
1850.0 2.5062e-06
1870.0 2.5582e-06
1890.0 2.6081e-06
1910.0 2.6588e-06
1930.0 2.7103e-06
1950.0 2.7589e-06
1970.0 2.8063e-06
1990.0 2.8552e-06
2010.0 2.9025e-06
2030.0 2.9472e-06
2050.0 2.9928e-06
2070.0 3.0387e-06
2090.0 3.0807e-06
2110.0 3.1215e-06
2130.0 3.1627e-06
2150.0 3.2017e-06
2170.0 3.2371e-06
2190.0 3.2731e-06
2210.0 3.3078e-06
2230.0 3.3389e-06
2250.0 3.3681e-06
2270.0 3.3977e-06
2290.0 3.4238e-06
2310.0 3.4461e-06
2330.0 3.468e-06
2350.0 3.4887e-06
2370.0 3.5061e-06
2390.0 3.5236e-06
2410.0 3.5449e-06
2430.0 3.568e-06
2450.0 3.5955e-06
2470.0 3.6338e-06
2490.0 3.6854e-06
2510.0 3.7451e-06
2530.0 3.8248e-06
2550.0 3.9399e-06
2570.0 4.103e-06
2590.0 4.3379e-06
2610.0 4.7166e-06
2630.0 5.2646e-06
2650.0 5.9644e-06
2670.0 6.8376e-06
2690.0 7.8613e-06
2710.0 8.8877e-06
2730.0 9.8324e-06
2750.0 1.0698e-05
2770.0 1.1376e-05
2790.0 1.1841e-05
2810.0 1.2145e-05
2830.0 1.2323e-05
2850.0 1.2375e-05
2870.0 1.2357e-05
2890.0 1.2303e-05
2910.0 1.2223e-05
2930.0 1.2126e-05
2950.0 1.2028e-05
2970.0 1.1931e-05
2990.0 1.1832e-05
3010.0 0.00033344
3030.0 0.00033086
3050.0 0.00032832
3070.0 0.00032561
3090.0 0.00032278
3110.0 0.00031951
3130.0 0.00031541
3150.0 0.00031026
3170.0 0.00030355
3190.0 0.00029541
3210.0 0.0002864
3230.0 0.00027693
3250.0 0.00026782
3270.0 0.00026114
3290.0 0.0002567
3310.0 0.00025619
3330.0 0.0002588
3350.0 0.00026422
3370.0 0.00027249
3390.0 0.00028326
3410.0 0.00029521
3430.0 0.00030884
3450.0 0.0003247
3470.0 0.00034217
3490.0 0.00036085
3510.0 0.00038205
3530.0 0.00040508
3550.0 0.00042937
3570.0 0.00045591
3590.0 0.00048587
3610.0 0.00051881
3630.0 0.00055257
3650.0 0.00058839
3670.0 0.00062135
3690.0 0.00064642
3710.0 0.00065996
3730.0 0.0006555
3750.0 0.00063256
3770.0 0.0006206
3790.0 0.00058473
3810.0 0.00047507
3830.0 0.00043157
3850.0 0.00050276
3870.0 0.00041121
3890.0 0.00039011
3910.0 0.00051781
3930.0 0.00066656
3950.0 0.00072092
3970.0 0.0008203
3990.0 0.00074223
4010.0 0.0010794
4030.0 0.0010097
4050.0 0.00091273
4070.0 0.00097407
4090.0 0.00093478
4110.0 0.00099877
4130.0 0.0011792
4150.0 0.0014053
4170.0 0.0012131
4190.0 0.001123
4210.0 0.0012
4230.0 0.0014492
4250.0 0.0016561
4270.0 0.0017613
4290.0 0.0016608
4310.0 0.0015801
4330.0 0.0016439
4350.0 0.0020411
4370.0 0.0024152
4390.0 0.0020469
4410.0 0.0013666
4430.0 0.0010574
4450.0 0.00093631
4470.0 0.00078737
4490.0 0.0010526
4510.0 0.0016311
4530.0 0.0019185
4550.0 0.0019894
4570.0 0.0020116
4590.0 0.0022907
4610.0 0.0037458
4630.0 0.0049749
4650.0 0.0048046
4670.0 0.0043552
4690.0 0.0046119
4710.0 0.0048921
4730.0 0.0039981
4750.0 0.002638
4770.0 0.0019843
4790.0 0.0020988
4810.0 0.0020805
4830.0 0.0020187
4850.0 0.0022453
4870.0 0.0029598
4890.0 0.0034483
4910.0 0.0027383
4930.0 0.0025297
4950.0 0.0028766
4970.0 0.0038865
4990.0 0.0051874
5010.0 0.0058051
5030.0 0.0046531
5050.0 0.0028338
5070.0 0.0019898
5090.0 0.0016377
5110.0 0.0016143
5130.0 0.0018297
5150.0 0.0018208
5170.0 0.0017621
5190.0 0.0016496
5210.0 0.0016938
5230.0 0.0019477
5250.0 0.0021991
5270.0 0.002216
5290.0 0.0024824
5310.0 0.0030757
5330.0 0.0031962
5350.0 0.0031626
5370.0 0.0035313
5390.0 0.0041903
5410.0 0.0037448
5430.0 0.0029597
5450.0 0.0028619
5470.0 0.0033017
5490.0 0.0042193
5510.0 0.0052966
5530.0 0.0060527
5550.0 0.0055873
5570.0 0.0049969
5590.0 0.0042292
5610.0 0.0041432
5630.0 0.0043601
5650.0 0.0042169
5670.0 0.0039804
5690.0 0.0033891
5710.0 0.0033697
5730.0 0.0032156
5750.0 0.0018951
5770.0 0.0015009
5790.0 0.0017893
5810.0 0.0020517
5830.0 0.0027662
5850.0 0.0033656
5870.0 0.0035266
5890.0 0.0033549
5910.0 0.0032258
5930.0 0.0031753
5950.0 0.0033063
5970.0 0.003889
5990.0 0.0033711
6010.0 0.0026743
6030.0 0.0021878
6050.0 0.00192
6070.0 0.0021391
6090.0 0.0024386
6110.0 0.002568
6130.0 0.0023824
6150.0 0.0019956
6170.0 0.0018693
6190.0 0.0023065
6210.0 0.0032216
6230.0 0.0042598
6250.0 0.0044188
6270.0 0.0035933
6290.0 0.0030248
6310.0 0.0023461
6330.0 0.0017733
6350.0 0.0016676
6370.0 0.0017666
6390.0 0.0021294
6410.0 0.0026191
6430.0 0.003112
6450.0 0.0037608
6470.0 0.0042162
6490.0 0.0051497
6510.0 0.0057722
6530.0 0.0056109
6550.0 0.0051507
6570.0 0.004536
6590.0 0.0043917
6610.0 0.0037375
6630.0 0.003652
6650.0 0.0034348
6670.0 0.0032614
6690.0 0.0028676
6710.0 0.0026683
6730.0 0.0018126
6750.0 0.0018774
6770.0 0.0022871
6790.0 0.0028445
6810.0 0.0023824
6830.0 0.002445
6850.0 0.0022226
6870.0 0.0021175
6890.0 0.0019384
6910.0 0.0020675
6930.0 0.0019313
6950.0 0.0021544
6970.0 0.0021811
6990.0 0.0024279
7010.0 0.0024935
7030.0 0.0025421
7050.0 0.0022802
7070.0 0.0020752
7090.0 0.0020603
7110.0 0.0020375
7130.0 0.0022158
7150.0 0.0024591
7170.0 0.0026941
7190.0 0.0027769
7210.0 0.0025456
7230.0 0.002588
7250.0 0.0028739
7270.0 0.003247
7290.0 0.0037653
7310.0 0.0038
7330.0 0.0034255
7350.0 0.0030527
7370.0 0.0025087
7390.0 0.0025904
7410.0 0.0030019
7430.0 0.00335
7450.0 0.0036112
7470.0 0.0036
7490.0 0.0035092
7510.0 0.0046205
7530.0 0.0041903
7550.0 0.0036966
7570.0 0.0026482
7590.0 0.0015177
7610.0 0.0012329
7630.0 0.0015194
7650.0 0.0018752
7670.0 0.0025586
7690.0 0.002896
7710.0 0.0028198
7730.0 0.0028204
7750.0 0.0033058
7770.0 0.0033355
7790.0 0.0031282
7810.0 0.0028158
7830.0 0.002887
7850.0 0.002891
7870.0 0.0027383
7890.0 0.0022791
7910.0 0.0017055
7930.0 0.0016068
7950.0 0.0014453
7970.0 0.0013094
7990.0 0.0012639
8010.0 0.001262
8030.0 0.0012305
8050.0 0.0012715
8070.0 0.0013016
8090.0 0.0014159
8110.0 0.0013283
8130.0 0.0010214
8150.0 0.00097814
8170.0 0.00078936
8190.0 0.00071113
8210.0 0.00092272
8230.0 0.0010266
8250.0 0.00077504
8270.0 0.00067675
8290.0 0.00067237
8310.0 0.00049626
8330.0 0.00031435
8350.0 0.0002394
8370.0 0.00017808
8390.0 0.00027913
8410.0 0.00034553
8430.0 0.00042741
8450.0 0.00047631
8470.0 0.00061197
8490.0 0.00055677
8510.0 0.00051193
8530.0 0.00044405
8550.0 0.00071603
8570.0 0.00097472
8590.0 0.00092417
8610.0 0.001203
8630.0 0.0013605
8650.0 0.0011757
8670.0 0.0013156
8690.0 0.001529
8710.0 0.0013897
8730.0 0.0013951
8750.0 0.0012113
8770.0 0.0011336
8790.0 0.0011758
8810.0 0.0011775
8830.0 0.00085321
8850.0 0.00060454
8870.0 0.00048633
8890.0 0.00060251
8910.0 0.00075603
8930.0 0.00088604
8950.0 0.0010066
8970.0 0.0010006
8990.0 0.00088233
9010.0 0.00072169
9030.0 0.00066465
9050.0 0.00067893
9070.0 0.00069161
9090.0 0.00070144
9110.0 0.00071213
9130.0 0.00072026
9150.0 0.00072662
9170.0 0.00073338
9190.0 0.00074061
9210.0 0.00074818
9230.0 0.0007562
9250.0 0.00076447
9270.0 0.00077304
9290.0 0.00078187
9310.0 0.00079089
9330.0 0.00080013
9350.0 0.00080965
9370.0 0.00081937
9390.0 0.00082927
9410.0 0.00083944
9430.0 0.00084987
9450.0 0.00086043
9470.0 0.00087123
9490.0 0.00088229
9510.0 0.00089354
9530.0 0.00090496
9550.0 0.00091667
9570.0 0.00092859
9590.0 0.00094066
9610.0 0.00095296
9630.0 0.0009655
9650.0 0.00097821
9670.0 0.00099107
9690.0 0.0010042
9710.0 0.0010175
9730.0 0.0010309
9750.0 0.0010445
9770.0 0.0010584
9790.0 0.0010724
9810.0 0.0010865
9830.0 0.0011009
9850.0 0.0011153
9870.0 0.0011299
9890.0 0.0011447
9910.0 0.0011596
9930.0 0.0011746
9950.0 0.0011896
9970.0 0.0012049
9990.0 0.0012203
10010.0 0.0011443
10030.0 0.0011583
10050.0 0.0011724
10070.0 0.0011864
10090.0 0.0012006
10110.0 0.0012149
10130.0 0.0012292
10150.0 0.0012435
10170.0 0.0012578
10190.0 0.0012721
10210.0 0.0012864
10230.0 0.0013006
10250.0 0.0013149
10270.0 0.0013291
10290.0 0.0013432
10310.0 0.0013573
10330.0 0.0013713
10350.0 0.0013852
10370.0 0.001399
10390.0 0.0014127
10410.0 0.0014263
10430.0 0.0014398
10450.0 0.0014531
10470.0 0.0014663
10490.0 0.0014793
10510.0 0.0014921
10530.0 0.0015048
10550.0 0.0015173
10570.0 0.0015296
10590.0 0.0015416
10610.0 0.0015535
10630.0 0.0015651
10650.0 0.0015764
10670.0 0.0015875
10690.0 0.0015984
10710.0 0.0016089
10730.0 0.0016193
10750.0 0.0016293
10770.0 0.001639
10790.0 0.0016484
10810.0 0.0016575
10830.0 0.0016662
10850.0 0.0016745
10870.0 0.001682
10890.0 0.0016886
10910.0 0.0016935
10930.0 0.001696
10950.0 0.0016948
10970.0 0.0016887
10990.0 0.0016776
11010.0 0.0016786
11030.0 0.0016531
11050.0 0.0016218
11070.0 0.0015843
11090.0 0.0015388
11110.0 0.0014917
11130.0 0.0014423
11150.0 0.0013891
11170.0 0.0013344
11190.0 0.0012815
11210.0 0.0012273
11230.0 0.0011722
11250.0 0.0011202
11270.0 0.0010708
11290.0 0.0010219
11310.0 0.0009761
11330.0 0.00093622
11350.0 0.00089884
11370.0 0.00086447
11390.0 0.00083472
11410.0 0.00080852
11430.0 0.00078385
11450.0 0.00076205
11470.0 0.00074255
11490.0 0.00072373
11510.0 0.00070486
11530.0 0.00068668
11550.0 0.00066817
11570.0 0.00064816
11590.0 0.00062734
11610.0 0.00060618
11630.0 0.00058336
11650.0 0.00055923
11670.0 0.00053569
11690.0 0.00051209
11710.0 0.00048806
11730.0 0.000465
11750.0 0.00044379
11770.0 0.00042314
11790.0 0.00040388
11810.0 0.00038689
11830.0 0.00037163
11850.0 0.00035749
11870.0 0.00034545
11890.0 0.00033516
11910.0 0.00032584
11930.0 0.00031748
11950.0 0.00031011
11970.0 0.00030317
11990.0 0.00029629
12010.0 0.00028961
12030.0 0.00028297
12050.0 0.000276
12070.0 0.00026869
12090.0 0.00026157
12110.0 0.00025429
12130.0 0.0002469
12150.0 0.00023988
12170.0 0.00023341
12190.0 0.00022728
12210.0 0.00022207
12230.0 0.00021802
12250.0 0.00021509
12270.0 0.00021348
12290.0 0.0002133
12310.0 0.00021442
12330.0 0.00021704
12350.0 0.00022104
12370.0 0.00022604
12390.0 0.00023216
12410.0 0.00023965
12430.0 0.00024733
12450.0 0.00025533
12470.0 0.00026387
12490.0 0.00027237
12510.0 0.00028018
12530.0 0.00028783
12550.0 0.00029503
12570.0 0.00030111
12590.0 0.00030617
12610.0 0.00031043
12630.0 0.00031345
12650.0 0.00031504
12670.0 0.00031556
12690.0 0.00031489
12710.0 0.00031303
12730.0 0.00031015
12750.0 0.00030617
12770.0 0.00030129
12790.0 0.00029573
12810.0 0.00028942
12830.0 0.00028239
12850.0 0.00027513
12870.0 0.00026757
12890.0 0.00025949
12910.0 0.0002513
12930.0 0.00024319
12950.0 0.00023474
12970.0 0.00022608
12990.0 0.00021776
13010.0 0.00020946
13030.0 0.00020098
13050.0 0.00019271
13070.0 0.00018482
13090.0 0.00017684
13110.0 0.00016902
13130.0 0.0001617
13150.0 0.0001547
13170.0 0.00014781
13190.0 0.00014161
13210.0 0.00013609
13230.0 0.00013101
13250.0 0.00012659
13270.0 0.00012301
13290.0 0.00012012
13310.0 0.00011797
13330.0 0.0001167
13350.0 0.00011623
13370.0 0.00011656
13390.0 0.00011772
13410.0 0.00011946
13430.0 0.00012185
13450.0 0.00012489
13470.0 0.00012829
13490.0 0.0001319
13510.0 0.000136
13530.0 0.00014015
13550.0 0.0001441
13570.0 0.000148
13590.0 0.0001518
13610.0 0.00015516
13630.0 0.00015806
13650.0 0.0001607
13670.0 0.00016285
13690.0 0.00016445
13710.0 0.00016562
13730.0 0.00016636
13750.0 0.00016658
13770.0 0.00016638
13790.0 0.00016579
13810.0 0.00016482
13830.0 0.00016356
13850.0 0.00016197
13870.0 0.00016008
13890.0 0.000158
13910.0 0.00015572
13930.0 0.00015317
13950.0 0.00015045
13970.0 0.00014774
13990.0 0.00014485
14010.0 0.00014185
14030.0 0.0001389
14050.0 0.00013599
14070.0 0.00013296
14090.0 0.00013011
14110.0 0.00012746
14130.0 0.00012493
14150.0 0.00012258
14170.0 0.00012059
14190.0 0.00011889
14210.0 0.00011746
14230.0 0.00011642
14250.0 0.00011576
14270.0 0.00011547
14290.0 0.00011558
14310.0 0.00011606
14330.0 0.00011689
14350.0 0.0001181
14370.0 0.00011961
14390.0 0.00012132
14410.0 0.00012336
14430.0 0.00012562
14450.0 0.00012797
14470.0 0.00013046
14490.0 0.00013318
14510.0 0.00013587
14530.0 0.00013854
14550.0 0.00014134
14570.0 0.00014421
14590.0 0.00014701
14610.0 0.00014992
14630.0 0.00015303
14650.0 0.00015618
14670.0 0.00015942
14690.0 0.00016296
14710.0 0.0001668
14730.0 0.00017067
14750.0 0.00017489
14770.0 0.00017954
14790.0 0.00018438
14810.0 0.00018937
14830.0 0.00019496
14850.0 0.0002007
14870.0 0.00020638
14890.0 0.00021221
14910.0 0.00021811
14930.0 0.00022357
14950.0 0.00022851
14970.0 0.00023304
14990.0 0.00023677
15010.0 0.00023959
15030.0 0.00024166
15050.0 0.00024303
15070.0 0.00024375
15090.0 0.00024406
15110.0 0.00024408
15130.0 0.00024393
15150.0 0.00024372
15170.0 0.00024343
15190.0 0.00024313
15210.0 0.00024283
15230.0 0.00024255
15250.0 0.00024224
15270.0 0.00024194
15290.0 0.00024167
15310.0 0.00024139
15330.0 0.0002411
15350.0 0.00024084
15370.0 0.00024058
15390.0 0.0002403
15410.0 0.00024003
15430.0 0.00023978
15450.0 0.00023952
15470.0 0.00023924
15490.0 0.000239
15510.0 0.00023876
15530.0 0.00023849
15550.0 0.00023824
15570.0 0.00023801
15590.0 0.00023775
15610.0 0.00023748
15630.0 0.00023724
15650.0 0.00023699
15670.0 0.00023673
15690.0 0.00023648
15710.0 0.00023624
15730.0 0.00023598
15750.0 0.00023572
15770.0 0.00023547
15790.0 0.00023522
15810.0 0.00023493
15830.0 0.00023467
15850.0 0.00023442
15870.0 0.00023415
15890.0 0.00023387
15910.0 0.00023362
15930.0 0.00023334
15950.0 0.00023304
15970.0 0.00023276
15990.0 0.00023249
16010.0 0.00023219
16030.0 0.00023188
16050.0 0.0002316
16070.0 0.0002313
16090.0 0.00023098
16110.0 0.00023067
16130.0 0.00023037
16150.0 0.00023003
16170.0 0.00022969
16190.0 0.00022938
16210.0 0.00022904
16230.0 0.00022868
16250.0 0.00022834
16270.0 0.00022801
16290.0 0.00022763
16310.0 0.00022726
16330.0 0.00022691
16350.0 0.00022653
16370.0 0.00022612
16390.0 0.00022574
16410.0 0.00022536
16430.0 0.00022494
16450.0 0.00022453
16470.0 0.00022414
16490.0 0.00022371
16510.0 0.00022327
16530.0 0.00022284
16550.0 0.00022241
16570.0 0.00022194
16590.0 0.00022148
16610.0 0.00022104
16630.0 0.00022056
16650.0 0.00022008
16670.0 0.00021961
16690.0 0.00021913
16710.0 0.0002186
16730.0 0.0002181
16750.0 0.0002176
16770.0 0.00021708
16790.0 0.00021653
16810.0 0.00021602
16830.0 0.00021549
16850.0 0.00021492
16870.0 0.00021437
16890.0 0.00021383
16910.0 0.00021324
16930.0 0.00021265
16950.0 0.00021208
16970.0 0.0002115
16990.0 0.00021088
17010.0 0.00021028
17030.0 0.00020969
17050.0 0.00020906
17070.0 0.00020842
17090.0 0.00020781
17110.0 0.00020717
17130.0 0.0002065
17150.0 0.00020585
17170.0 0.00020521
17190.0 0.00020453
17210.0 0.00020385
17230.0 0.0002032
17250.0 0.00020251
17270.0 0.0002018
17290.0 0.0002011
17310.0 0.00020041
17330.0 0.00019969
17350.0 0.00019896
17370.0 0.00019826
17390.0 0.00019753
17410.0 0.00019678
17430.0 0.00019605
17450.0 0.00019532
17470.0 0.00019455
17490.0 0.00019378
17510.0 0.00019303
17530.0 0.00019227
17550.0 0.00019148
17570.0 0.00019071
17590.0 0.00018994
17610.0 0.00018914
17630.0 0.00018834
17650.0 0.00018756
17670.0 0.00018676
17690.0 0.00018592
17710.0 0.00018512
17730.0 0.00018432
17750.0 0.00018348
17770.0 0.00018266
17790.0 0.00018185
17810.0 0.00018101
17830.0 0.00018016
17850.0 0.00017933
17870.0 0.00017849
17890.0 0.00017763
17910.0 0.00017677
17930.0 0.00017594
17950.0 0.00017508
17970.0 0.0001742
17990.0 0.00017336
18010.0 0.0001725
18030.0 0.0001716
18050.0 0.00017073
18070.0 0.00016987
18090.0 0.00016899
18110.0 0.0001681
18130.0 0.00016723
18150.0 0.00016636
18170.0 0.00016546
18190.0 0.00016457
18210.0 0.0001637
18230.0 0.0001628
18250.0 0.00016188
18270.0 0.00016101
18290.0 0.00016012
18310.0 0.00015921
18330.0 0.00015831
18350.0 0.00015743
18370.0 0.00015652
18390.0 0.00015561
18410.0 0.00015472
18430.0 0.00015382
18450.0 0.00015289
18470.0 0.000152
18490.0 0.00015111
18510.0 0.0001502
18530.0 0.00014929
18550.0 0.0001484
18570.0 0.0001475
18590.0 0.00014657
18610.0 0.00014567
18630.0 0.00014478
18650.0 0.00014386
18670.0 0.00014295
18690.0 0.00014207
18710.0 0.00014116
18730.0 0.00014025
18750.0 0.00013936
18770.0 0.00013847
18790.0 0.00013755
18810.0 0.00013664
18830.0 0.00013576
18850.0 0.00013486
18870.0 0.00013396
18890.0 0.00013307
18910.0 0.00013219
18930.0 0.00013129
18950.0 0.0001304
18970.0 0.00012952
18990.0 0.00012863
19010.0 0.00012772
19030.0 0.00012685
19050.0 0.00012598
19070.0 0.00012509
19090.0 0.00012421
19110.0 0.00012336
19130.0 0.00012247
19150.0 0.00012159
19170.0 0.00012073
19190.0 0.00011986
19210.0 0.00011898
19230.0 0.00011811
19250.0 0.00011727
19270.0 0.00011641
19290.0 0.00011555
19310.0 0.0001147
19330.0 0.00011386
19350.0 0.00011299
19370.0 0.00011214
19390.0 0.00011131
19410.0 0.00011046
19430.0 0.00010961
19450.0 0.00010879
19470.0 0.00010797
19490.0 0.00010712
19510.0 0.0001063
19530.0 0.00010549
19550.0 0.00010465
19570.0 0.00010382
19590.0 0.00010302
19610.0 0.00010221
19630.0 0.00010139
19650.0 0.00010058
19670.0 9.9797e-05
19690.0 9.8983e-05
19710.0 9.8178e-05
19730.0 9.7394e-05
19750.0 9.6604e-05
19770.0 9.5793e-05
19790.0 9.5013e-05
19810.0 9.4243e-05
19830.0 9.3453e-05
19850.0 9.2666e-05
19870.0 9.1896e-05
19890.0 9.1092e-05
19910.0 9.0243e-05
19930.0 8.937e-05
19950.0 8.8428e-05
19970.0 8.735e-05
19990.0 8.6132e-05
20010.0 8.5005e-05
20030.0 8.3485e-05
20050.0 8.1781e-05
20070.0 7.9992e-05
20090.0 7.812e-05
20110.0 7.6066e-05
20130.0 7.4029e-05
20150.0 7.2045e-05
20170.0 7.0026e-05
20190.0 6.8011e-05
20210.0 6.6125e-05
20230.0 6.4303e-05
20250.0 6.2494e-05
20270.0 6.082e-05
20290.0 5.929e-05
20310.0 5.7837e-05
20330.0 5.6477e-05
20350.0 5.5332e-05
20370.0 5.4306e-05
20390.0 5.3396e-05
20410.0 5.2645e-05
20430.0 5.2048e-05
20450.0 5.1561e-05
20470.0 5.1214e-05
20490.0 5.1001e-05
20510.0 5.0902e-05
20530.0 5.0917e-05
20550.0 5.1034e-05
20570.0 5.1229e-05
20590.0 5.1517e-05
20610.0 5.1882e-05
20630.0 5.229e-05
20650.0 5.2756e-05
20670.0 5.3301e-05
20690.0 5.3855e-05
20710.0 5.4427e-05
20730.0 5.5046e-05
20750.0 5.5688e-05
20770.0 5.631e-05
20790.0 5.6957e-05
20810.0 5.7635e-05
20830.0 5.8297e-05
20850.0 5.895e-05
20870.0 5.9645e-05
20890.0 6.0342e-05
20910.0 6.1003e-05
20930.0 6.1684e-05
20950.0 6.2386e-05
20970.0 6.3064e-05
20990.0 6.3728e-05
21010.0 6.4431e-05
21030.0 6.5116e-05
21050.0 6.5768e-05
21070.0 6.6423e-05
21090.0 6.7088e-05
21110.0 6.7695e-05
21130.0 6.8272e-05
21150.0 6.8844e-05
21170.0 6.9375e-05
21190.0 6.9844e-05
21210.0 7.029e-05
21230.0 7.0694e-05
21250.0 7.1017e-05
21270.0 7.1276e-05
21290.0 7.1473e-05
21310.0 7.1584e-05
21330.0 7.16e-05
21350.0 7.1528e-05
21370.0 7.1349e-05
21390.0 7.1064e-05
21410.0 7.0671e-05
21430.0 7.0135e-05
21450.0 6.9487e-05
21470.0 6.874e-05
21490.0 6.7861e-05
21510.0 6.6856e-05
21530.0 6.5793e-05
21550.0 6.4642e-05
21570.0 6.3373e-05
21590.0 6.2079e-05
21610.0 6.0783e-05
21630.0 5.9439e-05
21650.0 5.8072e-05
21670.0 5.6826e-05
21690.0 5.5618e-05
21710.0 5.4458e-05
21730.0 5.3421e-05
21750.0 5.2524e-05
21770.0 5.1711e-05
21790.0 5.1051e-05
21810.0 5.056e-05
21830.0 5.0215e-05
21850.0 5.0023e-05
21870.0 4.9992e-05
21890.0 5.0101e-05
21910.0 5.0361e-05
21930.0 5.076e-05
21950.0 5.1263e-05
21970.0 5.1887e-05
21990.0 5.2654e-05
22010.0 5.3475e-05
22030.0 5.4357e-05
22050.0 5.5337e-05
22070.0 5.6371e-05
22090.0 5.7392e-05
22110.0 5.8467e-05
22130.0 5.9584e-05
22150.0 6.0667e-05
22170.0 6.1723e-05
22190.0 6.2807e-05
22210.0 6.3848e-05
22230.0 6.4789e-05
22250.0 6.5698e-05
22270.0 6.6557e-05
22290.0 6.7308e-05
22310.0 6.7966e-05
22330.0 6.8562e-05
22350.0 6.9038e-05
22370.0 6.9388e-05
22390.0 6.9632e-05
22410.0 6.9755e-05
22430.0 6.974e-05
22450.0 6.9602e-05
22470.0 6.9326e-05
22490.0 6.8916e-05
22510.0 6.8391e-05
22530.0 6.7713e-05
22550.0 6.6882e-05
22570.0 6.5956e-05
22590.0 6.4909e-05
22610.0 6.3703e-05
22630.0 6.2394e-05
22650.0 6.1037e-05
22670.0 5.9533e-05
22690.0 5.7922e-05
22710.0 5.6288e-05
22730.0 5.4597e-05
22750.0 5.2755e-05
22770.0 5.0944e-05
22790.0 4.9167e-05
22810.0 4.7333e-05
22830.0 4.5495e-05
22850.0 4.3766e-05
22870.0 4.2066e-05
22890.0 4.037e-05
22910.0 3.8806e-05
22930.0 3.7372e-05
