#lamb flux
1010.0 1.4347e-08
1030.0 1.5889e-08
1050.0 1.7663e-08
1070.0 1.966e-08
1090.0 2.1928e-08
1110.0 2.4255e-08
1130.0 2.6596e-08
1150.0 2.9049e-08
1170.0 3.1579e-08
1190.0 3.3978e-08
1210.0 3.6409e-08
1230.0 3.8922e-08
1250.0 4.1383e-08
1270.0 4.3774e-08
1290.0 4.63e-08
1310.0 4.8824e-08
1330.0 5.1244e-08
1350.0 5.3692e-08
1370.0 5.6219e-08
1390.0 5.8682e-08
1410.0 6.1072e-08
1430.0 6.3571e-08
1450.0 6.6069e-08
1470.0 6.8482e-08
1490.0 7.0922e-08
1510.0 7.3498e-08
1530.0 7.5938e-08
1550.0 7.8344e-08
1570.0 8.0833e-08
1590.0 8.3323e-08
1610.0 8.5701e-08
1630.0 8.815e-08
1650.0 9.0662e-08
1670.0 9.309e-08
1690.0 9.5483e-08
1710.0 9.7966e-08
1730.0 1.0046e-07
1750.0 1.028e-07
1770.0 1.052e-07
1790.0 1.0765e-07
1810.0 1.1e-07
1830.0 1.1231e-07
1850.0 1.1475e-07
1870.0 1.1712e-07
1890.0 1.1939e-07
1910.0 1.2169e-07
1930.0 1.2404e-07
1950.0 1.2625e-07
1970.0 1.2841e-07
1990.0 1.3064e-07
2010.0 1.328e-07
2030.0 1.3484e-07
2050.0 1.3692e-07
2070.0 1.3902e-07
2090.0 1.4094e-07
2110.0 1.428e-07
2130.0 1.4469e-07
2150.0 1.4648e-07
2170.0 1.4811e-07
2190.0 1.4977e-07
2210.0 1.5137e-07
2230.0 1.5281e-07
2250.0 1.5417e-07
2270.0 1.5555e-07
2290.0 1.5677e-07
2310.0 1.5782e-07
2330.0 1.5886e-07
2350.0 1.5986e-07
2370.0 1.6073e-07
2390.0 1.6163e-07
2410.0 1.6276e-07
2430.0 1.6406e-07
2450.0 1.6567e-07
2470.0 1.6793e-07
2490.0 1.7098e-07
2510.0 1.7452e-07
2530.0 1.7911e-07
2550.0 1.8545e-07
2570.0 1.9408e-07
2590.0 2.061e-07
2610.0 2.2509e-07
2630.0 2.5238e-07
2650.0 2.8731e-07
2670.0 3.3112e-07
2690.0 3.8293e-07
2710.0 4.3542e-07
2730.0 4.8431e-07
2750.0 5.2963e-07
2770.0 5.6573e-07
2790.0 5.9096e-07
2810.0 6.0792e-07
2830.0 6.1826e-07
2850.0 6.2181e-07
2870.0 6.2164e-07
2890.0 6.1944e-07
2910.0 6.1578e-07
2930.0 6.1117e-07
2950.0 6.0647e-07
2970.0 6.0183e-07
2990.0 5.9711e-07
3010.0 1.7931e-05
3030.0 1.7802e-05
3050.0 1.7675e-05
3070.0 1.7539e-05
3090.0 1.7396e-05
3110.0 1.7228e-05
3130.0 1.7015e-05
3150.0 1.6743e-05
3170.0 1.6382e-05
3190.0 1.5939e-05
3210.0 1.5443e-05
3230.0 1.4915e-05
3250.0 1.4392e-05
3270.0 1.4002e-05
3290.0 1.372e-05
3310.0 1.3662e-05
3330.0 1.3766e-05
3350.0 1.4022e-05
3370.0 1.443e-05
3390.0 1.4971e-05
3410.0 1.5575e-05
3430.0 1.6268e-05
3450.0 1.7076e-05
3470.0 1.7969e-05
3490.0 1.8928e-05
3510.0 2.002e-05
3530.0 2.1213e-05
3550.0 2.2488e-05
3570.0 2.3895e-05
3590.0 2.5482e-05
3610.0 2.725e-05
3630.0 2.9041e-05
3650.0 3.0944e-05
3670.0 3.2679e-05
3690.0 3.3985e-05
3710.0 3.4661e-05
3730.0 3.433e-05
3750.0 3.2977e-05
3770.0 3.3026e-05
3790.0 3.1568e-05
3810.0 2.4522e-05
3830.0 2.2617e-05
3850.0 3.0175e-05
3870.0 2.6409e-05
3890.0 2.1619e-05
3910.0 2.5283e-05
3930.0 3.328e-05
3950.0 3.7982e-05
3970.0 4.4093e-05
3990.0 3.5339e-05
4010.0 5.4705e-05
4030.0 5.0252e-05
4050.0 4.7291e-05
4070.0 5.3806e-05
4090.0 5.1665e-05
4110.0 5.1353e-05
4130.0 6.3307e-05
4150.0 8.0543e-05
4170.0 6.6028e-05
4190.0 5.9009e-05
4210.0 6.5121e-05
4230.0 8.0571e-05
4250.0 9.384e-05
4270.0 0.00010125
4290.0 9.2917e-05
4310.0 8.6535e-05
4330.0 8.7818e-05
4350.0 0.00011161
4370.0 0.00013416
4390.0 0.00010939
4410.0 6.673e-05
4430.0 4.9291e-05
4450.0 4.4467e-05
4470.0 3.3619e-05
4490.0 5.0861e-05
4510.0 9.1234e-05
4530.0 0.0001094
4550.0 0.00010867
4570.0 0.0001032
4590.0 0.00011434
4610.0 0.00020664
4630.0 0.00028219
4650.0 0.00026751
4670.0 0.00023836
4690.0 0.00025074
4710.0 0.00026474
4730.0 0.00021397
4750.0 0.00013804
4770.0 9.985e-05
4790.0 0.00010938
4810.0 0.0001117
4830.0 0.0001098
4850.0 0.00012091
4870.0 0.00015987
4890.0 0.00018589
4910.0 0.00014476
4930.0 0.00013707
4950.0 0.00015721
4970.0 0.00021212
4990.0 0.00028456
5010.0 0.00032283
5030.0 0.0002562
5050.0 0.0001544
5070.0 0.00010964
5090.0 8.7202e-05
5110.0 8.3618e-05
5130.0 9.7104e-05
5150.0 9.4502e-05
5170.0 9.0046e-05
5190.0 8.2385e-05
5210.0 8.7489e-05
5230.0 0.00010554
5250.0 0.00012168
5270.0 0.0001168
5290.0 0.00012883
5310.0 0.0001671
5330.0 0.00017503
5350.0 0.00017266
5370.0 0.00019473
5390.0 0.00023777
5410.0 0.00020586
5430.0 0.00015797
5450.0 0.00015679
5470.0 0.00018338
5490.0 0.00023338
5510.0 0.00028928
5530.0 0.00033306
5550.0 0.00030257
5570.0 0.0002702
5590.0 0.00022459
5610.0 0.0002254
5630.0 0.0002469
5650.0 0.00023377
5670.0 0.00021792
5690.0 0.00017994
5710.0 0.00018228
5730.0 0.00017637
5750.0 9.7474e-05
5770.0 7.3781e-05
5790.0 9.0268e-05
5810.0 0.00010012
5830.0 0.00014583
5850.0 0.00018408
5870.0 0.00019403
5890.0 0.00018342
5910.0 0.0001769
5930.0 0.00017295
5950.0 0.00017978
5970.0 0.00021815
5990.0 0.00018267
6010.0 0.00014176
6030.0 0.00011527
6050.0 0.00010202
6070.0 0.00011914
6090.0 0.00013585
6110.0 0.00014006
6130.0 0.00012802
6150.0 0.00010354
6170.0 9.0009e-05
6190.0 0.00011212
6210.0 0.00016671
6230.0 0.00023225
6250.0 0.00024402
6270.0 0.00019107
6290.0 0.00016211
6310.0 0.00012462
6330.0 9.2393e-05
6350.0 8.9169e-05
6370.0 9.4053e-05
6390.0 0.00011371
6410.0 0.00014324
6430.0 0.00017166
6450.0 0.0002103
6470.0 0.0002286
6490.0 0.00027732
6510.0 0.0003113
6530.0 0.0003089
6550.0 0.00028425
6570.0 0.00024088
6590.0 0.00023346
6610.0 0.00019579
6630.0 0.00019812
6650.0 0.00018879
6670.0 0.00017245
6690.0 0.00014336
6710.0 0.00013649
6730.0 7.8007e-05
6750.0 8.9114e-05
6770.0 0.00012206
6790.0 0.00015765
6810.0 0.00012193
6830.0 0.00012487
6850.0 0.00010923
6870.0 0.00010385
6890.0 9.1682e-05
6910.0 0.00010301
6930.0 9.6387e-05
6950.0 0.00011181
6970.0 0.00011376
6990.0 0.00012625
7010.0 0.00012682
7030.0 0.00013579
7050.0 0.00011923
7070.0 0.00010425
7090.0 0.00010688
7110.0 0.00010839
7130.0 0.00012105
7150.0 0.00013652
7170.0 0.00015107
7190.0 0.00015708
7210.0 0.00014068
7230.0 0.00014241
7250.0 0.00015621
7270.0 0.00017336
7290.0 0.00020614
7310.0 0.00021057
7330.0 0.00019124
7350.0 0.0001704
7370.0 0.00013184
7390.0 0.00013748
7410.0 0.0001658
7430.0 0.00018691
7450.0 0.00020116
7470.0 0.00019274
7490.0 0.00017444
7510.0 0.00025645
7530.0 0.0002304
7550.0 0.00020882
7570.0 0.00014395
7590.0 7.1229e-05
7610.0 5.3972e-05
7630.0 7.3692e-05
7650.0 9.5096e-05
7670.0 0.00014161
7690.0 0.00015978
7710.0 0.00014857
7730.0 0.00014677
7750.0 0.00018293
7770.0 0.00018597
7790.0 0.00017257
7810.0 0.00014713
7830.0 0.0001547
7850.0 0.00016258
7870.0 0.0001571
7890.0 0.00012644
7910.0 8.8536e-05
7930.0 8.7161e-05
7950.0 7.8315e-05
7970.0 6.8181e-05
7990.0 6.34e-05
8010.0 5.8907e-05
8030.0 5.6419e-05
8050.0 5.9186e-05
8070.0 6.2261e-05
8090.0 7.0186e-05
8110.0 6.5734e-05
8130.0 4.6696e-05
8150.0 4.5555e-05
8170.0 3.339e-05
8190.0 2.7722e-05
8210.0 4.2075e-05
8230.0 4.7963e-05
8250.0 3.0784e-05
8270.0 2.6337e-05
8290.0 3.0508e-05
8310.0 2.3664e-05
8330.0 1.4782e-05
8350.0 1.1515e-05
8370.0 6.4988e-06
8390.0 1.2965e-05
8410.0 1.5763e-05
8430.0 1.9582e-05
8450.0 2.1895e-05
8470.0 3.0722e-05
8490.0 2.6796e-05
8510.0 2.3235e-05
8530.0 1.7382e-05
8550.0 3.4964e-05
8570.0 5.0234e-05
8590.0 4.2628e-05
8610.0 5.8198e-05
8630.0 6.4801e-05
8650.0 4.8381e-05
8670.0 5.8499e-05
8690.0 7.5268e-05
8710.0 6.7134e-05
8730.0 6.9235e-05
8750.0 5.7994e-05
8770.0 5.3355e-05
8790.0 5.6776e-05
8810.0 5.8516e-05
8830.0 3.867e-05
8850.0 2.4167e-05
8870.0 1.8925e-05
8890.0 2.8274e-05
8910.0 3.8585e-05
8930.0 4.7388e-05
8950.0 5.3767e-05
8970.0 5.2832e-05
8990.0 4.3979e-05
9010.0 3.3353e-05
9030.0 2.8887e-05
9050.0 2.975e-05
9070.0 3.0551e-05
9090.0 3.1182e-05
9110.0 3.19e-05
9130.0 3.243e-05
9150.0 3.2827e-05
9170.0 3.3249e-05
9190.0 3.37e-05
9210.0 3.4172e-05
9230.0 3.4674e-05
9250.0 3.5185e-05
9270.0 3.5715e-05
9290.0 3.626e-05
9310.0 3.681e-05
9330.0 3.7372e-05
9350.0 3.7951e-05
9370.0 3.8539e-05
9390.0 3.9134e-05
9410.0 3.9744e-05
9430.0 4.037e-05
9450.0 4.0999e-05
9470.0 4.164e-05
9490.0 4.2297e-05
9510.0 4.2963e-05
9530.0 4.3635e-05
9550.0 4.4326e-05
9570.0 4.5029e-05
9590.0 4.5736e-05
9610.0 4.6456e-05
9630.0 4.7192e-05
9650.0 4.7936e-05
9670.0 4.8685e-05
9690.0 4.945e-05
9710.0 5.0226e-05
9730.0 5.1008e-05
9750.0 5.18e-05
9770.0 5.261e-05
9790.0 5.3423e-05
9810.0 5.4242e-05
9830.0 5.5075e-05
9850.0 5.5918e-05
9870.0 5.6761e-05
9890.0 5.7616e-05
9910.0 5.8484e-05
9930.0 5.9354e-05
9950.0 6.0229e-05
9970.0 6.1117e-05
9990.0 6.2011e-05
10010.0 5.7341e-05
10030.0 5.8147e-05
10050.0 5.8958e-05
10070.0 5.9763e-05
10090.0 6.0579e-05
10110.0 6.1406e-05
10130.0 6.2232e-05
10150.0 6.3055e-05
10170.0 6.3882e-05
10190.0 6.4713e-05
10210.0 6.5538e-05
10230.0 6.6362e-05
10250.0 6.719e-05
10270.0 6.8015e-05
10290.0 6.8833e-05
10310.0 6.9654e-05
10330.0 7.0475e-05
10350.0 7.1287e-05
10370.0 7.2094e-05
10390.0 7.29e-05
10410.0 7.37e-05
10430.0 7.4489e-05
10450.0 7.5275e-05
10470.0 7.6057e-05
10490.0 7.6826e-05
10510.0 7.7586e-05
10530.0 7.8345e-05
10550.0 7.9091e-05
10570.0 7.9822e-05
10590.0 8.0546e-05
10610.0 8.1262e-05
10630.0 8.196e-05
10650.0 8.2647e-05
10670.0 8.3327e-05
10690.0 8.399e-05
10710.0 8.4637e-05
10730.0 8.5273e-05
10750.0 8.5899e-05
10770.0 8.6501e-05
10790.0 8.7089e-05
10810.0 8.7664e-05
10830.0 8.8216e-05
10850.0 8.874e-05
10870.0 8.9234e-05
10890.0 8.967e-05
10910.0 9.0016e-05
10930.0 9.0228e-05
10950.0 9.0232e-05
10970.0 8.9971e-05
10990.0 8.942e-05
11010.0 9.0744e-05
11030.0 8.9378e-05
11050.0 8.7687e-05
11070.0 8.564e-05
11090.0 8.316e-05
11110.0 8.0585e-05
11130.0 7.7891e-05
11150.0 7.4989e-05
11170.0 7.2004e-05
11190.0 6.9122e-05
11210.0 6.6163e-05
11230.0 6.3153e-05
11250.0 6.0303e-05
11270.0 5.759e-05
11290.0 5.4898e-05
11310.0 5.237e-05
11330.0 5.0157e-05
11350.0 4.8074e-05
11370.0 4.6153e-05
11390.0 4.4483e-05
11410.0 4.3008e-05
11430.0 4.1618e-05
11450.0 4.0392e-05
11470.0 3.9298e-05
11490.0 3.8249e-05
11510.0 3.7207e-05
11530.0 3.6212e-05
11550.0 3.5206e-05
11570.0 3.4127e-05
11590.0 3.3011e-05
11610.0 3.1879e-05
11630.0 3.0661e-05
11650.0 2.9375e-05
11670.0 2.8118e-05
11690.0 2.6857e-05
11710.0 2.5569e-05
11730.0 2.433e-05
11750.0 2.3187e-05
11770.0 2.207e-05
11790.0 2.1024e-05
11810.0 2.0098e-05
11830.0 1.9263e-05
11850.0 1.8488e-05
11870.0 1.7824e-05
11890.0 1.7257e-05
11910.0 1.6744e-05
11930.0 1.6285e-05
11950.0 1.5883e-05
11970.0 1.5509e-05
11990.0 1.5142e-05
12010.0 1.479e-05
12030.0 1.4444e-05
12050.0 1.4084e-05
12070.0 1.371e-05
12090.0 1.3346e-05
12110.0 1.2975e-05
12130.0 1.2599e-05
12150.0 1.2241e-05
12170.0 1.191e-05
12190.0 1.1596e-05
12210.0 1.1328e-05
12230.0 1.1119e-05
12250.0 1.0966e-05
12270.0 1.088e-05
12290.0 1.0867e-05
12310.0 1.0921e-05
12330.0 1.1054e-05
12350.0 1.1257e-05
12370.0 1.1513e-05
12390.0 1.1828e-05
12410.0 1.2215e-05
12430.0 1.2614e-05
12450.0 1.3031e-05
12470.0 1.3478e-05
12490.0 1.3924e-05
12510.0 1.4336e-05
12530.0 1.4742e-05
12550.0 1.5126e-05
12570.0 1.5454e-05
12590.0 1.5728e-05
12610.0 1.5962e-05
12630.0 1.6131e-05
12650.0 1.6224e-05
12670.0 1.626e-05
12690.0 1.6232e-05
12710.0 1.6139e-05
12730.0 1.5989e-05
12750.0 1.5779e-05
12770.0 1.5518e-05
12790.0 1.5219e-05
12810.0 1.4878e-05
12830.0 1.4496e-05
12850.0 1.4101e-05
12870.0 1.369e-05
12890.0 1.3252e-05
12910.0 1.2808e-05
12930.0 1.237e-05
12950.0 1.1915e-05
12970.0 1.1453e-05
12990.0 1.101e-05
13010.0 1.0571e-05
13030.0 1.0125e-05
13050.0 9.6911e-06
13070.0 9.2796e-06
13090.0 8.8639e-06
13110.0 8.4575e-06
13130.0 8.0777e-06
13150.0 7.7141e-06
13170.0 7.3554e-06
13190.0 7.0313e-06
13210.0 6.7415e-06
13230.0 6.4728e-06
13250.0 6.2361e-06
13270.0 6.042e-06
13290.0 5.8823e-06
13310.0 5.7592e-06
13330.0 5.6811e-06
13350.0 5.6442e-06
13370.0 5.649e-06
13390.0 5.6977e-06
13410.0 5.7789e-06
13430.0 5.8956e-06
13450.0 6.0484e-06
13470.0 6.223e-06
13490.0 6.4112e-06
13510.0 6.6284e-06
13530.0 6.8514e-06
13550.0 7.0664e-06
13570.0 7.2809e-06
13590.0 7.4926e-06
13610.0 7.682e-06
13630.0 7.848e-06
13650.0 8.0014e-06
13670.0 8.1289e-06
13690.0 8.2266e-06
13710.0 8.3015e-06
13730.0 8.354e-06
13750.0 8.3766e-06
13770.0 8.3764e-06
13790.0 8.3549e-06
13810.0 8.3122e-06
13830.0 8.2524e-06
13850.0 8.1746e-06
13870.0 8.0795e-06
13890.0 7.9728e-06
13910.0 7.8549e-06
13930.0 7.7217e-06
13950.0 7.5791e-06
13970.0 7.4354e-06
13990.0 7.2818e-06
14010.0 7.1214e-06
14030.0 6.9635e-06
14050.0 6.8065e-06
14070.0 6.6433e-06
14090.0 6.4885e-06
14110.0 6.3442e-06
14130.0 6.2055e-06
14150.0 6.0758e-06
14170.0 5.9654e-06
14190.0 5.8699e-06
14210.0 5.7889e-06
14230.0 5.7283e-06
14250.0 5.6883e-06
14270.0 5.6676e-06
14290.0 5.669e-06
14310.0 5.6907e-06
14330.0 5.7318e-06
14350.0 5.7939e-06
14370.0 5.8727e-06
14390.0 5.9637e-06
14410.0 6.0727e-06
14430.0 6.1946e-06
14450.0 6.3219e-06
14470.0 6.4571e-06
14490.0 6.605e-06
14510.0 6.7514e-06
14530.0 6.8958e-06
14550.0 7.0465e-06
14570.0 7.1987e-06
14590.0 7.3452e-06
14610.0 7.4954e-06
14630.0 7.6531e-06
14650.0 7.8093e-06
14670.0 7.9678e-06
14690.0 8.1389e-06
14710.0 8.3224e-06
14730.0 8.5069e-06
14750.0 8.7085e-06
14770.0 8.9311e-06
14790.0 9.1645e-06
14810.0 9.4084e-06
14830.0 9.6849e-06
14850.0 9.9731e-06
14870.0 1.0263e-05
14890.0 1.0565e-05
14910.0 1.0875e-05
14930.0 1.1166e-05
14950.0 1.1433e-05
14970.0 1.1682e-05
14990.0 1.1889e-05
15010.0 1.2048e-05
15030.0 1.2167e-05
15050.0 1.2249e-05
15070.0 1.2295e-05
15090.0 1.2318e-05
15110.0 1.2326e-05
15130.0 1.2324e-05
15150.0 1.2318e-05
15170.0 1.2309e-05
15190.0 1.2298e-05
15210.0 1.2288e-05
15230.0 1.2278e-05
15250.0 1.2267e-05
15270.0 1.2257e-05
15290.0 1.2248e-05
15310.0 1.2239e-05
15330.0 1.2229e-05
15350.0 1.2221e-05
15370.0 1.2213e-05
15390.0 1.2203e-05
15410.0 1.2195e-05
15430.0 1.2187e-05
15450.0 1.2179e-05
15470.0 1.217e-05
15490.0 1.2163e-05
15510.0 1.2156e-05
15530.0 1.2147e-05
15550.0 1.214e-05
15570.0 1.2133e-05
15590.0 1.2125e-05
15610.0 1.2117e-05
15630.0 1.211e-05
15650.0 1.2102e-05
15670.0 1.2094e-05
15690.0 1.2087e-05
15710.0 1.208e-05
15730.0 1.2072e-05
15750.0 1.2064e-05
15770.0 1.2056e-05
15790.0 1.2049e-05
15810.0 1.204e-05
15830.0 1.2032e-05
15850.0 1.2024e-05
15870.0 1.2015e-05
15890.0 1.2007e-05
15910.0 1.1999e-05
15930.0 1.199e-05
15950.0 1.198e-05
15970.0 1.1971e-05
15990.0 1.1962e-05
16010.0 1.1952e-05
16030.0 1.1942e-05
16050.0 1.1933e-05
16070.0 1.1922e-05
16090.0 1.1911e-05
16110.0 1.1901e-05
16130.0 1.1891e-05
16150.0 1.1878e-05
16170.0 1.1866e-05
16190.0 1.1855e-05
16210.0 1.1843e-05
16230.0 1.183e-05
16250.0 1.1818e-05
16270.0 1.1806e-05
16290.0 1.1792e-05
16310.0 1.1778e-05
16330.0 1.1765e-05
16350.0 1.175e-05
16370.0 1.1734e-05
16390.0 1.172e-05
16410.0 1.1705e-05
16430.0 1.1689e-05
16450.0 1.1672e-05
16470.0 1.1657e-05
16490.0 1.164e-05
16510.0 1.1622e-05
16530.0 1.1605e-05
16550.0 1.1587e-05
16570.0 1.1568e-05
16590.0 1.1549e-05
16610.0 1.1531e-05
16630.0 1.1511e-05
16650.0 1.1491e-05
16670.0 1.1471e-05
16690.0 1.1451e-05
16710.0 1.1429e-05
16730.0 1.1407e-05
16750.0 1.1386e-05
16770.0 1.1364e-05
16790.0 1.134e-05
16810.0 1.1318e-05
16830.0 1.1295e-05
16850.0 1.127e-05
16870.0 1.1246e-05
16890.0 1.1222e-05
16910.0 1.1196e-05
16930.0 1.1169e-05
16950.0 1.1144e-05
16970.0 1.1118e-05
16990.0 1.109e-05
17010.0 1.1063e-05
17030.0 1.1037e-05
17050.0 1.1008e-05
17070.0 1.0979e-05
17090.0 1.0951e-05
17110.0 1.0922e-05
17130.0 1.0891e-05
17150.0 1.0861e-05
17170.0 1.0831e-05
17190.0 1.08e-05
17210.0 1.0768e-05
17230.0 1.0738e-05
17250.0 1.0706e-05
17270.0 1.0672e-05
17290.0 1.064e-05
17310.0 1.0607e-05
17330.0 1.0573e-05
17350.0 1.0538e-05
17370.0 1.0505e-05
17390.0 1.0471e-05
17410.0 1.0435e-05
17430.0 1.04e-05
17450.0 1.0365e-05
17470.0 1.0328e-05
17490.0 1.0291e-05
17510.0 1.0255e-05
17530.0 1.0218e-05
17550.0 1.018e-05
17570.0 1.0143e-05
17590.0 1.0106e-05
17610.0 1.0067e-05
17630.0 1.0028e-05
17650.0 9.9901e-06
17670.0 9.9509e-06
17690.0 9.9098e-06
17710.0 9.8708e-06
17730.0 9.8314e-06
17750.0 9.7905e-06
17770.0 9.7498e-06
17790.0 9.7102e-06
17810.0 9.6686e-06
17830.0 9.6265e-06
17850.0 9.5854e-06
17870.0 9.544e-06
17890.0 9.501e-06
17910.0 9.4583e-06
17930.0 9.417e-06
17950.0 9.3741e-06
17970.0 9.3306e-06
17990.0 9.2882e-06
18010.0 9.2454e-06
18030.0 9.2005e-06
18050.0 9.1568e-06
18070.0 9.1137e-06
18090.0 9.0693e-06
18110.0 9.0243e-06
18130.0 8.9808e-06
18150.0 8.9367e-06
18170.0 8.8913e-06
18190.0 8.8465e-06
18210.0 8.8024e-06
18230.0 8.7566e-06
18250.0 8.7104e-06
18270.0 8.6659e-06
18290.0 8.6207e-06
18310.0 8.5744e-06
18330.0 8.5289e-06
18350.0 8.4841e-06
18370.0 8.4376e-06
18390.0 8.3911e-06
18410.0 8.3458e-06
18430.0 8.2998e-06
18450.0 8.2524e-06
18470.0 8.2064e-06
18490.0 8.1609e-06
18510.0 8.1141e-06
18530.0 8.0674e-06
18550.0 8.0219e-06
18570.0 7.9754e-06
18590.0 7.9278e-06
18610.0 7.8815e-06
18630.0 7.8355e-06
18650.0 7.7882e-06
18670.0 7.741e-06
18690.0 7.6955e-06
18710.0 7.6489e-06
18730.0 7.6016e-06
18750.0 7.5554e-06
18770.0 7.5097e-06
18790.0 7.4618e-06
18810.0 7.4149e-06
18830.0 7.3691e-06
18850.0 7.3225e-06
18870.0 7.2753e-06
18890.0 7.2294e-06
18910.0 7.1837e-06
18930.0 7.1366e-06
18950.0 7.0901e-06
18970.0 7.0446e-06
18990.0 6.9982e-06
19010.0 6.9506e-06
19030.0 6.9053e-06
19050.0 6.8598e-06
19070.0 6.8133e-06
19090.0 6.7673e-06
19110.0 6.7227e-06
19130.0 6.6764e-06
19150.0 6.6301e-06
19170.0 6.585e-06
19190.0 6.5399e-06
19210.0 6.4936e-06
19230.0 6.4481e-06
19250.0 6.404e-06
19270.0 6.3587e-06
19290.0 6.3133e-06
19310.0 6.2691e-06
19330.0 6.2248e-06
19350.0 6.1789e-06
19370.0 6.1345e-06
19390.0 6.0907e-06
19410.0 6.0461e-06
19430.0 6.0013e-06
19450.0 5.9581e-06
19470.0 5.9145e-06
19490.0 5.8701e-06
19510.0 5.8266e-06
19530.0 5.7838e-06
19550.0 5.7398e-06
19570.0 5.6957e-06
19590.0 5.6534e-06
19610.0 5.6107e-06
19630.0 5.5672e-06
19650.0 5.5248e-06
19670.0 5.4832e-06
19690.0 5.4401e-06
19710.0 5.3975e-06
19730.0 5.356e-06
19750.0 5.3142e-06
19770.0 5.2713e-06
19790.0 5.2299e-06
19810.0 5.1891e-06
19830.0 5.1473e-06
19850.0 5.1055e-06
19870.0 5.0647e-06
19890.0 5.022e-06
19910.0 4.9768e-06
19930.0 4.9303e-06
19950.0 4.8799e-06
19970.0 4.822e-06
19990.0 4.7563e-06
20010.0 4.6202e-06
20030.0 4.5389e-06
20050.0 4.4473e-06
20070.0 4.3509e-06
20090.0 4.2496e-06
20110.0 4.1382e-06
20130.0 4.0273e-06
20150.0 3.919e-06
20170.0 3.8085e-06
20190.0 3.6979e-06
20210.0 3.5942e-06
20230.0 3.4939e-06
20250.0 3.394e-06
20270.0 3.3015e-06
20290.0 3.2167e-06
20310.0 3.1361e-06
20330.0 3.0604e-06
20350.0 2.9966e-06
20370.0 2.9391e-06
20390.0 2.8879e-06
20410.0 2.8453e-06
20430.0 2.811e-06
20450.0 2.7826e-06
20470.0 2.7618e-06
20490.0 2.7483e-06
20510.0 2.7409e-06
20530.0 2.7397e-06
20550.0 2.744e-06
20570.0 2.7528e-06
20590.0 2.7665e-06
20610.0 2.7845e-06
20630.0 2.8051e-06
20650.0 2.8289e-06
20670.0 2.857e-06
20690.0 2.8859e-06
20710.0 2.9159e-06
20730.0 2.9485e-06
20750.0 2.9825e-06
20770.0 3.0155e-06
20790.0 3.0499e-06
20810.0 3.086e-06
20830.0 3.1213e-06
20850.0 3.1561e-06
20870.0 3.1931e-06
20890.0 3.2302e-06
20910.0 3.2652e-06
20930.0 3.3012e-06
20950.0 3.3382e-06
20970.0 3.3738e-06
20990.0 3.4086e-06
21010.0 3.4453e-06
21030.0 3.4809e-06
21050.0 3.5147e-06
21070.0 3.5486e-06
21090.0 3.5828e-06
21110.0 3.6139e-06
21130.0 3.6434e-06
21150.0 3.6725e-06
21170.0 3.6992e-06
21190.0 3.7227e-06
21210.0 3.7448e-06
21230.0 3.7645e-06
21250.0 3.7798e-06
21270.0 3.7916e-06
21290.0 3.7998e-06
21310.0 3.8033e-06
21330.0 3.8016e-06
21350.0 3.7949e-06
21370.0 3.7823e-06
21390.0 3.764e-06
21410.0 3.7398e-06
21430.0 3.7076e-06
21450.0 3.6696e-06
21470.0 3.6264e-06
21490.0 3.5762e-06
21510.0 3.5194e-06
21530.0 3.4598e-06
21550.0 3.3958e-06
21570.0 3.3259e-06
21590.0 3.2552e-06
21610.0 3.1848e-06
21630.0 3.1124e-06
21650.0 3.0394e-06
21670.0 2.9734e-06
21690.0 2.91e-06
21710.0 2.8498e-06
21730.0 2.7967e-06
21750.0 2.7513e-06
21770.0 2.711e-06
21790.0 2.6793e-06
21810.0 2.6568e-06
21830.0 2.6422e-06
21850.0 2.6361e-06
21870.0 2.6385e-06
21890.0 2.6482e-06
21910.0 2.6659e-06
21930.0 2.6909e-06
21950.0 2.7211e-06
21970.0 2.7573e-06
21990.0 2.8009e-06
22010.0 2.8468e-06
22030.0 2.8955e-06
22050.0 2.9489e-06
22070.0 3.0047e-06
22090.0 3.0592e-06
22110.0 3.1161e-06
22130.0 3.1748e-06
22150.0 3.2313e-06
22170.0 3.2859e-06
22190.0 3.3417e-06
22210.0 3.395e-06
22230.0 3.4428e-06
22250.0 3.4889e-06
22270.0 3.5322e-06
22290.0 3.5699e-06
22310.0 3.6028e-06
22330.0 3.6325e-06
22350.0 3.6561e-06
22370.0 3.6733e-06
22390.0 3.6851e-06
22410.0 3.6908e-06
22430.0 3.6895e-06
22450.0 3.6818e-06
22470.0 3.6672e-06
22490.0 3.6456e-06
22510.0 3.6181e-06
22530.0 3.5826e-06
22550.0 3.5393e-06
22570.0 3.491e-06
22590.0 3.4363e-06
22610.0 3.3733e-06
22630.0 3.305e-06
