#lamb flux
1010.0 3.4399e-05
1030.0 4.5514e-05
1050.0 5.8883e-05
1070.0 7.4507e-05
1090.0 9.2717e-05
1110.0 0.0001119
1130.0 0.0001314
1150.0 0.00015152
1170.0 0.00017155
1190.0 0.00018941
1210.0 0.00020582
1230.0 0.00022065
1250.0 0.00023252
1270.0 0.00024103
1290.0 0.00024742
1310.0 0.00025062
1330.0 0.00025015
1350.0 0.00024703
1370.0 0.00024168
1390.0 0.00023387
1410.0 0.00022408
1430.0 0.00021355
1450.0 0.00020214
1470.0 0.00019001
1490.0 0.0001779
1510.0 0.00016648
1530.0 0.00015524
1550.0 0.00014449
1570.0 0.00013455
1590.0 0.00012527
1610.0 0.00011649
1630.0 0.00010857
1650.0 0.00010145
1670.0 9.4885e-05
1690.0 8.8933e-05
1710.0 8.3654e-05
1730.0 7.8944e-05
1750.0 7.5007e-05
1770.0 7.1639e-05
1790.0 6.8763e-05
1810.0 6.625e-05
1830.0 6.4105e-05
1850.0 6.2526e-05
1870.0 6.1223e-05
1890.0 6.0198e-05
1910.0 5.9516e-05
1930.0 5.9178e-05
1950.0 5.9104e-05
1970.0 5.9355e-05
1990.0 6.0012e-05
2010.0 6.1043e-05
2030.0 6.2467e-05
2050.0 6.4411e-05
2070.0 6.693e-05
2090.0 6.9991e-05
2110.0 7.3731e-05
2130.0 7.8274e-05
2150.0 8.3643e-05
2170.0 8.9884e-05
2190.0 9.7198e-05
2210.0 0.00010563
2230.0 0.00011519
2250.0 0.00012598
2270.0 0.00013818
2290.0 0.00015169
2310.0 0.00016648
2330.0 0.00018273
2350.0 0.00020037
2370.0 0.00021919
2390.0 0.00023922
2410.0 0.0002604
2430.0 0.00028223
2450.0 0.00030439
2470.0 0.00032661
2490.0 0.00034834
2510.0 0.00036924
2530.0 0.00038947
2550.0 0.00040969
2570.0 0.00043142
2590.0 0.00045685
2610.0 0.00049056
2630.0 0.00053705
2650.0 0.00059868
2670.0 0.00068061
2690.0 0.00078771
2710.0 0.00091476
2730.0 0.0010576
2750.0 0.0012206
2770.0 0.0013905
2790.0 0.0015546
2810.0 0.0017122
2830.0 0.0018611
2850.0 0.0019848
2870.0 0.0020906
2890.0 0.0021843
2910.0 0.0022656
2930.0 0.0023356
2950.0 0.0024021
2970.0 0.002466
2990.0 0.0025251
3010.0 0.0025815
3030.0 0.0026383
3050.0 0.0026932
3070.0 0.0027424
3090.0 0.0027905
3110.0 0.0028353
3130.0 0.0028731
3150.0 0.0029043
3170.0 0.002931
3190.0 0.0029508
3210.0 0.0029662
3230.0 0.0029813
3250.0 0.0029992
3270.0 0.0030198
3290.0 0.0030428
3310.0 0.0030679
3330.0 0.0030923
3350.0 0.0031143
3370.0 0.0031345
3390.0 0.0031522
3410.0 0.0031655
3430.0 0.0031762
3450.0 0.0031854
3470.0 0.0032602
3490.0 0.0032089
3510.0 0.002971
3530.0 0.0033221
3550.0 0.0038084
3570.0 0.0042696
3590.0 0.0048098
3610.0 0.0052192
3630.0 0.0054308
3650.0 0.0048939
3670.0 0.0042991
3690.0 0.0040932
3710.0 0.0044037
3730.0 0.0050631
3750.0 0.005264
3770.0 0.0052993
3790.0 0.005367
3810.0 0.0050484
3830.0 0.0045496
3850.0 0.004125
3870.0 0.003872
3890.0 0.0042891
3910.0 0.0046002
3930.0 0.0046571
3950.0 0.0046613
3970.0 0.0048852
3990.0 0.0052099
4010.0 0.0052576
4030.0 0.0049891
4050.0 0.004581
4070.0 0.0045306
4090.0 0.0047407
4110.0 0.0049428
4130.0 0.004806
4150.0 0.0046737
4170.0 0.0046415
4190.0 0.004836
4210.0 0.0047582
4230.0 0.0044196
4250.0 0.0039684
4270.0 0.0035458
4290.0 0.0032313
4310.0 0.0030092
4330.0 0.0029751
4350.0 0.0032658
4370.0 0.003356
4390.0 0.0034791
4410.0 0.0037009
4430.0 0.0038127
4450.0 0.0037015
4470.0 0.003617
4490.0 0.0036937
4510.0 0.0037593
4530.0 0.0038229
4550.0 0.0038805
4570.0 0.0038956
4590.0 0.0040362
4610.0 0.0041381
4630.0 0.0042822
4650.0 0.0043508
4670.0 0.0042959
4690.0 0.0040224
4710.0 0.0036788
4730.0 0.0035458
4750.0 0.003513
4770.0 0.0033671
4790.0 0.0032
4810.0 0.0031282
4830.0 0.0031745
4850.0 0.0030597
4870.0 0.0029869
4890.0 0.0029153
4910.0 0.0027508
4930.0 0.0028025
4950.0 0.002604
4970.0 0.0023577
4990.0 0.0023103
5010.0 0.0021437
5030.0 0.0020351
5050.0 0.0020388
5070.0 0.0022132
5090.0 0.0023017
5110.0 0.0025451
5130.0 0.0026123
5150.0 0.0027058
5170.0 0.002773
5190.0 0.0027331
5210.0 0.0027421
5230.0 0.0027837
5250.0 0.00279
5270.0 0.0028453
5290.0 0.0028337
5310.0 0.0027703
5330.0 0.0026325
5350.0 0.0024856
5370.0 0.0023399
5390.0 0.0023808
5410.0 0.0024132
5430.0 0.0024175
5450.0 0.0024324
5470.0 0.0024153
5490.0 0.0023878
5510.0 0.0023552
5530.0 0.0023165
5550.0 0.0023217
5570.0 0.0023425
5590.0 0.002372
5610.0 0.0023484
5630.0 0.0022975
5650.0 0.0022793
5670.0 0.0022244
5690.0 0.002169
5710.0 0.0020927
5730.0 0.002071
5750.0 0.0020616
5770.0 0.0020168
5790.0 0.0019773
5810.0 0.0019637
5830.0 0.0019975
5850.0 0.002033
5870.0 0.0020245
5890.0 0.0019982
5910.0 0.0019978
5930.0 0.0020113
5950.0 0.0020038
5970.0 0.0019772
5990.0 0.0019585
6010.0 0.0019922
6030.0 0.0019893
6050.0 0.0019496
6070.0 0.0019459
6090.0 0.0019411
6110.0 0.0019448
6130.0 0.0019372
6150.0 0.0018812
6170.0 0.0017509
6190.0 0.0016199
6210.0 0.0015639
6230.0 0.0015401
6250.0 0.0015477
6270.0 0.0015984
6290.0 0.001645
6310.0 0.0016979
6330.0 0.0017456
6350.0 0.001762
6370.0 0.0017666
6390.0 0.0017231
6410.0 0.0016888
6430.0 0.0016352
6450.0 0.0015992
6470.0 0.0015779
6490.0 0.0015754
6510.0 0.0015724
6530.0 0.0015642
6550.0 0.0015344
6570.0 0.0015114
6590.0 0.0014978
6610.0 0.0014644
6630.0 0.0014445
6650.0 0.0014154
6670.0 0.0013729
6690.0 0.0013346
6710.0 0.0013058
6730.0 0.00129
6750.0 0.0012679
6770.0 0.001254
6790.0 0.0012531
6810.0 0.0012344
6830.0 0.0012217
6850.0 0.0012027
6870.0 0.0011742
6890.0 0.0011718
6910.0 0.0011583
6930.0 0.0011387
6950.0 0.0011356
6970.0 0.0011239
6990.0 0.0011212
7010.0 0.0011076
7030.0 0.0010963
7050.0 0.0010874
7070.0 0.0010669
7090.0 0.001034
7110.0 0.0010097
7130.0 0.001015
7150.0 0.0010234
7170.0 0.0010289
7190.0 0.0010452
7210.0 0.0010585
7230.0 0.0010721
7250.0 0.0010841
7270.0 0.0010647
7290.0 0.0010569
7310.0 0.0010342
7330.0 0.00099903
7350.0 0.00098267
7370.0 0.00096426
7390.0 0.00095617
7410.0 0.00095706
7430.0 0.00094929
7450.0 0.00093575
7470.0 0.00091939
7490.0 0.00089328
7510.0 0.00083887
7530.0 0.00086566
7550.0 0.00086904
7570.0 0.00085193
7590.0 0.00079154
7610.0 0.00080537
7630.0 0.00080085
7650.0 0.00080715
7670.0 0.0008091
7690.0 0.00082085
7710.0 0.00081157
7730.0 0.00084226
7750.0 0.00086183
7770.0 0.00089985
7790.0 0.00093355
7810.0 0.00095832
7830.0 0.00099135
7850.0 0.00099297
7870.0 0.0010071
7890.0 0.00099666
7910.0 0.00096744
7930.0 0.0009513
7950.0 0.00093985
7970.0 0.00093198
7990.0 0.00093199
8010.0 0.0008492
8030.0 0.00084395
8050.0 0.0008268
8070.0 0.00081883
8090.0 0.00079206
8110.0 0.00079799
8130.0 0.00081101
8150.0 0.00082707
8170.0 0.00082013
8190.0 0.00083498
8210.0 0.00082424
8230.0 0.00078478
8250.0 0.00077362
8270.0 0.00075997
8290.0 0.00074654
8310.0 0.00071627
8330.0 0.00072368
8350.0 0.00072178
8370.0 0.00072388
8390.0 0.00073592
8410.0 0.00073009
8430.0 0.00073742
8450.0 0.00074497
8470.0 0.00075239
8490.0 0.00076213
8510.0 0.0007473
8530.0 0.00071948
8550.0 0.00072496
8570.0 0.00072445
8590.0 0.00070167
8610.0 0.00071624
8630.0 0.00070585
8650.0 0.00069248
8670.0 0.00068768
8690.0 0.00068569
8710.0 0.00065656
8730.0 0.00066738
8750.0 0.00064522
8770.0 0.0006432
8790.0 0.00062472
8810.0 0.00061642
8830.0 0.0006178
8850.0 0.00059297
8870.0 0.00056377
8890.0 0.00055637
8910.0 0.00052552
8930.0 0.00048582
8950.0 0.00048554
8970.0 0.00046761
8990.0 0.00046377
9010.0 0.00045887
9030.0 0.00045558
9050.0 0.00045236
9070.0 0.00044913
9090.0 0.00044587
9110.0 0.00044256
9130.0 0.00043926
9150.0 0.00043599
9170.0 0.0004327
9190.0 0.0004294
9210.0 0.00042608
9230.0 0.00042276
9250.0 0.00041943
9270.0 0.0004161
9290.0 0.00041277
9310.0 0.00040945
9330.0 0.00040613
9350.0 0.00040281
9370.0 0.0003995
9390.0 0.0003962
9410.0 0.0003929
9430.0 0.00038961
9450.0 0.00038633
9470.0 0.00038332
9490.0 0.00038019
9510.0 0.00037681
9530.0 0.00037348
9550.0 0.00037021
9570.0 0.00036699
9590.0 0.0003638
9610.0 0.00036063
9630.0 0.00035751
9650.0 0.00035439
9670.0 0.00035129
9690.0 0.00034823
9710.0 0.00034519
9730.0 0.00034217
9750.0 0.00033917
9770.0 0.00033622
9790.0 0.00033327
9810.0 0.00033034
9830.0 0.00032741
9850.0 0.00032412
9870.0 0.00032117
9890.0 0.00031861
9910.0 0.000316
9930.0 0.00031282
9950.0 0.0003101
9970.0 0.00030766
9990.0 0.00030513
10010.0 0.00030261
10030.0 0.00030007
10050.0 0.00029752
10070.0 0.00029502
10090.0 0.00029256
10110.0 0.00029006
10130.0 0.00028759
10150.0 0.0002852
10170.0 0.00028283
10190.0 0.00028045
10210.0 0.00027815
10230.0 0.00027589
10250.0 0.00027362
10270.0 0.00027139
10290.0 0.00026923
10310.0 0.00026706
10330.0 0.00026489
10350.0 0.0002628
10370.0 0.00026075
10390.0 0.00025868
10410.0 0.00025663
10430.0 0.00025464
10450.0 0.00025272
10470.0 0.00025079
10490.0 0.00024892
10510.0 0.00024709
10530.0 0.00024521
10550.0 0.0002434
10570.0 0.00024165
10590.0 0.00023989
10610.0 0.00023814
10630.0 0.00023647
10650.0 0.00023481
10670.0 0.00023314
10690.0 0.00023152
10710.0 0.00022995
10730.0 0.00022837
10750.0 0.00022678
10770.0 0.00022529
10790.0 0.00022381
10810.0 0.00022232
10830.0 0.00022087
10850.0 0.00021949
10870.0 0.00021807
10890.0 0.00021667
10910.0 0.00021536
10930.0 0.00021407
10950.0 0.00021278
10970.0 0.00021158
10990.0 0.00021045
11010.0 0.00022351
11030.0 0.00022266
11050.0 0.00022183
11070.0 0.00022098
11090.0 0.00022004
11110.0 0.00021909
11130.0 0.00021809
11150.0 0.00021699
11170.0 0.00021583
11190.0 0.00021468
11210.0 0.00021347
11230.0 0.00021221
11250.0 0.00021098
11270.0 0.00020978
11290.0 0.00020856
11310.0 0.00020737
11330.0 0.00020631
11350.0 0.00020527
11370.0 0.00020426
11390.0 0.00020335
11410.0 0.0002025
11430.0 0.00020164
11450.0 0.00020082
11470.0 0.00020006
11490.0 0.00019927
11510.0 0.00019844
11530.0 0.00019764
11550.0 0.00019682
11570.0 0.00019592
11590.0 0.00019499
11610.0 0.00019407
11630.0 0.00019307
11650.0 0.00019201
11670.0 0.00019099
11690.0 0.00018996
11710.0 0.00018889
11730.0 0.00018783
11750.0 0.00018684
11770.0 0.00018581
11790.0 0.00018478
11810.0 0.00018382
11830.0 0.00018288
11850.0 0.0001819
11870.0 0.00018098
11890.0 0.00018014
11910.0 0.0001793
11930.0 0.00017848
11950.0 0.00017777
11970.0 0.00017711
11990.0 0.00017648
12010.0 0.00017597
12030.0 0.00017557
12050.0 0.00017525
12070.0 0.00017503
12090.0 0.00017496
12110.0 0.00017499
12130.0 0.00017511
12150.0 0.00017535
12170.0 0.00017568
12190.0 0.00017608
12210.0 0.00017655
12230.0 0.00017707
12250.0 0.00017763
12270.0 0.00017821
12290.0 0.00017879
12310.0 0.00017936
12330.0 0.00017991
12350.0 0.00018042
12370.0 0.00018088
12390.0 0.0001813
12410.0 0.00018164
12430.0 0.0001819
12450.0 0.00018208
12470.0 0.00018215
12490.0 0.00018212
12510.0 0.00018199
12530.0 0.00018173
12550.0 0.00018131
12570.0 0.00018079
12590.0 0.00018016
12610.0 0.00017935
12630.0 0.0001784
12650.0 0.00017741
12670.0 0.00017628
12690.0 0.00017501
12710.0 0.00017372
12730.0 0.00017237
12750.0 0.00017088
12770.0 0.00016938
12790.0 0.0001679
12810.0 0.00016638
12830.0 0.00016482
12850.0 0.00016335
12870.0 0.00016193
12890.0 0.00016049
12910.0 0.00015912
12930.0 0.00015786
12950.0 0.0001566
12970.0 0.0001554
12990.0 0.00015432
13010.0 0.00015331
13030.0 0.00015232
13050.0 0.00015141
13070.0 0.00015059
13090.0 0.00014977
13110.0 0.00014898
13130.0 0.00014826
13150.0 0.00014756
13170.0 0.00014686
13190.0 0.0001462
13210.0 0.00014557
13230.0 0.00014494
13250.0 0.00014432
13270.0 0.00014373
13290.0 0.00014313
13310.0 0.0001425
13330.0 0.00014188
13350.0 0.00014126
13370.0 0.0001406
13390.0 0.00013989
13410.0 0.00013919
13430.0 0.00013843
13450.0 0.00013762
13470.0 0.00013678
13490.0 0.00013592
13510.0 0.00013497
13530.0 0.00013399
13550.0 0.00013301
13570.0 0.00013199
13590.0 0.0001309
13610.0 0.00012982
13630.0 0.00012874
13650.0 0.0001276
13670.0 0.00012644
13690.0 0.0001253
13710.0 0.00012413
13730.0 0.00012289
13750.0 0.0001217
13770.0 0.00012051
13790.0 0.00011927
13810.0 0.00011804
13830.0 0.00011685
13850.0 0.00011562
13870.0 0.00011438
13890.0 0.00011319
13910.0 0.00011202
13930.0 0.00011082
13950.0 0.00010964
13970.0 0.00010854
13990.0 0.00010743
14010.0 0.00010633
14030.0 0.00010527
14050.0 0.00010425
14070.0 0.00010319
14090.0 0.00010218
14110.0 0.0001012
14130.0 0.00010022
14150.0 9.9231e-05
14170.0 9.8287e-05
14190.0 9.7352e-05
14210.0 9.6398e-05
14230.0 9.5464e-05
14250.0 9.4562e-05
14270.0 9.3642e-05
14290.0 9.2726e-05
14310.0 9.1861e-05
14330.0 9.1011e-05
14350.0 9.0164e-05
14370.0 8.9355e-05
14390.0 8.859e-05
14410.0 8.7829e-05
14430.0 8.7092e-05
14450.0 8.6398e-05
14470.0 8.5725e-05
14490.0 8.5051e-05
14510.0 8.4412e-05
14530.0 8.3798e-05
14550.0 8.3182e-05
14570.0 8.2573e-05
14590.0 8.1985e-05
14610.0 8.1395e-05
14630.0 8.0794e-05
14650.0 8.0208e-05
14670.0 7.9631e-05
14690.0 7.9044e-05
14710.0 7.8455e-05
14730.0 7.7891e-05
14750.0 7.7324e-05
14770.0 7.6753e-05
14790.0 7.6196e-05
14810.0 7.5653e-05
14830.0 7.5094e-05
14850.0 7.4546e-05
14870.0 7.4015e-05
14890.0 7.3484e-05
14910.0 7.295e-05
14930.0 7.2436e-05
14950.0 7.1939e-05
14970.0 7.1446e-05
14990.0 7.0975e-05
15010.0 7.0534e-05
15030.0 7.0109e-05
15050.0 6.9696e-05
15070.0 6.9312e-05
15090.0 6.8941e-05
15110.0 6.8575e-05
15130.0 6.8215e-05
15150.0 6.7868e-05
15170.0 6.7517e-05
15190.0 6.7166e-05
15210.0 6.6823e-05
15230.0 6.6483e-05
15250.0 6.6138e-05
15270.0 6.5797e-05
15290.0 6.5466e-05
15310.0 6.5131e-05
15330.0 6.4797e-05
15350.0 6.447e-05
15370.0 6.4146e-05
15390.0 6.3816e-05
15410.0 6.3493e-05
15430.0 6.3176e-05
15450.0 6.2857e-05
15470.0 6.2537e-05
15490.0 6.2228e-05
15510.0 6.192e-05
15530.0 6.1609e-05
15550.0 6.1303e-05
15570.0 6.1004e-05
15590.0 6.0702e-05
15610.0 6.0399e-05
15630.0 6.0107e-05
15650.0 5.9815e-05
15670.0 5.9522e-05
15690.0 5.9234e-05
15710.0 5.8953e-05
15730.0 5.8669e-05
15750.0 5.8386e-05
15770.0 5.8111e-05
15790.0 5.7838e-05
15810.0 5.756e-05
15830.0 5.7291e-05
15850.0 5.7027e-05
15870.0 5.6761e-05
15890.0 5.6497e-05
15910.0 5.6242e-05
15930.0 5.5986e-05
15950.0 5.5727e-05
15970.0 5.5476e-05
15990.0 5.5229e-05
16010.0 5.498e-05
16030.0 5.4732e-05
16050.0 5.4495e-05
16070.0 5.4257e-05
16090.0 5.4018e-05
16110.0 5.3785e-05
16130.0 5.3557e-05
16150.0 5.3323e-05
16170.0 5.3094e-05
16190.0 5.2873e-05
16210.0 5.2652e-05
16230.0 5.2429e-05
16250.0 5.2213e-05
16270.0 5.2002e-05
16290.0 5.1787e-05
16310.0 5.1576e-05
16330.0 5.1372e-05
16350.0 5.1167e-05
16370.0 5.0957e-05
16390.0 5.0759e-05
16410.0 5.0563e-05
16430.0 5.0365e-05
16450.0 5.017e-05
16470.0 4.9983e-05
16490.0 4.9792e-05
16510.0 4.9601e-05
16530.0 4.9417e-05
16550.0 4.9236e-05
16570.0 4.9051e-05
16590.0 4.887e-05
16610.0 4.8697e-05
16630.0 4.8522e-05
16650.0 4.8346e-05
16670.0 4.8178e-05
16690.0 4.8011e-05
16710.0 4.7839e-05
16730.0 4.7673e-05
16750.0 4.7512e-05
16770.0 4.735e-05
16790.0 4.7186e-05
16810.0 4.7031e-05
16830.0 4.6877e-05
16850.0 4.672e-05
16870.0 4.6567e-05
16890.0 4.6419e-05
16910.0 4.6267e-05
16930.0 4.6116e-05
16950.0 4.5972e-05
16970.0 4.5829e-05
16990.0 4.5683e-05
17010.0 4.5542e-05
17030.0 4.5406e-05
17050.0 4.5265e-05
17070.0 4.5125e-05
17090.0 4.4992e-05
17110.0 4.4858e-05
17130.0 4.472e-05
17150.0 4.4589e-05
17170.0 4.4462e-05
17190.0 4.4331e-05
17210.0 4.4202e-05
17230.0 4.4079e-05
17250.0 4.3953e-05
17270.0 4.3825e-05
17290.0 4.3702e-05
17310.0 4.3583e-05
17330.0 4.3459e-05
17350.0 4.3336e-05
17370.0 4.3221e-05
17390.0 4.3104e-05
17410.0 4.2984e-05
17430.0 4.2869e-05
17450.0 4.2757e-05
17470.0 4.2638e-05
17490.0 4.2522e-05
17510.0 4.2413e-05
17530.0 4.23e-05
17550.0 4.2186e-05
17570.0 4.2077e-05
17590.0 4.197e-05
17610.0 4.1858e-05
17630.0 4.1749e-05
17650.0 4.1644e-05
17670.0 4.1536e-05
17690.0 4.1423e-05
17710.0 4.132e-05
17730.0 4.1216e-05
17750.0 4.1108e-05
17770.0 4.1002e-05
17790.0 4.0902e-05
17810.0 4.0796e-05
17830.0 4.0689e-05
17850.0 4.0588e-05
17870.0 4.0486e-05
17890.0 4.0379e-05
17910.0 4.0275e-05
17930.0 4.0177e-05
17950.0 4.0074e-05
17970.0 3.9969e-05
17990.0 3.987e-05
18010.0 3.977e-05
18030.0 3.9663e-05
18050.0 3.9561e-05
18070.0 3.9462e-05
18090.0 3.9358e-05
18110.0 3.9253e-05
18130.0 3.9155e-05
18150.0 3.9055e-05
18170.0 3.8949e-05
18190.0 3.8848e-05
18210.0 3.8749e-05
18230.0 3.8643e-05
18250.0 3.8536e-05
18270.0 3.8437e-05
18290.0 3.8334e-05
18310.0 3.8228e-05
18330.0 3.8125e-05
18350.0 3.8025e-05
18370.0 3.7917e-05
18390.0 3.781e-05
18410.0 3.7708e-05
18430.0 3.7603e-05
18450.0 3.7491e-05
18470.0 3.7386e-05
18490.0 3.7282e-05
18510.0 3.7173e-05
18530.0 3.7063e-05
18550.0 3.6959e-05
18570.0 3.6849e-05
18590.0 3.6735e-05
18610.0 3.6626e-05
18630.0 3.6517e-05
18650.0 3.6403e-05
18670.0 3.6288e-05
18690.0 3.6179e-05
18710.0 3.6066e-05
18730.0 3.5949e-05
18750.0 3.5836e-05
18770.0 3.5723e-05
18790.0 3.5601e-05
18810.0 3.5482e-05
18830.0 3.5368e-05
18850.0 3.5249e-05
18870.0 3.5126e-05
18890.0 3.5007e-05
18910.0 3.4889e-05
18930.0 3.4764e-05
18950.0 3.464e-05
18970.0 3.4519e-05
18990.0 3.4394e-05
19010.0 3.4262e-05
19030.0 3.4138e-05
19050.0 3.4013e-05
19070.0 3.3882e-05
19090.0 3.3752e-05
19110.0 3.3627e-05
19130.0 3.3493e-05
19150.0 3.3357e-05
19170.0 3.3226e-05
19190.0 3.3094e-05
19210.0 3.2954e-05
19230.0 3.2817e-05
19250.0 3.2685e-05
19270.0 3.2545e-05
19290.0 3.2404e-05
19310.0 3.2267e-05
19330.0 3.2128e-05
19350.0 3.198e-05
19370.0 3.1837e-05
19390.0 3.1695e-05
19410.0 3.1549e-05
19430.0 3.1399e-05
19450.0 3.1256e-05
19470.0 3.1109e-05
19490.0 3.0957e-05
19510.0 3.0807e-05
19530.0 3.0659e-05
19550.0 3.0503e-05
19570.0 3.0346e-05
19590.0 3.0196e-05
19610.0 3.0041e-05
19630.0 2.9882e-05
19650.0 2.9726e-05
19670.0 2.9572e-05
19690.0 2.9409e-05
19710.0 2.9247e-05
19730.0 2.9089e-05
19750.0 2.8927e-05
19770.0 2.8759e-05
19790.0 2.8596e-05
19810.0 2.8435e-05
19830.0 2.8267e-05
19850.0 2.8099e-05
19870.0 2.7936e-05
19890.0 2.7768e-05
19910.0 2.7596e-05
19930.0 2.7431e-05
19950.0 2.7268e-05
19970.0 2.7103e-05
19990.0 2.6943e-05
20010.0 2.6792e-05
20030.0 2.6642e-05
20050.0 2.6493e-05
20070.0 2.6352e-05
20090.0 2.6214e-05
20110.0 2.6072e-05
20130.0 2.5934e-05
20150.0 2.58e-05
20170.0 2.5664e-05
20190.0 2.5526e-05
20210.0 2.5392e-05
20230.0 2.5259e-05
20250.0 2.5122e-05
20270.0 2.4988e-05
20290.0 2.4857e-05
20310.0 2.4725e-05
20330.0 2.4592e-05
20350.0 2.4467e-05
20370.0 2.4342e-05
20390.0 2.4218e-05
20410.0 2.4097e-05
20430.0 2.3982e-05
20450.0 2.3866e-05
20470.0 2.3754e-05
20490.0 2.3647e-05
20510.0 2.3544e-05
20530.0 2.3443e-05
20550.0 2.3348e-05
20570.0 2.326e-05
20590.0 2.3175e-05
20610.0 2.3095e-05
20630.0 2.3021e-05
20650.0 2.2953e-05
20670.0 2.289e-05
20690.0 2.2832e-05
20710.0 2.2778e-05
20730.0 2.2728e-05
20750.0 2.2681e-05
20770.0 2.2635e-05
20790.0 2.2591e-05
20810.0 2.2546e-05
20830.0 2.2499e-05
20850.0 2.2449e-05
20870.0 2.2395e-05
20890.0 2.2335e-05
20910.0 2.2268e-05
20930.0 2.2195e-05
20950.0 2.2112e-05
20970.0 2.2021e-05
20990.0 2.1921e-05
21010.0 2.1811e-05
21030.0 2.1691e-05
21050.0 2.1564e-05
21070.0 2.1427e-05
21090.0 2.1279e-05
21110.0 2.1127e-05
21130.0 2.097e-05
21150.0 2.0804e-05
21170.0 2.0633e-05
21190.0 2.0463e-05
21210.0 2.0286e-05
21230.0 2.0104e-05
21250.0 1.9926e-05
21270.0 1.9746e-05
21290.0 1.9563e-05
21310.0 1.9381e-05
21330.0 1.9203e-05
21350.0 1.9021e-05
21370.0 1.8838e-05
21390.0 1.8659e-05
21410.0 1.8479e-05
21430.0 1.8292e-05
21450.0 1.8108e-05
21470.0 1.7926e-05
21490.0 1.7739e-05
21510.0 1.7549e-05
21530.0 1.7362e-05
21550.0 1.7172e-05
21570.0 1.6977e-05
21590.0 1.6783e-05
21610.0 1.6591e-05
21630.0 1.6394e-05
21650.0 1.6194e-05
21670.0 1.6001e-05
21690.0 1.5807e-05
21710.0 1.5611e-05
21730.0 1.5418e-05
21750.0 1.523e-05
21770.0 1.5038e-05
21790.0 1.4849e-05
21810.0 1.4666e-05
21830.0 1.4484e-05
21850.0 1.4301e-05
21870.0 1.4123e-05
21890.0 1.3952e-05
21910.0 1.3778e-05
21930.0 1.3607e-05
21950.0 1.3442e-05
21970.0 1.3277e-05
21990.0 1.3109e-05
22010.0 1.2948e-05
22030.0 1.2788e-05
22050.0 1.2627e-05
22070.0 1.2467e-05
22090.0 1.2311e-05
22110.0 1.2153e-05
22130.0 1.1993e-05
22150.0 1.1836e-05
22170.0 1.168e-05
22190.0 1.152e-05
22210.0 1.1361e-05
22230.0 1.1206e-05
22250.0 1.1049e-05
22270.0 1.0891e-05
22290.0 1.0736e-05
22310.0 1.0583e-05
22330.0 1.0426e-05
22350.0 1.0272e-05
22370.0 1.0122e-05
22390.0 9.971e-06
22410.0 9.8196e-06
22430.0 9.6746e-06
22450.0 9.5323e-06
22470.0 9.3895e-06
22490.0 9.2505e-06
22510.0 9.1171e-06
22530.0 8.9835e-06
22550.0 8.8519e-06
22570.0 8.7267e-06
22590.0 8.6047e-06
22610.0 8.4837e-06
22630.0 8.3667e-06
22650.0 8.2553e-06
22670.0 8.1446e-06
22690.0 8.0361e-06
22710.0 7.9321e-06
22730.0 7.8307e-06
22750.0 7.729e-06
22770.0 7.6316e-06
22790.0 7.5379e-06
22810.0 7.4452e-06
22830.0 7.3545e-06
22850.0 7.2681e-06
