#lamb flux
1010.0 1.2619e-09
1030.0 1.6368e-09
1050.0 2.1047e-09
1070.0 2.6793e-09
1090.0 3.3894e-09
1110.0 4.202e-09
1130.0 5.1138e-09
1150.0 6.1573e-09
1170.0 7.3281e-09
1190.0 8.5565e-09
1210.0 9.8774e-09
1230.0 1.1293e-08
1250.0 1.2733e-08
1270.0 1.4155e-08
1290.0 1.5604e-08
1310.0 1.6991e-08
1330.0 1.8234e-08
1350.0 1.935e-08
1370.0 2.033e-08
1390.0 2.1091e-08
1410.0 2.1614e-08
1430.0 2.1968e-08
1450.0 2.2111e-08
1470.0 2.2025e-08
1490.0 2.1774e-08
1510.0 2.1415e-08
1530.0 2.0888e-08
1550.0 2.0262e-08
1570.0 1.9603e-08
1590.0 1.891e-08
1610.0 1.8182e-08
1630.0 1.7488e-08
1650.0 1.6836e-08
1670.0 1.6212e-08
1690.0 1.5637e-08
1710.0 1.514e-08
1730.0 1.4709e-08
1750.0 1.432e-08
1770.0 1.4009e-08
1790.0 1.377e-08
1810.0 1.3583e-08
1830.0 1.3452e-08
1850.0 1.3636e-08
1870.0 1.4058e-08
1890.0 1.4453e-08
1910.0 1.484e-08
1930.0 1.5219e-08
1950.0 1.5545e-08
1970.0 1.5854e-08
1990.0 1.6179e-08
2010.0 1.6501e-08
2030.0 1.6816e-08
2050.0 1.7144e-08
2070.0 1.7443e-08
2090.0 1.7709e-08
2110.0 1.7966e-08
2130.0 1.8224e-08
2150.0 1.8469e-08
2170.0 1.8695e-08
2190.0 1.8926e-08
2210.0 1.9328e-08
2230.0 1.9934e-08
2250.0 2.0558e-08
2270.0 2.1212e-08
2290.0 2.1871e-08
2310.0 2.2528e-08
2330.0 2.3204e-08
2350.0 2.3889e-08
2370.0 2.4564e-08
2390.0 2.5241e-08
2410.0 2.5932e-08
2430.0 2.661e-08
2450.0 2.7279e-08
2470.0 2.797e-08
2490.0 2.8702e-08
2510.0 2.9475e-08
2530.0 3.0378e-08
2550.0 3.1523e-08
2570.0 3.2989e-08
2590.0 3.4888e-08
2610.0 3.758e-08
2630.0 4.1182e-08
2650.0 4.5655e-08
2670.0 5.127e-08
2690.0 5.8202e-08
2710.0 6.5936e-08
2730.0 7.4182e-08
2750.0 8.3205e-08
2770.0 9.2197e-08
2790.0 1.0049e-07
2810.0 1.0817e-07
2830.0 1.1522e-07
2850.0 1.2085e-07
2870.0 1.2557e-07
2890.0 1.2975e-07
2910.0 1.3343e-07
2930.0 1.3667e-07
2950.0 1.3992e-07
2970.0 1.4321e-07
2990.0 1.4645e-07
3010.0 1.4977e-07
3030.0 1.5335e-07
3050.0 1.571e-07
3070.0 1.6084e-07
3090.0 1.6488e-07
3110.0 1.6926e-07
3130.0 1.7401e-07
3150.0 1.7817e-07
3170.0 1.8438e-07
3190.0 1.9284e-07
3210.0 2.0457e-07
3230.0 2.2142e-07
3250.0 2.4623e-07
3270.0 2.745e-07
3290.0 3.1167e-07
3310.0 3.7234e-07
3330.0 3.9456e-07
3350.0 4.0686e-07
3370.0 4.1898e-07
3390.0 4.3119e-07
3410.0 4.429e-07
3430.0 4.542e-07
3450.0 4.6535e-07
3470.0 4.7656e-07
3490.0 4.8646e-07
3510.0 4.9151e-07
3530.0 4.8285e-07
3550.0 4.7037e-07
3570.0 4.8363e-07
3590.0 5.3081e-07
3610.0 5.8477e-07
3630.0 6.2603e-07
3650.0 6.0819e-07
3670.0 5.5031e-07
3690.0 5.0742e-07
3710.0 5.0312e-07
3730.0 5.1966e-07
3750.0 5.2976e-07
3770.0 5.4758e-07
3790.0 5.6718e-07
3810.0 5.6716e-07
3830.0 5.273e-07
3850.0 4.8597e-07
3870.0 4.6542e-07
3890.0 4.6721e-07
3910.0 4.6241e-07
3930.0 4.5752e-07
3950.0 4.7275e-07
3970.0 4.9042e-07
3990.0 4.9228e-07
4010.0 4.7894e-07
4030.0 4.5284e-07
4050.0 4.345e-07
4070.0 4.1903e-07
4090.0 4.0893e-07
4110.0 3.9715e-07
4130.0 3.7477e-07
4150.0 3.5043e-07
4170.0 3.3586e-07
4190.0 3.1627e-07
4210.0 2.8541e-07
4230.0 2.5492e-07
4250.0 2.2456e-07
4270.0 2.0017e-07
4290.0 1.8598e-07
4310.0 1.7766e-07
4330.0 1.7711e-07
4350.0 1.8367e-07
4370.0 1.8533e-07
4390.0 1.9569e-07
4410.0 2.0258e-07
4430.0 1.9931e-07
4450.0 1.7949e-07
4470.0 1.6043e-07
4490.0 1.5177e-07
4510.0 1.4511e-07
4530.0 1.4142e-07
4550.0 1.3787e-07
4570.0 1.3692e-07
4590.0 1.3888e-07
4610.0 1.3983e-07
4630.0 1.4035e-07
4650.0 1.3925e-07
4670.0 1.3595e-07
4690.0 1.2624e-07
4710.0 1.1746e-07
4730.0 1.1043e-07
4750.0 1.0637e-07
4770.0 1.0779e-07
4790.0 1.0727e-07
4810.0 1.0506e-07
4830.0 1.0689e-07
4850.0 1.0954e-07
4870.0 1.1111e-07
4890.0 1.0936e-07
4910.0 1.0536e-07
4930.0 9.8999e-08
4950.0 9.1923e-08
4970.0 8.5679e-08
4990.0 8.0551e-08
5010.0 7.9795e-08
5030.0 8.2391e-08
5050.0 8.4279e-08
5070.0 8.7529e-08
5090.0 9.2765e-08
5110.0 9.397e-08
5130.0 9.4908e-08
5150.0 9.6289e-08
5170.0 9.7826e-08
5190.0 1.003e-07
5210.0 1.0065e-07
5230.0 9.9822e-08
5250.0 1.0006e-07
5270.0 1.0103e-07
5290.0 1.011e-07
5310.0 1.0049e-07
5330.0 9.841e-08
5350.0 9.7842e-08
5370.0 9.6617e-08
5390.0 9.4891e-08
5410.0 9.401e-08
5430.0 9.3441e-08
5450.0 9.5465e-08
5470.0 9.7264e-08
5490.0 1.0231e-07
5510.0 1.0517e-07
5530.0 1.0661e-07
5550.0 1.074e-07
5570.0 1.0918e-07
5590.0 1.0909e-07
5610.0 1.085e-07
5630.0 1.0845e-07
5650.0 1.0746e-07
5670.0 1.0516e-07
5690.0 1.0292e-07
5710.0 1.0115e-07
5730.0 1.03e-07
5750.0 9.8946e-08
5770.0 9.3593e-08
5790.0 8.8498e-08
5810.0 7.9691e-08
5830.0 8.4237e-08
5850.0 8.9753e-08
5870.0 9.0187e-08
5890.0 9.0519e-08
5910.0 9.2915e-08
5930.0 9.2108e-08
5950.0 9.1396e-08
5970.0 9.0488e-08
5990.0 9.0154e-08
6010.0 8.7111e-08
6030.0 8.4729e-08
6050.0 8.3271e-08
6070.0 8.1466e-08
6090.0 8.1213e-08
6110.0 7.9196e-08
6130.0 7.5938e-08
6150.0 7.326e-08
6170.0 7.0815e-08
6190.0 6.5455e-08
6210.0 6.3574e-08
6230.0 6.3447e-08
6250.0 6.2094e-08
6270.0 6.082e-08
6290.0 6.1326e-08
6310.0 6.2181e-08
6330.0 6.115e-08
6350.0 5.9061e-08
6370.0 5.847e-08
6390.0 5.6065e-08
6410.0 5.5138e-08
6430.0 5.312e-08
6450.0 5.2419e-08
6470.0 5.18e-08
6490.0 5.1345e-08
6510.0 4.9315e-08
6530.0 4.8466e-08
6550.0 4.7432e-08
6570.0 4.6051e-08
6590.0 4.6736e-08
6610.0 4.6557e-08
6630.0 4.5286e-08
6650.0 4.3473e-08
6670.0 4.2658e-08
6690.0 4.1801e-08
6710.0 4.0547e-08
6730.0 3.9946e-08
6750.0 4.0254e-08
6770.0 4.1608e-08
6790.0 4.3264e-08
6810.0 4.1757e-08
6830.0 3.9014e-08
6850.0 3.6837e-08
6870.0 3.6309e-08
6890.0 3.6205e-08
6910.0 3.6223e-08
6930.0 3.6009e-08
6950.0 3.643e-08
6970.0 3.5467e-08
6990.0 3.5154e-08
7010.0 3.5569e-08
7030.0 3.6209e-08
7050.0 3.5732e-08
7070.0 3.4076e-08
7090.0 3.3106e-08
7110.0 3.4015e-08
7130.0 3.4094e-08
7150.0 3.4483e-08
7170.0 3.4636e-08
7190.0 3.4999e-08
7210.0 3.5915e-08
7230.0 3.7345e-08
7250.0 3.7707e-08
7270.0 3.8202e-08
7290.0 3.9266e-08
7310.0 3.9071e-08
7330.0 3.8566e-08
7350.0 3.7582e-08
7370.0 3.7908e-08
7390.0 3.8844e-08
7410.0 3.7468e-08
7430.0 3.8162e-08
7450.0 3.8307e-08
7470.0 3.9772e-08
7490.0 3.98e-08
7510.0 3.8641e-08
7530.0 3.9643e-08
7550.0 3.8707e-08
7570.0 3.8795e-08
7590.0 3.7179e-08
7610.0 3.8206e-08
7630.0 3.9409e-08
7650.0 4.094e-08
7670.0 3.9403e-08
7690.0 4.1571e-08
7710.0 4.2673e-08
7730.0 4.3515e-08
7750.0 4.534e-08
7770.0 4.505e-08
7790.0 4.4782e-08
7810.0 4.6188e-08
7830.0 4.8866e-08
7850.0 4.8511e-08
7870.0 5.0707e-08
7890.0 5.0266e-08
7910.0 4.996e-08
7930.0 4.9876e-08
7950.0 5.2517e-08
7970.0 5.2218e-08
7990.0 4.8806e-08
8010.0 3.1228e-08
8030.0 3.3235e-08
8050.0 3.4714e-08
8070.0 2.9897e-08
8090.0 1.3312e-08
8110.0 1.5659e-08
8130.0 2.8599e-08
8150.0 3.0711e-08
8170.0 3.1754e-08
8190.0 3.141e-08
8210.0 3.2185e-08
8230.0 3.6851e-08
8250.0 3.8507e-08
8270.0 3.4421e-08
8290.0 3.2076e-08
8310.0 3.2623e-08
8330.0 3.7033e-08
8350.0 3.8874e-08
8370.0 3.708e-08
8390.0 3.5095e-08
8410.0 3.5263e-08
8430.0 3.2588e-08
8450.0 3.4785e-08
8470.0 3.7854e-08
8490.0 3.7966e-08
8510.0 3.5348e-08
8530.0 3.1283e-08
8550.0 2.936e-08
8570.0 2.861e-08
8590.0 2.9373e-08
8610.0 3.2533e-08
8630.0 3.2568e-08
8650.0 3.3277e-08
8670.0 3.1374e-08
8690.0 3.0717e-08
8710.0 2.727e-08
8730.0 2.6793e-08
8750.0 2.9253e-08
8770.0 3.0276e-08
8790.0 2.8446e-08
8810.0 3.0007e-08
8830.0 3.1559e-08
8850.0 3.254e-08
8870.0 3.0224e-08
8890.0 2.9283e-08
8910.0 2.8707e-08
8930.0 2.5068e-08
8950.0 2.5438e-08
8970.0 2.6081e-08
8990.0 2.475e-08
9010.0 2.3376e-08
9030.0 2.2782e-08
9050.0 2.2543e-08
9070.0 2.2328e-08
9090.0 2.2111e-08
9110.0 2.1892e-08
9130.0 2.1673e-08
9150.0 2.1454e-08
9170.0 2.1235e-08
9190.0 2.1016e-08
9210.0 2.0796e-08
9230.0 2.0577e-08
9250.0 2.0357e-08
9270.0 2.0139e-08
9290.0 1.9921e-08
9310.0 1.9691e-08
9330.0 1.9442e-08
9350.0 1.9195e-08
9370.0 1.8949e-08
9390.0 1.8706e-08
9410.0 1.8464e-08
9430.0 1.8224e-08
9450.0 1.7987e-08
9470.0 1.7746e-08
9490.0 1.751e-08
9510.0 1.7283e-08
9530.0 1.7058e-08
9550.0 1.6834e-08
9570.0 1.6611e-08
9590.0 1.6392e-08
9610.0 1.6152e-08
9630.0 1.5912e-08
9650.0 1.5676e-08
9670.0 1.5445e-08
9690.0 1.5216e-08
9710.0 1.4989e-08
9730.0 1.4767e-08
9750.0 1.4549e-08
9770.0 1.4331e-08
9790.0 1.4119e-08
9810.0 1.3911e-08
9830.0 1.3705e-08
9850.0 1.351e-08
9870.0 1.3327e-08
9890.0 1.3122e-08
9910.0 1.2923e-08
9930.0 1.2734e-08
9950.0 1.2547e-08
9970.0 1.2362e-08
9990.0 1.2181e-08
10010.0 1.2005e-08
10030.0 1.1831e-08
10050.0 1.1661e-08
10070.0 1.1494e-08
10090.0 1.133e-08
10110.0 1.1169e-08
10130.0 1.1011e-08
10150.0 1.0856e-08
10170.0 1.0704e-08
10190.0 1.0554e-08
10210.0 1.0408e-08
10230.0 1.0264e-08
10250.0 1.0122e-08
10270.0 9.9834e-09
10290.0 9.8476e-09
10310.0 9.7138e-09
10330.0 9.5823e-09
10350.0 9.4535e-09
10370.0 9.3272e-09
10390.0 9.2011e-09
10410.0 9.0563e-09
10430.0 8.9069e-09
10450.0 8.8146e-09
10470.0 8.7103e-09
10490.0 8.6055e-09
10510.0 8.5001e-09
10530.0 8.3909e-09
10550.0 8.2841e-09
10570.0 8.1808e-09
10590.0 8.077e-09
10610.0 7.9738e-09
10630.0 7.8749e-09
10650.0 7.7773e-09
10670.0 7.6785e-09
10690.0 7.5829e-09
10710.0 7.4904e-09
10730.0 7.3974e-09
10750.0 7.304e-09
10770.0 7.2162e-09
10790.0 7.1288e-09
10810.0 7.0408e-09
10830.0 6.9553e-09
10850.0 6.8733e-09
10870.0 6.7888e-09
10890.0 6.7061e-09
10910.0 6.6276e-09
10930.0 6.5504e-09
10950.0 6.4738e-09
10970.0 6.4016e-09
10990.0 6.3346e-09
11010.0 1.633e-08
11030.0 1.6213e-08
11050.0 1.6093e-08
11070.0 1.5967e-08
11090.0 1.5831e-08
11110.0 1.5697e-08
11130.0 1.5561e-08
11150.0 1.5421e-08
11170.0 1.5278e-08
11190.0 1.5139e-08
11210.0 1.4997e-08
11230.0 1.4852e-08
11250.0 1.4711e-08
11270.0 1.4573e-08
11290.0 1.4434e-08
11310.0 1.4297e-08
11330.0 1.4171e-08
11350.0 1.4046e-08
11370.0 1.3925e-08
11390.0 1.3812e-08
11410.0 1.3704e-08
11430.0 1.3597e-08
11450.0 1.3496e-08
11470.0 1.3401e-08
11490.0 1.3306e-08
11510.0 1.3212e-08
11530.0 1.3121e-08
11550.0 1.3032e-08
11570.0 1.294e-08
11590.0 1.2848e-08
11610.0 1.2758e-08
11630.0 1.2664e-08
11650.0 1.2566e-08
11670.0 1.247e-08
11690.0 1.2373e-08
11710.0 1.2271e-08
11730.0 1.217e-08
11750.0 1.207e-08
11770.0 1.1967e-08
11790.0 1.1863e-08
11810.0 1.1761e-08
11830.0 1.166e-08
11850.0 1.1556e-08
11870.0 1.1456e-08
11890.0 1.1361e-08
11910.0 1.1266e-08
11930.0 1.1174e-08
11950.0 1.1088e-08
11970.0 1.1005e-08
11990.0 1.0924e-08
12010.0 1.0849e-08
12030.0 1.078e-08
12050.0 1.0714e-08
12070.0 1.0652e-08
12090.0 1.0597e-08
12110.0 1.0546e-08
12130.0 1.0498e-08
12150.0 1.0455e-08
12170.0 1.0415e-08
12190.0 1.0377e-08
12210.0 1.0341e-08
12230.0 1.0307e-08
12250.0 1.0273e-08
12270.0 1.0238e-08
12290.0 1.0202e-08
12310.0 1.0165e-08
12330.0 1.0123e-08
12350.0 1.0078e-08
12370.0 1.0031e-08
12390.0 9.9785e-09
12410.0 9.9191e-09
12430.0 9.8575e-09
12450.0 9.792e-09
12470.0 9.7203e-09
12490.0 9.6442e-09
12510.0 9.5672e-09
12530.0 9.4849e-09
12550.0 9.3975e-09
12570.0 9.3099e-09
12590.0 9.2212e-09
12610.0 9.1273e-09
12630.0 9.0324e-09
12650.0 8.9414e-09
12670.0 8.848e-09
12690.0 8.7534e-09
12710.0 8.6626e-09
12730.0 8.5742e-09
12750.0 8.4832e-09
12770.0 8.3967e-09
12790.0 8.3152e-09
12810.0 8.2352e-09
12830.0 8.1569e-09
12850.0 8.0856e-09
12870.0 8.0186e-09
12890.0 7.9535e-09
12910.0 7.8938e-09
12930.0 7.8403e-09
12950.0 7.79e-09
12970.0 7.7441e-09
12990.0 7.7054e-09
13010.0 7.6718e-09
13030.0 7.6427e-09
13050.0 7.6191e-09
13070.0 7.6008e-09
13090.0 7.5861e-09
13110.0 7.5752e-09
13130.0 7.5674e-09
13150.0 7.5616e-09
13170.0 7.5568e-09
13190.0 7.5522e-09
13210.0 7.547e-09
13230.0 7.54e-09
13250.0 7.5307e-09
13270.0 7.5187e-09
13290.0 7.5034e-09
13310.0 7.4837e-09
13330.0 7.4605e-09
13350.0 7.4338e-09
13370.0 7.4022e-09
13390.0 7.3658e-09
13410.0 7.3276e-09
13430.0 7.2851e-09
13450.0 7.2378e-09
13470.0 7.188e-09
13490.0 7.1367e-09
13510.0 7.0791e-09
13530.0 7.0194e-09
13550.0 6.9598e-09
13570.0 6.8973e-09
13590.0 6.8312e-09
13610.0 6.7658e-09
13630.0 6.701e-09
13650.0 6.6325e-09
13670.0 6.5637e-09
13690.0 6.4969e-09
13710.0 6.4287e-09
13730.0 6.3572e-09
13750.0 6.2899e-09
13770.0 6.2236e-09
13790.0 6.1558e-09
13810.0 6.0892e-09
13830.0 6.0266e-09
13850.0 5.9631e-09
13870.0 5.8997e-09
13890.0 5.8402e-09
13910.0 5.7829e-09
13930.0 5.725e-09
13950.0 5.6694e-09
13970.0 5.6187e-09
13990.0 5.5682e-09
14010.0 5.5189e-09
14030.0 5.4734e-09
14050.0 5.4303e-09
14070.0 5.3868e-09
14090.0 5.3467e-09
14110.0 5.3099e-09
14130.0 5.2742e-09
14150.0 5.2395e-09
14170.0 5.2085e-09
14190.0 5.1791e-09
14210.0 5.15e-09
14230.0 5.1228e-09
14250.0 5.0976e-09
14270.0 5.0723e-09
14290.0 5.0475e-09
14310.0 5.0248e-09
14330.0 5.0026e-09
14350.0 4.9802e-09
14370.0 4.9589e-09
14390.0 4.939e-09
14410.0 4.9186e-09
14430.0 4.8986e-09
14450.0 4.8799e-09
14470.0 4.8615e-09
14490.0 4.8425e-09
14510.0 4.8246e-09
14530.0 4.8074e-09
14550.0 4.7897e-09
14570.0 4.7719e-09
14590.0 4.755e-09
14610.0 4.7375e-09
14630.0 4.7191e-09
14650.0 4.7012e-09
14670.0 4.6835e-09
14690.0 4.6647e-09
14710.0 4.6453e-09
14730.0 4.627e-09
14750.0 4.6078e-09
14770.0 4.5875e-09
14790.0 4.5674e-09
14810.0 4.5474e-09
14830.0 4.5254e-09
14850.0 4.5032e-09
14870.0 4.4815e-09
14890.0 4.4592e-09
14910.0 4.436e-09
14930.0 4.4142e-09
14950.0 4.3938e-09
14970.0 4.3736e-09
14990.0 4.3555e-09
15010.0 4.3401e-09
15030.0 4.3264e-09
15050.0 4.314e-09
15070.0 4.3042e-09
15090.0 4.2954e-09
15110.0 4.2871e-09
15130.0 4.2793e-09
15150.0 4.2721e-09
15170.0 4.2647e-09
15190.0 4.2571e-09
15210.0 4.2498e-09
15230.0 4.2426e-09
15250.0 4.2349e-09
15270.0 4.2272e-09
15290.0 4.22e-09
15310.0 4.2124e-09
15330.0 4.2046e-09
15350.0 4.197e-09
15370.0 4.1895e-09
15390.0 4.1814e-09
15410.0 4.1734e-09
15430.0 4.1658e-09
15450.0 4.1577e-09
15470.0 4.1494e-09
15490.0 4.1416e-09
15510.0 4.1336e-09
15530.0 4.1252e-09
15550.0 4.1169e-09
15570.0 4.1089e-09
15590.0 4.1003e-09
15610.0 4.0916e-09
15630.0 4.0833e-09
15650.0 4.0748e-09
15670.0 4.0659e-09
15690.0 4.0572e-09
15710.0 4.0488e-09
15730.0 4.0398e-09
15750.0 4.0307e-09
15770.0 4.022e-09
15790.0 4.0131e-09
15810.0 4.0036e-09
15830.0 3.9944e-09
15850.0 3.9855e-09
15870.0 3.9761e-09
15890.0 3.9666e-09
15910.0 3.9575e-09
15930.0 3.948e-09
15950.0 3.9382e-09
15970.0 3.9286e-09
15990.0 3.9191e-09
16010.0 3.9092e-09
16030.0 3.8992e-09
16050.0 3.8896e-09
16070.0 3.8798e-09
16090.0 3.8696e-09
16110.0 3.8596e-09
16130.0 3.8498e-09
16150.0 3.8393e-09
16170.0 3.8289e-09
16190.0 3.8189e-09
16210.0 3.8086e-09
16230.0 3.7979e-09
16250.0 3.7876e-09
16270.0 3.7774e-09
16290.0 3.7666e-09
16310.0 3.7559e-09
16330.0 3.7455e-09
16350.0 3.7348e-09
16370.0 3.7235e-09
16390.0 3.7129e-09
16410.0 3.7022e-09
16430.0 3.6911e-09
16450.0 3.6801e-09
16470.0 3.6694e-09
16490.0 3.6583e-09
16510.0 3.6469e-09
16530.0 3.6359e-09
16550.0 3.6248e-09
16570.0 3.6133e-09
16590.0 3.6019e-09
16610.0 3.5909e-09
16630.0 3.5795e-09
16650.0 3.568e-09
16670.0 3.5567e-09
16690.0 3.5455e-09
16710.0 3.5336e-09
16730.0 3.522e-09
16750.0 3.5107e-09
16770.0 3.499e-09
16790.0 3.4871e-09
16810.0 3.4757e-09
16830.0 3.4642e-09
16850.0 3.4522e-09
16870.0 3.4405e-09
16890.0 3.429e-09
16910.0 3.417e-09
16930.0 3.4049e-09
16950.0 3.3933e-09
16970.0 3.3815e-09
16990.0 3.3694e-09
17010.0 3.3575e-09
17030.0 3.3459e-09
17050.0 3.3338e-09
17070.0 3.3217e-09
17090.0 3.3099e-09
17110.0 3.298e-09
17130.0 3.2856e-09
17150.0 3.2736e-09
17170.0 3.2618e-09
17190.0 3.2496e-09
17210.0 3.2375e-09
17230.0 3.2257e-09
17250.0 3.2136e-09
17270.0 3.2012e-09
17290.0 3.1892e-09
17310.0 3.1773e-09
17330.0 3.165e-09
17350.0 3.1526e-09
17370.0 3.1408e-09
17390.0 3.1288e-09
17410.0 3.1164e-09
17430.0 3.1044e-09
17450.0 3.0926e-09
17470.0 3.08e-09
17490.0 3.0678e-09
17510.0 3.0559e-09
17530.0 3.0437e-09
17550.0 3.0314e-09
17570.0 3.0194e-09
17590.0 3.0075e-09
17610.0 2.9952e-09
17630.0 2.983e-09
17650.0 2.9711e-09
17670.0 2.959e-09
17690.0 2.9464e-09
17710.0 2.9345e-09
17730.0 2.9226e-09
17750.0 2.9103e-09
17770.0 2.8982e-09
17790.0 2.8865e-09
17810.0 2.8743e-09
17830.0 2.862e-09
17850.0 2.8501e-09
17870.0 2.8382e-09
17890.0 2.8259e-09
17910.0 2.8138e-09
17930.0 2.8021e-09
17950.0 2.7901e-09
17970.0 2.7779e-09
17990.0 2.7662e-09
18010.0 2.7544e-09
18030.0 2.7421e-09
18050.0 2.7301e-09
18070.0 2.7184e-09
18090.0 2.7065e-09
18110.0 2.6943e-09
18130.0 2.6827e-09
18150.0 2.671e-09
18170.0 2.659e-09
18190.0 2.6472e-09
18210.0 2.6356e-09
18230.0 2.6236e-09
18250.0 2.6116e-09
18270.0 2.6001e-09
18290.0 2.5884e-09
18310.0 2.5765e-09
18330.0 2.5649e-09
18350.0 2.5535e-09
18370.0 2.5416e-09
18390.0 2.5298e-09
18410.0 2.5184e-09
18430.0 2.5069e-09
18450.0 2.4949e-09
18470.0 2.4834e-09
18490.0 2.4721e-09
18510.0 2.4604e-09
18530.0 2.4488e-09
18550.0 2.4376e-09
18570.0 2.4261e-09
18590.0 2.4144e-09
18610.0 2.403e-09
18630.0 2.3918e-09
18650.0 2.3802e-09
18670.0 2.3686e-09
18690.0 2.3576e-09
18710.0 2.3463e-09
18730.0 2.3348e-09
18750.0 2.3236e-09
18770.0 2.3126e-09
18790.0 2.3009e-09
18810.0 2.2896e-09
18830.0 2.2786e-09
18850.0 2.2674e-09
18870.0 2.256e-09
18890.0 2.245e-09
18910.0 2.2341e-09
18930.0 2.2228e-09
18950.0 2.2116e-09
18970.0 2.2008e-09
18990.0 2.1897e-09
19010.0 2.1782e-09
19030.0 2.1674e-09
19050.0 2.1566e-09
19070.0 2.1454e-09
19090.0 2.1344e-09
19110.0 2.1239e-09
19130.0 2.1128e-09
19150.0 2.1016e-09
19170.0 2.0909e-09
19190.0 2.0802e-09
19210.0 2.069e-09
19230.0 2.0581e-09
19250.0 2.0477e-09
19270.0 2.0368e-09
19290.0 2.0259e-09
19310.0 2.0153e-09
19330.0 2.0047e-09
19350.0 1.9936e-09
19370.0 1.9829e-09
19390.0 1.9725e-09
19410.0 1.9617e-09
19430.0 1.9508e-09
19450.0 1.9405e-09
19470.0 1.93e-09
19490.0 1.9192e-09
19510.0 1.9086e-09
19530.0 1.8983e-09
19550.0 1.8875e-09
19570.0 1.8767e-09
19590.0 1.8665e-09
19610.0 1.856e-09
19630.0 1.8453e-09
19650.0 1.8349e-09
19670.0 1.8248e-09
19690.0 1.8141e-09
19710.0 1.8035e-09
19730.0 1.7933e-09
19750.0 1.7829e-09
19770.0 1.7722e-09
19790.0 1.7619e-09
19810.0 1.7518e-09
19830.0 1.7413e-09
19850.0 1.7309e-09
19870.0 1.721e-09
19890.0 1.7108e-09
19910.0 1.7006e-09
19930.0 1.691e-09
19950.0 1.682e-09
19970.0 1.6734e-09
19990.0 1.6656e-09
20010.0 1.6591e-09
20030.0 1.6534e-09
20050.0 1.6485e-09
20070.0 1.6446e-09
20090.0 1.6415e-09
20110.0 1.6386e-09
20130.0 1.6363e-09
20150.0 1.6342e-09
20170.0 1.6322e-09
20190.0 1.6302e-09
20210.0 1.6283e-09
20230.0 1.6264e-09
20250.0 1.6243e-09
20270.0 1.6223e-09
20290.0 1.6201e-09
20310.0 1.6179e-09
20330.0 1.6154e-09
20350.0 1.613e-09
20370.0 1.6104e-09
20390.0 1.6076e-09
20410.0 1.6047e-09
20430.0 1.6018e-09
20450.0 1.5986e-09
20470.0 1.5954e-09
20490.0 1.5923e-09
20510.0 1.589e-09
20530.0 1.5857e-09
20550.0 1.5825e-09
20570.0 1.5794e-09
20590.0 1.5763e-09
20610.0 1.5732e-09
20630.0 1.5703e-09
20650.0 1.5674e-09
20670.0 1.5645e-09
20690.0 1.5616e-09
20710.0 1.5588e-09
20730.0 1.5559e-09
20750.0 1.5528e-09
20770.0 1.5498e-09
20790.0 1.5465e-09
20810.0 1.5428e-09
20830.0 1.539e-09
20850.0 1.5351e-09
20870.0 1.5306e-09
20890.0 1.5258e-09
20910.0 1.5209e-09
20930.0 1.5157e-09
20950.0 1.5101e-09
20970.0 1.5044e-09
20990.0 1.4985e-09
21010.0 1.4923e-09
21030.0 1.486e-09
21050.0 1.4798e-09
21070.0 1.4735e-09
21090.0 1.4669e-09
21110.0 1.4606e-09
21130.0 1.4544e-09
21150.0 1.4481e-09
21170.0 1.4418e-09
21190.0 1.4357e-09
21210.0 1.4295e-09
21230.0 1.4231e-09
21250.0 1.4169e-09
21270.0 1.4106e-09
21290.0 1.4041e-09
21310.0 1.3975e-09
21330.0 1.391e-09
21350.0 1.3841e-09
21370.0 1.377e-09
21390.0 1.3716e-09
21410.0 1.366e-09
21430.0 1.36e-09
21450.0 1.3541e-09
21470.0 1.3482e-09
21490.0 1.342e-09
21510.0 1.3356e-09
21530.0 1.3294e-09
21550.0 1.3231e-09
21570.0 1.3164e-09
21590.0 1.3099e-09
21610.0 1.3035e-09
21630.0 1.2968e-09
21650.0 1.2899e-09
21670.0 1.2836e-09
21690.0 1.2771e-09
21710.0 1.2705e-09
21730.0 1.2641e-09
21750.0 1.2579e-09
21770.0 1.2513e-09
21790.0 1.2449e-09
21810.0 1.2387e-09
21830.0 1.2324e-09
21850.0 1.226e-09
21870.0 1.2197e-09
21890.0 1.2137e-09
21910.0 1.2075e-09
21930.0 1.2013e-09
21950.0 1.1954e-09
21970.0 1.1894e-09
21990.0 1.1833e-09
22010.0 1.1776e-09
22030.0 1.1721e-09
22050.0 1.1666e-09
22070.0 1.1608e-09
22090.0 1.1546e-09
22110.0 1.1486e-09
22130.0 1.1426e-09
22150.0 1.1371e-09
22170.0 1.1319e-09
22190.0 1.1267e-09
22210.0 1.1218e-09
22230.0 1.1174e-09
22250.0 1.113e-09
22270.0 1.1088e-09
22290.0 1.1049e-09
22310.0 1.1012e-09
22330.0 1.0974e-09
22350.0 1.0937e-09
22370.0 1.0902e-09
22390.0 1.0867e-09
22410.0 1.0831e-09
22430.0 1.0796e-09
22450.0 1.0761e-09
22470.0 1.0725e-09
22490.0 1.0689e-09
22510.0 1.0654e-09
22530.0 1.0616e-09
22550.0 1.0578e-09
22570.0 1.0542e-09
22590.0 1.0505e-09
22610.0 1.0467e-09
22630.0 1.043e-09
