#lamb flux
1010.0 1.7816e-09
1030.0 1.9704e-09
1050.0 2.1877e-09
1070.0 2.4322e-09
1090.0 2.7099e-09
1110.0 2.9948e-09
1130.0 3.2815e-09
1150.0 3.5819e-09
1170.0 3.8917e-09
1190.0 4.1855e-09
1210.0 4.4832e-09
1230.0 4.7909e-09
1250.0 5.0923e-09
1270.0 5.3851e-09
1290.0 5.6944e-09
1310.0 6.0035e-09
1330.0 6.2999e-09
1350.0 6.5997e-09
1370.0 6.9092e-09
1390.0 7.211e-09
1410.0 7.5038e-09
1430.0 7.8099e-09
1450.0 8.116e-09
1470.0 8.4118e-09
1490.0 8.7109e-09
1510.0 9.0268e-09
1530.0 9.3262e-09
1550.0 9.6216e-09
1570.0 9.9272e-09
1590.0 1.0233e-08
1610.0 1.0526e-08
1630.0 1.0827e-08
1650.0 1.1137e-08
1670.0 1.1437e-08
1690.0 1.1733e-08
1710.0 1.2041e-08
1730.0 1.235e-08
1750.0 1.2642e-08
1770.0 1.2942e-08
1790.0 1.3249e-08
1810.0 1.3546e-08
1830.0 1.3839e-08
1850.0 1.415e-08
1870.0 1.4453e-08
1890.0 1.4747e-08
1910.0 1.5047e-08
1930.0 1.5355e-08
1950.0 1.565e-08
1970.0 1.5942e-08
1990.0 1.6245e-08
2010.0 1.6544e-08
2030.0 1.6833e-08
2050.0 1.7132e-08
2070.0 1.7439e-08
2090.0 1.7729e-08
2110.0 1.8019e-08
2130.0 1.8318e-08
2150.0 1.8612e-08
2170.0 1.8894e-08
2190.0 1.9187e-08
2210.0 1.9483e-08
2230.0 1.9767e-08
2250.0 2.005e-08
2270.0 2.0346e-08
2290.0 2.0633e-08
2310.0 2.091e-08
2330.0 2.1197e-08
2350.0 2.1492e-08
2370.0 2.1786e-08
2390.0 2.2105e-08
2410.0 2.2482e-08
2430.0 2.2916e-08
2450.0 2.3434e-08
2470.0 2.4099e-08
2490.0 2.4936e-08
2510.0 2.5888e-08
2530.0 2.7034e-08
2550.0 2.8468e-08
2570.0 3.0253e-08
2590.0 3.2574e-08
2610.0 3.6049e-08
2630.0 4.101e-08
2650.0 4.7498e-08
2670.0 5.5885e-08
2690.0 6.6193e-08
2710.0 7.7195e-08
2730.0 8.8067e-08
2750.0 9.8775e-08
2770.0 1.0809e-07
2790.0 1.1549e-07
2810.0 1.2136e-07
2830.0 1.2594e-07
2850.0 1.2907e-07
2870.0 1.3137e-07
2890.0 1.3319e-07
2910.0 1.3464e-07
2930.0 1.3583e-07
2950.0 1.3696e-07
2970.0 1.3807e-07
2990.0 1.3911e-07
3010.0 3.9319e-06
3030.0 3.9613e-06
3050.0 3.9897e-06
3070.0 4.014e-06
3090.0 4.0349e-06
3110.0 4.0479e-06
3130.0 4.0474e-06
3150.0 4.0294e-06
3170.0 3.9863e-06
3190.0 3.9185e-06
3210.0 3.8326e-06
3230.0 3.7342e-06
3250.0 3.6371e-06
3270.0 3.5661e-06
3290.0 3.5267e-06
3310.0 3.5331e-06
3330.0 3.5842e-06
3350.0 3.6733e-06
3370.0 3.8004e-06
3390.0 3.9606e-06
3410.0 4.135e-06
3430.0 4.3308e-06
3450.0 4.5561e-06
3470.0 4.8023e-06
3490.0 5.0631e-06
3510.0 5.3579e-06
3530.0 5.6736e-06
3550.0 5.9932e-06
3570.0 6.3266e-06
3590.0 6.6892e-06
3610.0 7.0628e-06
3630.0 7.4353e-06
3650.0 7.8218e-06
3670.0 8.1746e-06
3690.0 8.4383e-06
3710.0 8.5895e-06
3730.0 8.5945e-06
3750.0 8.4749e-06
3770.0 8.4279e-06
3790.0 8.3778e-06
3810.0 8.1719e-06
3830.0 8.4249e-06
3850.0 9.42e-06
3870.0 9.9662e-06
3890.0 9.9207e-06
3910.0 9.963e-06
3930.0 1.0225e-05
3950.0 1.0387e-05
3970.0 9.4633e-06
3990.0 8.1427e-06
4010.0 2.4405e-05
4030.0 2.957e-05
4050.0 3.39e-05
4070.0 2.9414e-05
4090.0 2.664e-05
4110.0 2.3507e-05
4130.0 2.1636e-05
4150.0 2.3014e-05
4170.0 2.267e-05
4190.0 2.4165e-05
4210.0 2.3944e-05
4230.0 2.5326e-05
4250.0 2.9961e-05
4270.0 3.0314e-05
4290.0 2.7934e-05
4310.0 2.9025e-05
4330.0 3.0874e-05
4350.0 3.4617e-05
4370.0 3.9395e-05
4390.0 3.6968e-05
4410.0 2.7313e-05
4430.0 2.3122e-05
4450.0 2.1247e-05
4470.0 1.6308e-05
4490.0 1.7598e-05
4510.0 2.6582e-05
4530.0 3.0657e-05
4550.0 3.0923e-05
4570.0 3.4796e-05
4590.0 3.9636e-05
4610.0 5.346e-05
4630.0 6.9433e-05
4650.0 7.5299e-05
4670.0 6.9734e-05
4690.0 6.6539e-05
4710.0 7.0336e-05
4730.0 6.6378e-05
4750.0 4.9626e-05
4770.0 3.6402e-05
4790.0 3.3993e-05
4810.0 3.24e-05
4830.0 2.9662e-05
4850.0 3.2549e-05
4870.0 4.3001e-05
4890.0 5.071e-05
4910.0 4.4492e-05
4930.0 3.9369e-05
4950.0 4.3252e-05
4970.0 5.5468e-05
4990.0 7.5173e-05
5010.0 8.6477e-05
5030.0 7.6252e-05
5050.0 5.159e-05
5070.0 3.4e-05
5090.0 2.7416e-05
5110.0 2.8194e-05
5130.0 3.2541e-05
5150.0 3.5255e-05
5170.0 3.4726e-05
5190.0 3.245e-05
5210.0 3.3917e-05
5230.0 3.5655e-05
5250.0 3.8426e-05
5270.0 4.1459e-05
5290.0 4.5945e-05
5310.0 5.3479e-05
5330.0 5.9182e-05
5350.0 5.8804e-05
5370.0 6.1769e-05
5390.0 7.0881e-05
5410.0 7.0817e-05
5430.0 6.2628e-05
5450.0 5.7541e-05
5470.0 6.1098e-05
5490.0 7.4645e-05
5510.0 9.3333e-05
5530.0 0.00010705
5550.0 0.00010346
5570.0 9.4056e-05
5590.0 8.1784e-05
5610.0 7.5423e-05
5630.0 7.3137e-05
5650.0 6.9656e-05
5670.0 6.6005e-05
5690.0 5.9009e-05
5710.0 5.7535e-05
5730.0 5.2998e-05
5750.0 3.7367e-05
5770.0 2.9152e-05
5790.0 3.3036e-05
5810.0 3.7304e-05
5830.0 4.5777e-05
5850.0 5.4492e-05
5870.0 6.046e-05
5890.0 6.1485e-05
5910.0 6.0321e-05
5930.0 5.7419e-05
5950.0 5.8509e-05
5970.0 6.6694e-05
5990.0 6.271e-05
6010.0 5.257e-05
6030.0 4.4414e-05
6050.0 3.8679e-05
6070.0 3.8467e-05
6090.0 4.1712e-05
6110.0 4.664e-05
6130.0 4.7355e-05
6150.0 4.0744e-05
6170.0 3.5843e-05
6190.0 4.0336e-05
6210.0 5.3323e-05
6230.0 6.9975e-05
6250.0 7.5793e-05
6270.0 6.6233e-05
6290.0 5.5725e-05
6310.0 4.3503e-05
6330.0 3.3332e-05
6350.0 2.9731e-05
6370.0 3.1265e-05
6390.0 3.6144e-05
6410.0 4.4568e-05
6430.0 5.2043e-05
6450.0 5.955e-05
6470.0 6.8186e-05
6490.0 8.2365e-05
6510.0 9.2094e-05
6530.0 9.035e-05
6550.0 8.1701e-05
6570.0 6.9357e-05
6590.0 6.2541e-05
6610.0 5.3926e-05
6630.0 4.8855e-05
6650.0 4.6182e-05
6670.0 4.4865e-05
6690.0 4.0538e-05
6710.0 3.685e-05
6730.0 2.6542e-05
6750.0 2.6314e-05
6770.0 2.8601e-05
6790.0 3.2875e-05
6810.0 3.0081e-05
6830.0 3.0975e-05
6850.0 2.8972e-05
6870.0 2.6466e-05
6890.0 2.5411e-05
6910.0 2.7079e-05
6930.0 2.5363e-05
6950.0 2.6095e-05
6970.0 2.7447e-05
6990.0 3.1154e-05
7010.0 3.142e-05
7030.0 3.1919e-05
7050.0 3.044e-05
7070.0 2.9004e-05
7090.0 2.9088e-05
7110.0 2.993e-05
7130.0 3.2209e-05
7150.0 3.4209e-05
7170.0 3.7747e-05
7190.0 4.1494e-05
7210.0 4.0774e-05
7230.0 4.1916e-05
7250.0 4.5046e-05
7270.0 4.9089e-05
7290.0 5.8263e-05
7310.0 6.3221e-05
7330.0 6.1108e-05
7350.0 5.5269e-05
7370.0 4.8089e-05
7390.0 4.6652e-05
7410.0 4.9577e-05
7430.0 5.5099e-05
7450.0 6.0013e-05
7470.0 5.9461e-05
7490.0 5.4217e-05
7510.0 6.1415e-05
7530.0 6.0742e-05
7550.0 5.4596e-05
7570.0 4.265e-05
7590.0 2.932e-05
7610.0 2.5166e-05
7630.0 2.8593e-05
7650.0 3.3807e-05
7670.0 4.2075e-05
7690.0 4.6301e-05
7710.0 4.8251e-05
7730.0 5.0706e-05
7750.0 5.6923e-05
7770.0 5.7818e-05
7790.0 5.3108e-05
7810.0 4.8458e-05
7830.0 4.9971e-05
7850.0 4.8576e-05
7870.0 4.4536e-05
7890.0 3.7419e-05
7910.0 3.0417e-05
7930.0 2.9043e-05
7950.0 2.6459e-05
7970.0 2.4493e-05
7990.0 2.4353e-05
8010.0 1.8037e-06
8030.0 1.7802e-06
8050.0 1.7562e-06
8070.0 1.7792e-06
8090.0 1.9117e-06
8110.0 1.8791e-06
8130.0 1.55e-06
8150.0 1.5096e-06
8170.0 1.3003e-06
8190.0 1.2323e-06
8210.0 1.6002e-06
8230.0 1.7817e-06
8250.0 1.6058e-06
8270.0 1.3976e-06
8290.0 1.3624e-06
8310.0 1.0486e-06
8330.0 7.0673e-07
8350.0 5.0156e-07
8370.0 3.1601e-07
8390.0 5.7765e-07
8410.0 6.7312e-07
8430.0 8.2972e-07
8450.0 9.7432e-07
8470.0 1.211e-06
8490.0 1.2025e-06
8510.0 1.1828e-06
8530.0 1.2344e-06
8550.0 1.6655e-06
8570.0 1.9717e-06
8590.0 2.1275e-06
8610.0 2.6874e-06
8630.0 3.2374e-06
8650.0 3.3867e-06
8670.0 3.599e-06
8690.0 3.6191e-06
8710.0 3.2776e-06
8730.0 3.0487e-06
8750.0 2.6911e-06
8770.0 2.5534e-06
8790.0 2.5086e-06
8810.0 2.4038e-06
8830.0 1.9222e-06
8850.0 1.4072e-06
8870.0 1.0775e-06
8890.0 1.0534e-06
8910.0 1.2072e-06
8930.0 1.3731e-06
8950.0 1.3994e-06
8970.0 1.406e-06
8990.0 1.254e-06
9010.0 1.3141e-05
9030.0 1.1908e-05
9050.0 1.1965e-05
9070.0 1.2059e-05
9090.0 1.2142e-05
9110.0 1.2245e-05
9130.0 1.2323e-05
9150.0 1.2385e-05
9170.0 1.245e-05
9190.0 1.252e-05
9210.0 1.2594e-05
9230.0 1.2671e-05
9250.0 1.275e-05
9270.0 1.2832e-05
9290.0 1.2916e-05
9310.0 1.3001e-05
9330.0 1.3087e-05
9350.0 1.3177e-05
9370.0 1.3268e-05
9390.0 1.336e-05
9410.0 1.3454e-05
9430.0 1.3551e-05
9450.0 1.3648e-05
9470.0 1.3747e-05
9490.0 1.3848e-05
9510.0 1.3951e-05
9530.0 1.4054e-05
9550.0 1.4161e-05
9570.0 1.427e-05
9590.0 1.4379e-05
9610.0 1.449e-05
9630.0 1.4604e-05
9650.0 1.4719e-05
9670.0 1.4834e-05
9690.0 1.4953e-05
9710.0 1.5073e-05
9730.0 1.5193e-05
9750.0 1.5315e-05
9770.0 1.5441e-05
9790.0 1.5566e-05
9810.0 1.5692e-05
9830.0 1.5821e-05
9850.0 1.5952e-05
9870.0 1.6082e-05
9890.0 1.6214e-05
9910.0 1.6349e-05
9930.0 1.6483e-05
9950.0 1.6618e-05
9970.0 1.6756e-05
9990.0 1.6895e-05
10010.0 1.4661e-05
10030.0 1.4781e-05
10050.0 1.4904e-05
10070.0 1.5031e-05
10090.0 1.5151e-05
10110.0 1.5273e-05
10130.0 1.5397e-05
10150.0 1.5519e-05
10170.0 1.5644e-05
10190.0 1.577e-05
10210.0 1.5895e-05
10230.0 1.602e-05
10250.0 1.6146e-05
10270.0 1.6273e-05
10290.0 1.6397e-05
10310.0 1.6524e-05
10330.0 1.6652e-05
10350.0 1.6777e-05
10370.0 1.6902e-05
10390.0 1.7029e-05
10410.0 1.7155e-05
10430.0 1.7278e-05
10450.0 1.7403e-05
10470.0 1.7528e-05
10490.0 1.7651e-05
10510.0 1.7773e-05
10530.0 1.7898e-05
10550.0 1.802e-05
10570.0 1.8139e-05
10590.0 1.8259e-05
10610.0 1.8379e-05
10630.0 1.8496e-05
10650.0 1.8613e-05
10670.0 1.873e-05
10690.0 1.8845e-05
10710.0 1.8958e-05
10730.0 1.907e-05
10750.0 1.9184e-05
10770.0 1.9292e-05
10790.0 1.9399e-05
10810.0 1.9507e-05
10830.0 1.9611e-05
10850.0 1.971e-05
10870.0 1.9805e-05
10890.0 1.989e-05
10910.0 1.9954e-05
10930.0 1.9991e-05
10950.0 1.9983e-05
10970.0 1.9915e-05
10990.0 1.9782e-05
11010.0 1.956e-05
11030.0 1.9249e-05
11050.0 1.887e-05
11070.0 1.8416e-05
11090.0 1.7871e-05
11110.0 1.7308e-05
11130.0 1.672e-05
11150.0 1.6087e-05
11170.0 1.5434e-05
11190.0 1.4801e-05
11210.0 1.4148e-05
11230.0 1.3477e-05
11250.0 1.2837e-05
11270.0 1.2222e-05
11290.0 1.1606e-05
11310.0 1.1022e-05
11330.0 1.0508e-05
11350.0 1.0023e-05
11370.0 9.5738e-06
11390.0 9.1856e-06
11410.0 8.846e-06
11430.0 8.5305e-06
11450.0 8.2585e-06
11470.0 8.0234e-06
11490.0 7.8046e-06
11510.0 7.5939e-06
11530.0 7.3982e-06
11550.0 7.2039e-06
11570.0 6.9966e-06
11590.0 6.7819e-06
11610.0 6.5634e-06
11630.0 6.3255e-06
11650.0 6.0709e-06
11670.0 5.82e-06
11690.0 5.5654e-06
11710.0 5.3029e-06
11730.0 5.0485e-06
11750.0 4.8131e-06
11770.0 4.5822e-06
11790.0 4.3658e-06
11810.0 4.1753e-06
11830.0 4.0049e-06
11850.0 3.848e-06
11870.0 3.7168e-06
11890.0 3.6077e-06
11910.0 3.5118e-06
11930.0 3.4294e-06
11950.0 3.3607e-06
11970.0 3.2994e-06
11990.0 3.2415e-06
12010.0 3.1878e-06
12030.0 3.1362e-06
12050.0 3.0828e-06
12070.0 3.0272e-06
12090.0 2.9736e-06
12110.0 2.9193e-06
12130.0 2.8648e-06
12150.0 2.8145e-06
12170.0 2.7707e-06
12190.0 2.7328e-06
12210.0 2.7063e-06
12230.0 2.6935e-06
12250.0 2.6956e-06
12270.0 2.7159e-06
12290.0 2.7543e-06
12310.0 2.8095e-06
12330.0 2.8866e-06
12350.0 2.9828e-06
12370.0 3.0924e-06
12390.0 3.2187e-06
12410.0 3.3667e-06
12430.0 3.5172e-06
12450.0 3.673e-06
12470.0 3.8387e-06
12490.0 4.0051e-06
12510.0 4.1612e-06
12530.0 4.3165e-06
12550.0 4.4663e-06
12570.0 4.5985e-06
12590.0 4.7146e-06
12610.0 4.8181e-06
12630.0 4.9006e-06
12650.0 4.9575e-06
12670.0 4.9949e-06
12690.0 5.0099e-06
12710.0 5.0016e-06
12730.0 4.9726e-06
12750.0 4.9209e-06
12770.0 4.8499e-06
12790.0 4.7638e-06
12810.0 4.661e-06
12830.0 4.5421e-06
12850.0 4.4177e-06
12870.0 4.2862e-06
12890.0 4.1439e-06
12910.0 3.9993e-06
12930.0 3.8567e-06
12950.0 3.708e-06
12970.0 3.5565e-06
12990.0 3.4133e-06
13010.0 3.2718e-06
13030.0 3.1287e-06
13050.0 2.9913e-06
13070.0 2.8626e-06
13090.0 2.7335e-06
13110.0 2.6085e-06
13130.0 2.4933e-06
13150.0 2.3842e-06
13170.0 2.2773e-06
13190.0 2.1823e-06
13210.0 2.0986e-06
13230.0 2.0221e-06
13250.0 1.9563e-06
13270.0 1.9043e-06
13290.0 1.8639e-06
13310.0 1.8361e-06
13330.0 1.8234e-06
13350.0 1.8249e-06
13370.0 1.8412e-06
13390.0 1.8734e-06
13410.0 1.9168e-06
13430.0 1.9733e-06
13450.0 2.0431e-06
13470.0 2.1205e-06
13490.0 2.2026e-06
13510.0 2.2951e-06
13530.0 2.3889e-06
13550.0 2.4787e-06
13570.0 2.5672e-06
13590.0 2.6535e-06
13610.0 2.7302e-06
13630.0 2.7972e-06
13650.0 2.8584e-06
13670.0 2.9092e-06
13690.0 2.9484e-06
13710.0 2.9788e-06
13730.0 3.0005e-06
13750.0 3.0113e-06
13770.0 3.0138e-06
13790.0 3.0083e-06
13810.0 2.995e-06
13830.0 2.9754e-06
13850.0 2.9488e-06
13870.0 2.9153e-06
13890.0 2.877e-06
13910.0 2.8338e-06
13930.0 2.7837e-06
13950.0 2.7291e-06
13970.0 2.6733e-06
13990.0 2.6125e-06
14010.0 2.5478e-06
14030.0 2.4833e-06
14050.0 2.4183e-06
14070.0 2.3497e-06
14090.0 2.2839e-06
14110.0 2.2221e-06
14130.0 2.1622e-06
14150.0 2.1058e-06
14170.0 2.0577e-06
14190.0 2.0161e-06
14210.0 1.9808e-06
14230.0 1.9547e-06
14250.0 1.9378e-06
14270.0 1.9296e-06
14290.0 1.9313e-06
14310.0 1.9421e-06
14330.0 1.9614e-06
14350.0 1.9899e-06
14370.0 2.0253e-06
14390.0 2.0656e-06
14410.0 2.113e-06
14430.0 2.165e-06
14450.0 2.2182e-06
14470.0 2.2733e-06
14490.0 2.332e-06
14510.0 2.3881e-06
14530.0 2.4414e-06
14550.0 2.4946e-06
14570.0 2.5458e-06
14590.0 2.5923e-06
14610.0 2.6373e-06
14630.0 2.6818e-06
14650.0 2.7233e-06
14670.0 2.7634e-06
14690.0 2.8052e-06
14710.0 2.8491e-06
14730.0 2.893e-06
14750.0 2.9417e-06
14770.0 2.9969e-06
14790.0 3.0567e-06
14810.0 3.1215e-06
14830.0 3.1983e-06
14850.0 3.2818e-06
14870.0 3.3689e-06
14890.0 3.4629e-06
14910.0 3.5627e-06
14930.0 3.6587e-06
14950.0 3.7483e-06
14970.0 3.8332e-06
14990.0 3.9044e-06
15010.0 3.9589e-06
15030.0 3.9992e-06
15050.0 4.0259e-06
15070.0 4.0389e-06
15090.0 4.0435e-06
15110.0 4.0421e-06
15130.0 4.037e-06
15150.0 4.0302e-06
15170.0 4.0222e-06
15190.0 4.0135e-06
15210.0 4.005e-06
15230.0 3.9965e-06
15250.0 3.9876e-06
15270.0 3.9789e-06
15290.0 3.9706e-06
15310.0 3.9621e-06
15330.0 3.9536e-06
15350.0 3.9453e-06
15370.0 3.9372e-06
15390.0 3.9286e-06
15410.0 3.9203e-06
15430.0 3.9122e-06
15450.0 3.904e-06
15470.0 3.8956e-06
15490.0 3.8877e-06
15510.0 3.8798e-06
15530.0 3.8716e-06
15550.0 3.8636e-06
15570.0 3.8558e-06
15590.0 3.8477e-06
15610.0 3.8396e-06
15630.0 3.8318e-06
15650.0 3.8241e-06
15670.0 3.8161e-06
15690.0 3.8083e-06
15710.0 3.8007e-06
15730.0 3.7929e-06
15750.0 3.785e-06
15770.0 3.7774e-06
15790.0 3.7698e-06
15810.0 3.7618e-06
15830.0 3.7542e-06
15850.0 3.7467e-06
15870.0 3.739e-06
15890.0 3.7313e-06
15910.0 3.7239e-06
15930.0 3.7164e-06
15950.0 3.7085e-06
15970.0 3.701e-06
15990.0 3.6936e-06
16010.0 3.6859e-06
16030.0 3.6782e-06
16050.0 3.6709e-06
16070.0 3.6634e-06
16090.0 3.6557e-06
16110.0 3.6483e-06
16130.0 3.641e-06
16150.0 3.6332e-06
16170.0 3.6256e-06
16190.0 3.6183e-06
16210.0 3.6108e-06
16230.0 3.603e-06
16250.0 3.5956e-06
16270.0 3.5883e-06
16290.0 3.5807e-06
16310.0 3.5731e-06
16330.0 3.5658e-06
16350.0 3.5582e-06
16370.0 3.5503e-06
16390.0 3.5429e-06
16410.0 3.5355e-06
16430.0 3.5278e-06
16450.0 3.5202e-06
16470.0 3.5129e-06
16490.0 3.5053e-06
16510.0 3.4975e-06
16530.0 3.49e-06
16550.0 3.4825e-06
16570.0 3.4746e-06
16590.0 3.4669e-06
16610.0 3.4595e-06
16630.0 3.4518e-06
16650.0 3.444e-06
16670.0 3.4365e-06
16690.0 3.4289e-06
16710.0 3.4209e-06
16730.0 3.4131e-06
16750.0 3.4056e-06
16770.0 3.3977e-06
16790.0 3.3897e-06
16810.0 3.3821e-06
16830.0 3.3744e-06
16850.0 3.3664e-06
16870.0 3.3586e-06
16890.0 3.3509e-06
16910.0 3.3429e-06
16930.0 3.3347e-06
16950.0 3.327e-06
16970.0 3.3191e-06
16990.0 3.311e-06
17010.0 3.303e-06
17030.0 3.2953e-06
17050.0 3.2871e-06
17070.0 3.2789e-06
17090.0 3.271e-06
17110.0 3.263e-06
17130.0 3.2546e-06
17150.0 3.2465e-06
17170.0 3.2386e-06
17190.0 3.2303e-06
17210.0 3.222e-06
17230.0 3.214e-06
17250.0 3.2058e-06
17270.0 3.1973e-06
17290.0 3.1891e-06
17310.0 3.181e-06
17330.0 3.1725e-06
17350.0 3.1639e-06
17370.0 3.1559e-06
17390.0 3.1475e-06
17410.0 3.139e-06
17430.0 3.1306e-06
17450.0 3.1224e-06
17470.0 3.1136e-06
17490.0 3.1051e-06
17510.0 3.0968e-06
17530.0 3.0882e-06
17550.0 3.0795e-06
17570.0 3.071e-06
17590.0 3.0627e-06
17610.0 3.0539e-06
17630.0 3.0452e-06
17650.0 3.0367e-06
17670.0 3.0281e-06
17690.0 3.019e-06
17710.0 3.0105e-06
17730.0 3.0019e-06
17750.0 2.993e-06
17770.0 2.9842e-06
17790.0 2.9757e-06
17810.0 2.9668e-06
17830.0 2.9578e-06
17850.0 2.9491e-06
17870.0 2.9403e-06
17890.0 2.9312e-06
17910.0 2.9222e-06
17930.0 2.9136e-06
17950.0 2.9047e-06
17970.0 2.8956e-06
17990.0 2.8868e-06
18010.0 2.878e-06
18030.0 2.8687e-06
18050.0 2.8597e-06
18070.0 2.8508e-06
18090.0 2.8417e-06
18110.0 2.8325e-06
18130.0 2.8236e-06
18150.0 2.8147e-06
18170.0 2.8054e-06
18190.0 2.7963e-06
18210.0 2.7874e-06
18230.0 2.7781e-06
18250.0 2.7687e-06
18270.0 2.7598e-06
18290.0 2.7507e-06
18310.0 2.7413e-06
18330.0 2.7322e-06
18350.0 2.7233e-06
18370.0 2.7139e-06
18390.0 2.7046e-06
18410.0 2.6955e-06
18430.0 2.6863e-06
18450.0 2.6767e-06
18470.0 2.6675e-06
18490.0 2.6585e-06
18510.0 2.6491e-06
18530.0 2.6397e-06
18550.0 2.6307e-06
18570.0 2.6214e-06
18590.0 2.6118e-06
18610.0 2.6025e-06
18630.0 2.5934e-06
18650.0 2.5839e-06
18670.0 2.5744e-06
18690.0 2.5653e-06
18710.0 2.556e-06
18730.0 2.5465e-06
18750.0 2.5372e-06
18770.0 2.5281e-06
18790.0 2.5183e-06
18810.0 2.5089e-06
18830.0 2.4997e-06
18850.0 2.4903e-06
18870.0 2.4807e-06
18890.0 2.4715e-06
18910.0 2.4623e-06
18930.0 2.4527e-06
18950.0 2.4432e-06
18970.0 2.434e-06
18990.0 2.4246e-06
19010.0 2.4148e-06
19030.0 2.4056e-06
19050.0 2.3963e-06
19070.0 2.3868e-06
19090.0 2.3773e-06
19110.0 2.3682e-06
19130.0 2.3587e-06
19150.0 2.3491e-06
19170.0 2.3398e-06
19190.0 2.3305e-06
19210.0 2.3208e-06
19230.0 2.3113e-06
19250.0 2.3022e-06
19270.0 2.2927e-06
19290.0 2.2832e-06
19310.0 2.2739e-06
19330.0 2.2647e-06
19350.0 2.2549e-06
19370.0 2.2455e-06
19390.0 2.2363e-06
19410.0 2.2268e-06
19430.0 2.2172e-06
19450.0 2.208e-06
19470.0 2.1987e-06
19490.0 2.1892e-06
19510.0 2.1798e-06
19530.0 2.1706e-06
19550.0 2.1611e-06
19570.0 2.1514e-06
19590.0 2.1423e-06
19610.0 2.133e-06
19630.0 2.1234e-06
19650.0 2.1141e-06
19670.0 2.105e-06
19690.0 2.0955e-06
19710.0 2.086e-06
19730.0 2.0769e-06
19750.0 2.0675e-06
19770.0 2.0579e-06
19790.0 2.0486e-06
19810.0 2.0395e-06
19830.0 2.03e-06
19850.0 2.0205e-06
19870.0 2.0111e-06
19890.0 2.0011e-06
19910.0 1.9901e-06
19930.0 1.9782e-06
19950.0 1.9647e-06
19970.0 1.9481e-06
19990.0 1.9281e-06
20010.0 1.7154e-06
20030.0 1.6906e-06
20050.0 1.6615e-06
20070.0 1.63e-06
20090.0 1.5962e-06
20110.0 1.5579e-06
20130.0 1.5191e-06
20150.0 1.4806e-06
20170.0 1.4408e-06
20190.0 1.4004e-06
20210.0 1.3622e-06
20230.0 1.325e-06
20250.0 1.2877e-06
20270.0 1.253e-06
20290.0 1.2214e-06
20310.0 1.1914e-06
20330.0 1.1633e-06
20350.0 1.14e-06
20370.0 1.1193e-06
20390.0 1.1011e-06
20410.0 1.0865e-06
20430.0 1.0752e-06
20450.0 1.0662e-06
20470.0 1.0602e-06
20490.0 1.057e-06
20510.0 1.0561e-06
20530.0 1.0574e-06
20550.0 1.0607e-06
20570.0 1.0654e-06
20590.0 1.0718e-06
20610.0 1.0796e-06
20630.0 1.0882e-06
20650.0 1.0978e-06
20670.0 1.1088e-06
20690.0 1.12e-06
20710.0 1.1315e-06
20730.0 1.144e-06
20750.0 1.157e-06
20770.0 1.1698e-06
20790.0 1.1833e-06
20810.0 1.1975e-06
20830.0 1.2116e-06
20850.0 1.2258e-06
20870.0 1.2411e-06
20890.0 1.2566e-06
20910.0 1.2715e-06
20930.0 1.2871e-06
20950.0 1.3032e-06
20970.0 1.3189e-06
20990.0 1.3344e-06
21010.0 1.3506e-06
21030.0 1.3665e-06
21050.0 1.3817e-06
21070.0 1.3969e-06
21090.0 1.4121e-06
21110.0 1.426e-06
21130.0 1.439e-06
21150.0 1.4516e-06
21170.0 1.4631e-06
21190.0 1.4729e-06
21210.0 1.4818e-06
21230.0 1.4891e-06
21250.0 1.4944e-06
21270.0 1.4977e-06
21290.0 1.4989e-06
21310.0 1.4977e-06
21330.0 1.4942e-06
21350.0 1.488e-06
21370.0 1.4789e-06
21390.0 1.4673e-06
21410.0 1.4531e-06
21430.0 1.4352e-06
21450.0 1.415e-06
21470.0 1.3931e-06
21490.0 1.3682e-06
21510.0 1.341e-06
21530.0 1.3133e-06
21550.0 1.2843e-06
21570.0 1.2534e-06
21590.0 1.223e-06
21610.0 1.1936e-06
21630.0 1.1642e-06
21650.0 1.1355e-06
21670.0 1.1105e-06
21690.0 1.0876e-06
21710.0 1.0669e-06
21730.0 1.0499e-06
21750.0 1.0369e-06
21770.0 1.0269e-06
21790.0 1.0212e-06
21810.0 1.0196e-06
21830.0 1.0219e-06
21850.0 1.0282e-06
21870.0 1.0382e-06
21890.0 1.0511e-06
21910.0 1.0676e-06
21930.0 1.0869e-06
21950.0 1.1079e-06
21970.0 1.1311e-06
21990.0 1.1572e-06
22010.0 1.1833e-06
22030.0 1.2097e-06
22050.0 1.2375e-06
22070.0 1.2655e-06
22090.0 1.2919e-06
22110.0 1.3186e-06
22130.0 1.3453e-06
22150.0 1.3701e-06
22170.0 1.3936e-06
22190.0 1.4168e-06
22210.0 1.4384e-06
22230.0 1.4575e-06
22250.0 1.4754e-06
22270.0 1.4919e-06
22290.0 1.506e-06
22310.0 1.5181e-06
22330.0 1.5288e-06
22350.0 1.537e-06
22370.0 1.5428e-06
22390.0 1.5465e-06
22410.0 1.5476e-06
22430.0 1.5461e-06
22450.0 1.5422e-06
22470.0 1.5353e-06
22490.0 1.5256e-06
22510.0 1.5136e-06
22530.0 1.4981e-06
22550.0 1.4794e-06
22570.0 1.4586e-06
22590.0 1.4351e-06
22610.0 1.4081e-06
22630.0 1.3789e-06
