#lamb flux
1010.0 3.4198e-08
1030.0 3.7824e-08
1050.0 4.1993e-08
1070.0 4.6687e-08
1090.0 5.2019e-08
1110.0 5.7487e-08
1130.0 6.2991e-08
1150.0 6.8756e-08
1170.0 7.4703e-08
1190.0 8.0343e-08
1210.0 8.6058e-08
1230.0 9.1964e-08
1250.0 9.775e-08
1270.0 1.0337e-07
1290.0 1.0931e-07
1310.0 1.1524e-07
1330.0 1.2093e-07
1350.0 1.2669e-07
1370.0 1.3263e-07
1390.0 1.3842e-07
1410.0 1.4404e-07
1430.0 1.4992e-07
1450.0 1.5579e-07
1470.0 1.6147e-07
1490.0 1.6721e-07
1510.0 1.7328e-07
1530.0 1.7902e-07
1550.0 1.8469e-07
1570.0 1.9056e-07
1590.0 1.9643e-07
1610.0 2.0205e-07
1630.0 2.0784e-07
1650.0 2.1378e-07
1670.0 2.1954e-07
1690.0 2.2522e-07
1710.0 2.3113e-07
1730.0 2.3707e-07
1750.0 2.4267e-07
1770.0 2.4843e-07
1790.0 2.5432e-07
1810.0 2.6003e-07
1830.0 2.6564e-07
1850.0 2.7161e-07
1870.0 2.7744e-07
1890.0 2.8308e-07
1910.0 2.8884e-07
1930.0 2.9475e-07
1950.0 3.0041e-07
1970.0 3.0601e-07
1990.0 3.1183e-07
2010.0 3.1758e-07
2030.0 3.2313e-07
2050.0 3.2886e-07
2070.0 3.3475e-07
2090.0 3.4032e-07
2110.0 3.4588e-07
2130.0 3.5163e-07
2150.0 3.5727e-07
2170.0 3.6269e-07
2190.0 3.6831e-07
2210.0 3.7398e-07
2230.0 3.7944e-07
2250.0 3.8487e-07
2270.0 3.9056e-07
2290.0 3.9607e-07
2310.0 4.0138e-07
2330.0 4.0689e-07
2350.0 4.1256e-07
2370.0 4.182e-07
2390.0 4.2432e-07
2410.0 4.3156e-07
2430.0 4.3988e-07
2450.0 4.4984e-07
2470.0 4.6259e-07
2490.0 4.7867e-07
2510.0 4.9694e-07
2530.0 5.1894e-07
2550.0 5.4647e-07
2570.0 5.8072e-07
2590.0 6.2528e-07
2610.0 6.9198e-07
2630.0 7.8722e-07
2650.0 9.1175e-07
2670.0 1.0728e-06
2690.0 1.2706e-06
2710.0 1.4818e-06
2730.0 1.6905e-06
2750.0 1.8961e-06
2770.0 2.0748e-06
2790.0 2.2168e-06
2810.0 2.3295e-06
2830.0 2.4175e-06
2850.0 2.4776e-06
2870.0 2.5217e-06
2890.0 2.5566e-06
2910.0 2.5845e-06
2930.0 2.6073e-06
2950.0 2.629e-06
2970.0 2.6503e-06
2990.0 2.6702e-06
3010.0 7.5475e-05
3030.0 7.6039e-05
3050.0 7.6585e-05
3070.0 7.7052e-05
3090.0 7.7453e-05
3110.0 7.7702e-05
3130.0 7.7692e-05
3150.0 7.7347e-05
3170.0 7.6519e-05
3190.0 7.5218e-05
3210.0 7.3568e-05
3230.0 7.168e-05
3250.0 6.9816e-05
3270.0 6.8454e-05
3290.0 6.7697e-05
3310.0 6.782e-05
3330.0 6.8801e-05
3350.0 7.0511e-05
3370.0 7.2951e-05
3390.0 7.6027e-05
3410.0 7.9374e-05
3430.0 8.3132e-05
3450.0 8.7458e-05
3470.0 9.2183e-05
3490.0 9.7189e-05
3510.0 0.00010285
3530.0 0.00010891
3550.0 0.00011504
3570.0 0.00012144
3590.0 0.0001284
3610.0 0.00013558
3630.0 0.00014273
3650.0 0.00015014
3670.0 0.00015692
3690.0 0.00016198
3710.0 0.00016488
3730.0 0.00016498
3750.0 0.00016268
3770.0 0.00016178
3790.0 0.00016082
3810.0 0.00015686
3830.0 0.00016172
3850.0 0.00018082
3870.0 0.00019131
3890.0 0.00019043
3910.0 0.00019125
3930.0 0.00019628
3950.0 0.00019938
3970.0 0.00018165
3990.0 0.00015631
4010.0 0.00046847
4030.0 0.00056762
4050.0 0.00065074
4070.0 0.00056462
4090.0 0.00051138
4110.0 0.00045124
4130.0 0.00041532
4150.0 0.00044178
4170.0 0.00043517
4190.0 0.00046386
4210.0 0.00045962
4230.0 0.00048615
4250.0 0.00057513
4270.0 0.00058189
4290.0 0.0005362
4310.0 0.00055715
4330.0 0.00059264
4350.0 0.0006645
4370.0 0.00075621
4390.0 0.00070962
4410.0 0.00052429
4430.0 0.00044384
4450.0 0.00040784
4470.0 0.00031303
4490.0 0.0003378
4510.0 0.00051026
4530.0 0.00058848
4550.0 0.00059358
4570.0 0.00066793
4590.0 0.00076084
4610.0 0.0010262
4630.0 0.0013328
4650.0 0.0014454
4670.0 0.0013386
4690.0 0.0012773
4710.0 0.0013501
4730.0 0.0012742
4750.0 0.0009526
4770.0 0.00069876
4790.0 0.00065251
4810.0 0.00062194
4830.0 0.00056939
4850.0 0.0006248
4870.0 0.00082542
4890.0 0.00097341
4910.0 0.00085404
4930.0 0.00075571
4950.0 0.00083026
4970.0 0.0010647
4990.0 0.001443
5010.0 0.00166
5030.0 0.0014637
5050.0 0.0009903
5070.0 0.00065264
5090.0 0.00052626
5110.0 0.00054121
5130.0 0.00062464
5150.0 0.00067675
5170.0 0.0006666
5190.0 0.00062289
5210.0 0.00065106
5230.0 0.00068441
5250.0 0.0007376
5270.0 0.00079582
5290.0 0.00088193
5310.0 0.0010265
5330.0 0.001136
5350.0 0.0011287
5370.0 0.0011856
5390.0 0.0013605
5410.0 0.0013593
5430.0 0.0012021
5450.0 0.0011045
5470.0 0.0011727
5490.0 0.0014328
5510.0 0.0017914
5530.0 0.0020547
5550.0 0.0019859
5570.0 0.0018053
5590.0 0.0015697
5610.0 0.0014477
5630.0 0.0014038
5650.0 0.001337
5670.0 0.0012669
5690.0 0.0011326
5710.0 0.0011043
5730.0 0.0010172
5750.0 0.00071718
5770.0 0.00055952
5790.0 0.00063406
5810.0 0.00071596
5830.0 0.00087859
5850.0 0.0010459
5870.0 0.0011604
5890.0 0.00118
5910.0 0.0011577
5930.0 0.001102
5950.0 0.0011229
5970.0 0.00128
5990.0 0.0012035
6010.0 0.0010089
6030.0 0.00085239
6050.0 0.00074232
6070.0 0.00073826
6090.0 0.00080053
6110.0 0.00089512
6130.0 0.00090883
6150.0 0.00078197
6170.0 0.00068789
6190.0 0.00077412
6210.0 0.0010234
6230.0 0.001343
6250.0 0.0014546
6270.0 0.0012711
6290.0 0.0010695
6310.0 0.00083491
6330.0 0.0006397
6350.0 0.00057059
6370.0 0.00060004
6390.0 0.00069368
6410.0 0.00085534
6430.0 0.0009988
6450.0 0.0011429
6470.0 0.0013086
6490.0 0.0015807
6510.0 0.0017675
6530.0 0.001734
6550.0 0.001568
6570.0 0.0013311
6590.0 0.0012003
6610.0 0.001035
6630.0 0.00093763
6650.0 0.00088633
6670.0 0.00086105
6690.0 0.000778
6710.0 0.00070722
6730.0 0.0005094
6750.0 0.00050502
6770.0 0.00054892
6790.0 0.00063094
6810.0 0.00057732
6830.0 0.00059448
6850.0 0.00055603
6870.0 0.00050793
6890.0 0.00048769
6910.0 0.0005197
6930.0 0.00048677
6950.0 0.00050081
6970.0 0.00052676
6990.0 0.00059791
7010.0 0.00060301
7030.0 0.00061258
7050.0 0.0005842
7070.0 0.00055664
7090.0 0.00055827
7110.0 0.00057441
7130.0 0.00061816
7150.0 0.00065653
7170.0 0.00072444
7190.0 0.00079636
7210.0 0.00078253
7230.0 0.00080445
7250.0 0.00086451
7270.0 0.00094211
7290.0 0.0011182
7310.0 0.0012133
7330.0 0.0011728
7350.0 0.0010607
7370.0 0.00092292
7390.0 0.00089535
7410.0 0.00095148
7430.0 0.0010575
7450.0 0.0011518
7470.0 0.0011412
7490.0 0.0010405
7510.0 0.0011787
7530.0 0.0011658
7550.0 0.0010478
7570.0 0.00081854
7590.0 0.00056272
7610.0 0.00048298
7630.0 0.00054876
7650.0 0.00064884
7670.0 0.00080753
7690.0 0.00088862
7710.0 0.00092606
7730.0 0.00097317
7750.0 0.0010925
7770.0 0.0011097
7790.0 0.0010193
7810.0 0.00093004
7830.0 0.00095909
7850.0 0.00093232
7870.0 0.00085478
7890.0 0.00071818
7910.0 0.00058379
7930.0 0.00055743
7950.0 0.00050784
7970.0 0.00047009
7990.0 0.00046741
8010.0 3.4618e-05
8030.0 3.4168e-05
8050.0 3.3707e-05
8070.0 3.4149e-05
8090.0 3.6692e-05
8110.0 3.6067e-05
8130.0 2.9751e-05
8150.0 2.8974e-05
8170.0 2.4957e-05
8190.0 2.3652e-05
8210.0 3.0714e-05
8230.0 3.4197e-05
8250.0 3.0821e-05
8270.0 2.6826e-05
8290.0 2.615e-05
8310.0 2.0126e-05
8330.0 1.3565e-05
8350.0 9.627e-06
8370.0 6.0654e-06
8390.0 1.1087e-05
8410.0 1.292e-05
8430.0 1.5926e-05
8450.0 1.8701e-05
8470.0 2.3245e-05
8490.0 2.3081e-05
8510.0 2.2704e-05
8530.0 2.3694e-05
8550.0 3.1968e-05
8570.0 3.7846e-05
8590.0 4.0836e-05
8610.0 5.1584e-05
8630.0 6.2141e-05
8650.0 6.5006e-05
8670.0 6.9082e-05
8690.0 6.9469e-05
8710.0 6.2914e-05
8730.0 5.852e-05
8750.0 5.1655e-05
8770.0 4.9013e-05
8790.0 4.8153e-05
8810.0 4.6141e-05
8830.0 3.6897e-05
8850.0 2.7011e-05
8870.0 2.0682e-05
8890.0 2.022e-05
8910.0 2.3173e-05
8930.0 2.6357e-05
8950.0 2.6862e-05
8970.0 2.6989e-05
8990.0 2.4071e-05
9010.0 0.00025225
9030.0 0.00022857
9050.0 0.00022968
9070.0 0.00023149
9090.0 0.00023308
9110.0 0.00023504
9130.0 0.00023656
9150.0 0.00023774
9170.0 0.00023899
9190.0 0.00024033
9210.0 0.00024174
9230.0 0.00024323
9250.0 0.00024475
9270.0 0.00024632
9290.0 0.00024793
9310.0 0.00024956
9330.0 0.00025122
9350.0 0.00025295
9370.0 0.00025469
9390.0 0.00025645
9410.0 0.00025826
9430.0 0.00026012
9450.0 0.00026198
9470.0 0.00026388
9490.0 0.00026583
9510.0 0.0002678
9530.0 0.00026978
9550.0 0.00027184
9570.0 0.00027393
9590.0 0.00027602
9610.0 0.00027815
9630.0 0.00028034
9650.0 0.00028254
9670.0 0.00028475
9690.0 0.00028702
9710.0 0.00028933
9730.0 0.00029164
9750.0 0.00029398
9770.0 0.0002964
9790.0 0.0002988
9810.0 0.00030123
9830.0 0.0003037
9850.0 0.00030621
9870.0 0.0003087
9890.0 0.00031124
9910.0 0.00031382
9930.0 0.0003164
9950.0 0.000319
9970.0 0.00032165
9990.0 0.00032432
10010.0 0.00028142
10030.0 0.00028373
10050.0 0.00028609
10070.0 0.00028853
10090.0 0.00029083
10110.0 0.00029318
10130.0 0.00029555
10150.0 0.0002979
10170.0 0.00030029
10190.0 0.00030272
10210.0 0.00030511
10230.0 0.0003075
10250.0 0.00030993
10270.0 0.00031236
10290.0 0.00031476
10310.0 0.00031719
10330.0 0.00031964
10350.0 0.00032205
10370.0 0.00032445
10390.0 0.00032688
10410.0 0.0003293
10430.0 0.00033167
10450.0 0.00033407
10470.0 0.00033647
10490.0 0.00033883
10510.0 0.00034117
10530.0 0.00034355
10550.0 0.0003459
10570.0 0.00034819
10590.0 0.0003505
10610.0 0.0003528
10630.0 0.00035505
10650.0 0.00035728
10670.0 0.00035954
10690.0 0.00036174
10710.0 0.0003639
10730.0 0.00036607
10750.0 0.00036824
10770.0 0.00037032
10790.0 0.00037238
10810.0 0.00037445
10830.0 0.00037644
10850.0 0.00037834
10870.0 0.00038018
10890.0 0.00038179
10910.0 0.00038304
10930.0 0.00038374
10950.0 0.00038358
10970.0 0.00038228
10990.0 0.00037973
11010.0 0.00037546
11030.0 0.00036949
11050.0 0.00036221
11070.0 0.00035351
11090.0 0.00034305
11110.0 0.00033223
11130.0 0.00032094
11150.0 0.00030879
11170.0 0.00029627
11190.0 0.00028412
11210.0 0.00027157
11230.0 0.00025871
11250.0 0.00024641
11270.0 0.00023461
11290.0 0.00022278
11310.0 0.00021158
11330.0 0.00020171
11350.0 0.00019239
11370.0 0.00018378
11390.0 0.00017632
11410.0 0.0001698
11430.0 0.00016375
11450.0 0.00015853
11470.0 0.00015401
11490.0 0.00014981
11510.0 0.00014577
11530.0 0.00014201
11550.0 0.00013828
11570.0 0.0001343
11590.0 0.00013018
11610.0 0.00012599
11630.0 0.00012142
11650.0 0.00011653
11670.0 0.00011172
11690.0 0.00010683
11710.0 0.00010179
11730.0 9.6909e-05
11750.0 9.239e-05
11770.0 8.7958e-05
11790.0 8.3804e-05
11810.0 8.0148e-05
11830.0 7.6877e-05
11850.0 7.3865e-05
11870.0 7.1346e-05
11890.0 6.9251e-05
11910.0 6.7411e-05
11930.0 6.5829e-05
11950.0 6.4511e-05
11970.0 6.3334e-05
11990.0 6.2222e-05
12010.0 6.1193e-05
12030.0 6.0201e-05
12050.0 5.9175e-05
12070.0 5.8109e-05
12090.0 5.7081e-05
12110.0 5.6037e-05
12130.0 5.4991e-05
12150.0 5.4027e-05
12170.0 5.3185e-05
12190.0 5.2457e-05
12210.0 5.195e-05
12230.0 5.1704e-05
12250.0 5.1744e-05
12270.0 5.2134e-05
12290.0 5.2871e-05
12310.0 5.3929e-05
12330.0 5.5409e-05
12350.0 5.7257e-05
12370.0 5.936e-05
12390.0 6.1785e-05
12410.0 6.4627e-05
12430.0 6.7515e-05
12450.0 7.0506e-05
12470.0 7.3686e-05
12490.0 7.688e-05
12510.0 7.9876e-05
12530.0 8.2857e-05
12550.0 8.5733e-05
12570.0 8.8271e-05
12590.0 9.05e-05
12610.0 9.2486e-05
12630.0 9.4069e-05
12650.0 9.5162e-05
12670.0 9.588e-05
12690.0 9.6168e-05
12710.0 9.6009e-05
12730.0 9.5452e-05
12750.0 9.4459e-05
12770.0 9.3097e-05
12790.0 9.1445e-05
12810.0 8.9471e-05
12830.0 8.7189e-05
12850.0 8.4801e-05
12870.0 8.2277e-05
12890.0 7.9546e-05
12910.0 7.6769e-05
12930.0 7.4032e-05
12950.0 7.1177e-05
12970.0 6.827e-05
12990.0 6.552e-05
13010.0 6.2804e-05
13030.0 6.0058e-05
13050.0 5.742e-05
13070.0 5.495e-05
13090.0 5.247e-05
13110.0 5.0071e-05
13130.0 4.786e-05
13150.0 4.5765e-05
13170.0 4.3715e-05
13190.0 4.189e-05
13210.0 4.0284e-05
13230.0 3.8816e-05
13250.0 3.7552e-05
13270.0 3.6554e-05
13290.0 3.5779e-05
13310.0 3.5244e-05
13330.0 3.5001e-05
13350.0 3.5029e-05
13370.0 3.5343e-05
13390.0 3.5961e-05
13410.0 3.6795e-05
13430.0 3.7879e-05
13450.0 3.9218e-05
13470.0 4.0705e-05
13490.0 4.228e-05
13510.0 4.4056e-05
13530.0 4.5856e-05
13550.0 4.758e-05
13570.0 4.9279e-05
13590.0 5.0935e-05
13610.0 5.2408e-05
13630.0 5.3694e-05
13650.0 5.4869e-05
13670.0 5.5843e-05
13690.0 5.6597e-05
13710.0 5.718e-05
13730.0 5.7597e-05
13750.0 5.7805e-05
13770.0 5.7852e-05
13790.0 5.7747e-05
13810.0 5.7492e-05
13830.0 5.7115e-05
13850.0 5.6605e-05
13870.0 5.5961e-05
13890.0 5.5225e-05
13910.0 5.4396e-05
13930.0 5.3436e-05
13950.0 5.2387e-05
13970.0 5.1316e-05
13990.0 5.0148e-05
14010.0 4.8907e-05
14030.0 4.7669e-05
14050.0 4.6421e-05
14070.0 4.5104e-05
14090.0 4.3841e-05
14110.0 4.2655e-05
14130.0 4.1505e-05
14150.0 4.0423e-05
14170.0 3.9499e-05
14190.0 3.87e-05
14210.0 3.8023e-05
14230.0 3.7521e-05
14250.0 3.7197e-05
14270.0 3.704e-05
14290.0 3.7073e-05
14310.0 3.728e-05
14330.0 3.7651e-05
14350.0 3.8197e-05
14370.0 3.8877e-05
14390.0 3.965e-05
14410.0 4.056e-05
14430.0 4.1559e-05
14450.0 4.258e-05
14470.0 4.3638e-05
14490.0 4.4764e-05
14510.0 4.5841e-05
14530.0 4.6864e-05
14550.0 4.7886e-05
14570.0 4.8867e-05
14590.0 4.9761e-05
14610.0 5.0625e-05
14630.0 5.148e-05
14650.0 5.2276e-05
14670.0 5.3045e-05
14690.0 5.3847e-05
14710.0 5.469e-05
14730.0 5.5533e-05
14750.0 5.6467e-05
14770.0 5.7527e-05
14790.0 5.8675e-05
14810.0 5.992e-05
14830.0 6.1394e-05
14850.0 6.2997e-05
14870.0 6.4669e-05
14890.0 6.6473e-05
14910.0 6.8388e-05
14930.0 7.0231e-05
14950.0 7.1952e-05
14970.0 7.3581e-05
14990.0 7.4948e-05
15010.0 7.5993e-05
15030.0 7.6767e-05
15050.0 7.7279e-05
15070.0 7.7529e-05
15090.0 7.7617e-05
15110.0 7.7591e-05
15130.0 7.7494e-05
15150.0 7.7363e-05
15170.0 7.7208e-05
15190.0 7.7042e-05
15210.0 7.6878e-05
15230.0 7.6714e-05
15250.0 7.6545e-05
15270.0 7.6377e-05
15290.0 7.6219e-05
15310.0 7.6056e-05
15330.0 7.5891e-05
15350.0 7.5733e-05
15370.0 7.5576e-05
15390.0 7.5411e-05
15410.0 7.5252e-05
15430.0 7.5098e-05
15450.0 7.494e-05
15470.0 7.4779e-05
15490.0 7.4627e-05
15510.0 7.4475e-05
15530.0 7.4317e-05
15550.0 7.4163e-05
15570.0 7.4015e-05
15590.0 7.386e-05
15610.0 7.3703e-05
15630.0 7.3555e-05
15650.0 7.3406e-05
15670.0 7.3252e-05
15690.0 7.3102e-05
15710.0 7.2958e-05
15730.0 7.2807e-05
15750.0 7.2655e-05
15770.0 7.251e-05
15790.0 7.2364e-05
15810.0 7.221e-05
15830.0 7.2063e-05
15850.0 7.1921e-05
15870.0 7.1773e-05
15890.0 7.1625e-05
15910.0 7.1483e-05
15930.0 7.1338e-05
15950.0 7.1188e-05
15970.0 7.1043e-05
15990.0 7.0901e-05
16010.0 7.0754e-05
16030.0 7.0605e-05
16050.0 7.0465e-05
16070.0 7.0322e-05
16090.0 7.0174e-05
16110.0 7.0031e-05
16130.0 6.9892e-05
16150.0 6.9742e-05
16170.0 6.9595e-05
16190.0 6.9455e-05
16210.0 6.9311e-05
16230.0 6.9163e-05
16250.0 6.9021e-05
16270.0 6.8881e-05
16290.0 6.8733e-05
16310.0 6.8587e-05
16330.0 6.8447e-05
16350.0 6.8302e-05
16370.0 6.815e-05
16390.0 6.8009e-05
16410.0 6.7867e-05
16430.0 6.7719e-05
16450.0 6.7573e-05
16470.0 6.7433e-05
16490.0 6.7286e-05
16510.0 6.7136e-05
16530.0 6.6992e-05
16550.0 6.6849e-05
16570.0 6.6698e-05
16590.0 6.6549e-05
16610.0 6.6407e-05
16630.0 6.626e-05
16650.0 6.611e-05
16670.0 6.5965e-05
16690.0 6.582e-05
16710.0 6.5666e-05
16730.0 6.5517e-05
16750.0 6.5372e-05
16770.0 6.5221e-05
16790.0 6.5068e-05
16810.0 6.4922e-05
16830.0 6.4774e-05
16850.0 6.4621e-05
16870.0 6.447e-05
16890.0 6.4323e-05
16910.0 6.4169e-05
16930.0 6.4012e-05
16950.0 6.3864e-05
16970.0 6.3713e-05
16990.0 6.3556e-05
17010.0 6.3403e-05
17030.0 6.3255e-05
17050.0 6.3098e-05
17070.0 6.2941e-05
17090.0 6.2789e-05
17110.0 6.2635e-05
17130.0 6.2473e-05
17150.0 6.2318e-05
17170.0 6.2166e-05
17190.0 6.2007e-05
17210.0 6.1848e-05
17230.0 6.1696e-05
17250.0 6.1538e-05
17270.0 6.1374e-05
17290.0 6.1217e-05
17310.0 6.106e-05
17330.0 6.0898e-05
17350.0 6.0734e-05
17370.0 6.0579e-05
17390.0 6.0419e-05
17410.0 6.0254e-05
17430.0 6.0095e-05
17450.0 5.9937e-05
17470.0 5.9768e-05
17490.0 5.9603e-05
17510.0 5.9444e-05
17530.0 5.928e-05
17550.0 5.9112e-05
17570.0 5.895e-05
17590.0 5.879e-05
17610.0 5.8621e-05
17630.0 5.8454e-05
17650.0 5.8292e-05
17670.0 5.8126e-05
17690.0 5.7951e-05
17710.0 5.7788e-05
17730.0 5.7623e-05
17750.0 5.7453e-05
17770.0 5.7284e-05
17790.0 5.7121e-05
17810.0 5.695e-05
17830.0 5.6777e-05
17850.0 5.661e-05
17870.0 5.6442e-05
17890.0 5.6267e-05
17910.0 5.6094e-05
17930.0 5.5929e-05
17950.0 5.5757e-05
17970.0 5.5583e-05
17990.0 5.5414e-05
18010.0 5.5245e-05
18030.0 5.5066e-05
18050.0 5.4893e-05
18070.0 5.4724e-05
18090.0 5.4549e-05
18110.0 5.4371e-05
18130.0 5.4202e-05
18150.0 5.403e-05
18170.0 5.3851e-05
18190.0 5.3677e-05
18210.0 5.3507e-05
18230.0 5.3328e-05
18250.0 5.3148e-05
18270.0 5.2976e-05
18290.0 5.2802e-05
18310.0 5.2622e-05
18330.0 5.2447e-05
18350.0 5.2275e-05
18370.0 5.2095e-05
18390.0 5.1916e-05
18410.0 5.1742e-05
18430.0 5.1565e-05
18450.0 5.1381e-05
18470.0 5.1205e-05
18490.0 5.1031e-05
18510.0 5.0851e-05
18530.0 5.0671e-05
18550.0 5.0498e-05
18570.0 5.0319e-05
18590.0 5.0135e-05
18610.0 4.9957e-05
18630.0 4.9781e-05
18650.0 4.9599e-05
18670.0 4.9417e-05
18690.0 4.9243e-05
18710.0 4.9064e-05
18730.0 4.8881e-05
18750.0 4.8703e-05
18770.0 4.8528e-05
18790.0 4.8341e-05
18810.0 4.816e-05
18830.0 4.7984e-05
18850.0 4.7803e-05
18870.0 4.7619e-05
18890.0 4.7442e-05
18910.0 4.7265e-05
18930.0 4.7081e-05
18950.0 4.69e-05
18970.0 4.6723e-05
18990.0 4.6542e-05
19010.0 4.6354e-05
19030.0 4.6177e-05
19050.0 4.5999e-05
19070.0 4.5815e-05
19090.0 4.5634e-05
19110.0 4.546e-05
19130.0 4.5276e-05
19150.0 4.5092e-05
19170.0 4.4913e-05
19190.0 4.4735e-05
19210.0 4.4549e-05
19230.0 4.4367e-05
19250.0 4.4192e-05
19270.0 4.401e-05
19290.0 4.3827e-05
19310.0 4.365e-05
19330.0 4.3471e-05
19350.0 4.3284e-05
19370.0 4.3104e-05
19390.0 4.2927e-05
19410.0 4.2745e-05
19430.0 4.2561e-05
19450.0 4.2385e-05
19470.0 4.2206e-05
19490.0 4.2022e-05
19510.0 4.1843e-05
19530.0 4.1667e-05
19550.0 4.1483e-05
19570.0 4.1298e-05
19590.0 4.1123e-05
19610.0 4.0944e-05
19630.0 4.0761e-05
19650.0 4.0582e-05
19670.0 4.0408e-05
19690.0 4.0224e-05
19710.0 4.0043e-05
19730.0 3.9867e-05
19750.0 3.9688e-05
19770.0 3.9502e-05
19790.0 3.9325e-05
19810.0 3.915e-05
19830.0 3.8967e-05
19850.0 3.8784e-05
19870.0 3.8605e-05
19890.0 3.8412e-05
19910.0 3.82e-05
19930.0 3.7974e-05
19950.0 3.7714e-05
19970.0 3.7395e-05
19990.0 3.7011e-05
20010.0 3.2928e-05
20030.0 3.2452e-05
20050.0 3.1894e-05
20070.0 3.129e-05
20090.0 3.064e-05
20110.0 2.9904e-05
20130.0 2.916e-05
20150.0 2.8422e-05
20170.0 2.7657e-05
20190.0 2.6881e-05
20210.0 2.6148e-05
20230.0 2.5434e-05
20250.0 2.4717e-05
20270.0 2.4053e-05
20290.0 2.3446e-05
20310.0 2.2869e-05
20330.0 2.233e-05
20350.0 2.1882e-05
20370.0 2.1485e-05
20390.0 2.1137e-05
20410.0 2.0856e-05
20430.0 2.0639e-05
20450.0 2.0467e-05
20470.0 2.0352e-05
20490.0 2.029e-05
20510.0 2.0272e-05
20530.0 2.0298e-05
20550.0 2.036e-05
20570.0 2.0451e-05
20590.0 2.0575e-05
20610.0 2.0724e-05
20630.0 2.0889e-05
20650.0 2.1073e-05
20670.0 2.1284e-05
20690.0 2.1498e-05
20710.0 2.172e-05
20730.0 2.196e-05
20750.0 2.2209e-05
20770.0 2.2455e-05
20790.0 2.2713e-05
20810.0 2.2986e-05
20830.0 2.3258e-05
20850.0 2.3531e-05
20870.0 2.3823e-05
20890.0 2.4121e-05
20910.0 2.4408e-05
20930.0 2.4706e-05
20950.0 2.5015e-05
20970.0 2.5317e-05
20990.0 2.5614e-05
21010.0 2.5926e-05
21030.0 2.6232e-05
21050.0 2.6523e-05
21070.0 2.6814e-05
21090.0 2.7106e-05
21110.0 2.7373e-05
21130.0 2.7623e-05
21150.0 2.7865e-05
21170.0 2.8085e-05
21190.0 2.8273e-05
21210.0 2.8443e-05
21230.0 2.8584e-05
21250.0 2.8685e-05
21270.0 2.8749e-05
21290.0 2.8773e-05
21310.0 2.875e-05
21330.0 2.8682e-05
21350.0 2.8563e-05
21370.0 2.8388e-05
21390.0 2.8166e-05
21410.0 2.7894e-05
21430.0 2.7549e-05
21450.0 2.7162e-05
21470.0 2.6741e-05
21490.0 2.6264e-05
21510.0 2.5741e-05
21530.0 2.521e-05
21550.0 2.4653e-05
21570.0 2.406e-05
21590.0 2.3476e-05
21610.0 2.2912e-05
21630.0 2.2347e-05
21650.0 2.1796e-05
21670.0 2.1318e-05
21690.0 2.0877e-05
21710.0 2.048e-05
21730.0 2.0154e-05
21750.0 1.9903e-05
21770.0 1.9712e-05
21790.0 1.9602e-05
21810.0 1.9572e-05
21830.0 1.9615e-05
21850.0 1.9738e-05
21870.0 1.9929e-05
21890.0 2.0176e-05
21910.0 2.0493e-05
21930.0 2.0864e-05
21950.0 2.1267e-05
21970.0 2.1713e-05
21990.0 2.2213e-05
22010.0 2.2714e-05
22030.0 2.3222e-05
22050.0 2.3755e-05
22070.0 2.4292e-05
22090.0 2.48e-05
22110.0 2.5312e-05
22130.0 2.5823e-05
22150.0 2.6301e-05
22170.0 2.6751e-05
22190.0 2.7197e-05
22210.0 2.7612e-05
22230.0 2.7977e-05
22250.0 2.8321e-05
22270.0 2.8638e-05
22290.0 2.8909e-05
22310.0 2.9141e-05
22330.0 2.9346e-05
22350.0 2.9504e-05
22370.0 2.9616e-05
22390.0 2.9686e-05
22410.0 2.9708e-05
22430.0 2.9679e-05
22450.0 2.9603e-05
22470.0 2.9471e-05
22490.0 2.9285e-05
22510.0 2.9054e-05
22530.0 2.8758e-05
22550.0 2.8398e-05
22570.0 2.7999e-05
22590.0 2.7548e-05
22610.0 2.703e-05
22630.0 2.6469e-05
22650.0 2.589e-05
22670.0 2.5249e-05
22690.0 2.4565e-05
22710.0 2.3874e-05
