#lamb flux
1010.0 1.2406e-07
1030.0 1.3982e-07
1050.0 1.5794e-07
1070.0 1.7835e-07
1090.0 2.0153e-07
1110.0 2.253e-07
1130.0 2.4923e-07
1150.0 2.743e-07
1170.0 3.0015e-07
1190.0 3.2467e-07
1210.0 3.4952e-07
1230.0 3.7519e-07
1250.0 4.0035e-07
1270.0 4.2478e-07
1290.0 4.506e-07
1310.0 4.7639e-07
1330.0 5.0113e-07
1350.0 5.2614e-07
1370.0 5.5197e-07
1390.0 5.7715e-07
1410.0 6.0158e-07
1430.0 6.2712e-07
1450.0 6.5265e-07
1470.0 6.7732e-07
1490.0 7.0225e-07
1510.0 7.2859e-07
1530.0 7.5353e-07
1550.0 7.7813e-07
1570.0 8.0357e-07
1590.0 8.2903e-07
1610.0 8.5333e-07
1630.0 8.7837e-07
1650.0 9.0405e-07
1670.0 9.2886e-07
1690.0 9.5333e-07
1710.0 9.7871e-07
1730.0 1.0042e-06
1750.0 1.0281e-06
1770.0 1.0527e-06
1790.0 1.0776e-06
1810.0 1.1017e-06
1830.0 1.1253e-06
1850.0 1.1503e-06
1870.0 1.1745e-06
1890.0 1.1977e-06
1910.0 1.2212e-06
1930.0 1.2451e-06
1950.0 1.2677e-06
1970.0 1.2898e-06
1990.0 1.3125e-06
2010.0 1.3346e-06
2030.0 1.3554e-06
2050.0 1.3766e-06
2070.0 1.398e-06
2090.0 1.4176e-06
2110.0 1.4366e-06
2130.0 1.4558e-06
2150.0 1.474e-06
2170.0 1.4906e-06
2190.0 1.5074e-06
2210.0 1.5237e-06
2230.0 1.5383e-06
2250.0 1.552e-06
2270.0 1.5659e-06
2290.0 1.5782e-06
2310.0 1.5887e-06
2330.0 1.599e-06
2350.0 1.6085e-06
2370.0 1.6163e-06
2390.0 1.6235e-06
2410.0 1.6313e-06
2430.0 1.6384e-06
2450.0 1.6453e-06
2470.0 1.6542e-06
2490.0 1.666e-06
2510.0 1.6798e-06
2530.0 1.7015e-06
2550.0 1.7392e-06
2570.0 1.8006e-06
2590.0 1.8962e-06
2610.0 2.055e-06
2630.0 2.2838e-06
2650.0 2.5694e-06
2670.0 2.9149e-06
2690.0 3.3053e-06
2710.0 3.6808e-06
2730.0 4.0122e-06
2750.0 4.3027e-06
2770.0 4.5196e-06
2790.0 4.66e-06
2810.0 4.7473e-06
2830.0 4.7971e-06
2850.0 4.8098e-06
2870.0 4.8047e-06
2890.0 4.7922e-06
2910.0 4.774e-06
2930.0 4.7504e-06
2950.0 4.7283e-06
2970.0 4.7075e-06
2990.0 4.6849e-06
3010.0 9.695e-05
3030.0 9.6448e-05
3050.0 9.5948e-05
3070.0 9.5367e-05
3090.0 9.4752e-05
3110.0 9.4003e-05
3130.0 9.3002e-05
3150.0 9.1697e-05
3170.0 8.9984e-05
3190.0 8.7907e-05
3210.0 8.5642e-05
3230.0 8.3371e-05
3250.0 8.1481e-05
3270.0 8.0232e-05
3290.0 7.9946e-05
3310.0 8.0568e-05
3330.0 8.2289e-05
3350.0 8.4843e-05
3370.0 8.8287e-05
3390.0 9.2513e-05
3410.0 9.7061e-05
3430.0 0.00010215
3450.0 0.00010797
3470.0 0.00011427
3490.0 0.00012087
3510.0 0.00012824
3530.0 0.00013606
3550.0 0.00014388
3570.0 0.00015202
3590.0 0.0001611
3610.0 0.00017043
3630.0 0.00018026
3650.0 0.00019048
3670.0 0.00020008
3690.0 0.00020758
3710.0 0.00021226
3730.0 0.00021317
3750.0 0.0002103
3770.0 0.00019347
3790.0 0.00017456
3810.0 0.00016184
3830.0 0.00014135
3850.0 0.00010518
3870.0 7.4776e-05
3890.0 0.00012502
3910.0 0.00020332
3930.0 0.00024589
3950.0 0.00024161
3970.0 0.00024696
3990.0 0.00029007
4010.0 0.00037261
4030.0 0.0003771
4050.0 0.00033422
4070.0 0.00029623
4090.0 0.00028005
4110.0 0.00033757
4130.0 0.00035284
4150.0 0.00034432
4170.0 0.00034917
4190.0 0.00035597
4210.0 0.00035138
4230.0 0.00038812
4250.0 0.00042423
4270.0 0.00043034
4290.0 0.0004357
4310.0 0.00044688
4330.0 0.00049273
4350.0 0.00056822
4370.0 0.00064513
4390.0 0.00061242
4410.0 0.00050151
4430.0 0.00042084
4450.0 0.00036048
4470.0 0.00034992
4490.0 0.00038445
4510.0 0.00043126
4530.0 0.00047651
4550.0 0.00055191
4570.0 0.00065308
4590.0 0.00079175
4610.0 0.0010167
4630.0 0.0012352
4650.0 0.0012701
4670.0 0.0012264
4690.0 0.001307
4710.0 0.0013802
4730.0 0.0011706
4750.0 0.00083644
4770.0 0.00068148
4790.0 0.00065857
4810.0 0.00061237
4830.0 0.00057787
4850.0 0.00066176
4870.0 0.00085416
4890.0 0.00098175
4910.0 0.00083296
4930.0 0.00073709
4950.0 0.00082523
4970.0 0.001106
4990.0 0.0014349
5010.0 0.0015265
5030.0 0.0012627
5050.0 0.00081514
5070.0 0.00056008
5090.0 0.00049703
5110.0 0.00051943
5130.0 0.00055922
5150.0 0.00058746
5170.0 0.00058679
5190.0 0.00057434
5210.0 0.00055616
5230.0 0.00056983
5250.0 0.00060884
5270.0 0.00070046
5290.0 0.000808
5310.0 0.00089007
5330.0 0.000913
5350.0 0.00091981
5370.0 0.00099944
5390.0 0.0010798
5410.0 0.00105
5430.0 0.00090739
5450.0 0.00083433
5470.0 0.00093448
5490.0 0.0011984
5510.0 0.0015308
5530.0 0.0017017
5550.0 0.0016498
5570.0 0.0014951
5590.0 0.0013332
5610.0 0.0012316
5630.0 0.0011691
5650.0 0.0011954
5670.0 0.0011668
5690.0 0.0010827
5710.0 0.0010252
5730.0 0.00093012
5750.0 0.00066782
5770.0 0.00057966
5790.0 0.0006519
5810.0 0.00078779
5830.0 0.00089676
5850.0 0.0009836
5870.0 0.0010125
5890.0 0.00097807
5910.0 0.0009362
5930.0 0.00093858
5950.0 0.00098302
5970.0 0.0010475
5990.0 0.00099212
6010.0 0.00083467
6030.0 0.00069329
6050.0 0.00060165
6070.0 0.000598
6090.0 0.00067406
6110.0 0.00074046
6130.0 0.00071364
6150.0 0.00065804
6170.0 0.00071547
6190.0 0.00086245
6210.0 0.0010521
6230.0 0.0012122
6250.0 0.0012153
6270.0 0.0010881
6290.0 0.00090124
6310.0 0.00071613
6330.0 0.00056933
6350.0 0.00051255
6370.0 0.00055455
6390.0 0.00065572
6410.0 0.00075736
6430.0 0.00087807
6450.0 0.0010219
6470.0 0.0012496
6490.0 0.0015385
6510.0 0.0017018
6530.0 0.0015826
6550.0 0.001453
6570.0 0.0014111
6590.0 0.0013564
6610.0 0.0012111
6630.0 0.0010905
6650.0 0.0010035
6670.0 0.00104
6690.0 0.001027
6710.0 0.00091238
6730.0 0.00082909
6750.0 0.00074294
6770.0 0.00072126
6790.0 0.00079457
6810.0 0.00081772
6830.0 0.0008396
6850.0 0.00082228
6870.0 0.00078693
6890.0 0.00076813
6910.0 0.00073931
6930.0 0.00069445
6950.0 0.00070636
6970.0 0.00071683
6990.0 0.00080052
7010.0 0.00085306
7030.0 0.00078152
7050.0 0.00073289
7070.0 0.00071137
7090.0 0.00065121
7110.0 0.0006102
7130.0 0.00062345
7150.0 0.00065437
7170.0 0.00069426
7190.0 0.00069914
7210.0 0.00069363
7230.0 0.0007224
7250.0 0.00082791
7270.0 0.00096866
7290.0 0.0010503
7310.0 0.0010261
7330.0 0.00091318
7350.0 0.00081821
7370.0 0.00078903
7390.0 0.0007959
7410.0 0.00083175
7430.0 0.00090905
7450.0 0.00098434
7470.0 0.0010817
7490.0 0.0011981
7510.0 0.0011646
7530.0 0.0011027
7550.0 0.00092095
7570.0 0.00075336
7590.0 0.00059783
7610.0 0.00054252
7630.0 0.00057182
7650.0 0.00065454
7670.0 0.00072526
7690.0 0.00082112
7710.0 0.00090313
7730.0 0.00093762
7750.0 0.00094928
7770.0 0.0009444
7790.0 0.00092095
7810.0 0.00094608
7830.0 0.00091782
7850.0 0.00081972
7870.0 0.00073834
7890.0 0.00068014
7910.0 0.00060362
7930.0 0.00051787
7950.0 0.00047206
7970.0 0.00046746
7990.0 0.00048714
8010.0 0.00051665
8030.0 0.00052195
8050.0 0.00052167
8070.0 0.00050839
8090.0 0.00051127
8110.0 0.00048401
8130.0 0.0004409
8150.0 0.00041381
8170.0 0.0003955
8190.0 0.00039995
8210.0 0.0004099
8230.0 0.00043214
8250.0 0.00042041
8270.0 0.00037592
8290.0 0.00029502
8310.0 0.00020066
8330.0 0.00013137
8350.0 9.4141e-05
8370.0 0.00010875
8390.0 0.00012207
8410.0 0.00015609
8430.0 0.00018973
8450.0 0.00020857
8470.0 0.00022144
8490.0 0.00022352
8510.0 0.00023034
8530.0 0.00025178
8550.0 0.00028548
8570.0 0.00034099
8590.0 0.0004101
8610.0 0.00048564
8630.0 0.00056649
8650.0 0.00062477
8670.0 0.00062145
8690.0 0.00059297
8710.0 0.00055848
8730.0 0.00052999
8750.0 0.00050085
8770.0 0.0004843
8790.0 0.00047358
8810.0 0.00044488
8830.0 0.00039116
8850.0 0.0003335
8870.0 0.00028171
8890.0 0.00026067
8910.0 0.0002691
8930.0 0.00027521
8950.0 0.00030438
8970.0 0.00031103
8990.0 0.0003175
9010.0 0.00032108
9030.0 0.00032227
9050.0 0.00032429
9070.0 0.00032581
9090.0 0.00032693
9110.0 0.00032775
9130.0 0.00032863
9150.0 0.00032963
9170.0 0.00033066
9190.0 0.00033173
9210.0 0.00033301
9230.0 0.00033421
9250.0 0.00033553
9270.0 0.00033691
9290.0 0.00033836
9310.0 0.00033991
9330.0 0.00034153
9350.0 0.00034321
9370.0 0.00034496
9390.0 0.00034681
9410.0 0.00034872
9430.0 0.00035066
9450.0 0.00035272
9470.0 0.00035484
9490.0 0.00035701
9510.0 0.00035925
9530.0 0.00036158
9550.0 0.00036393
9570.0 0.00036634
9590.0 0.00036884
9610.0 0.00037139
9630.0 0.00037397
9650.0 0.00037662
9670.0 0.00037935
9690.0 0.0003821
9710.0 0.00038489
9730.0 0.00038776
9750.0 0.00039067
9770.0 0.00039358
9790.0 0.00039656
9810.0 0.0003996
9830.0 0.00040264
9850.0 0.00040572
9870.0 0.00040886
9890.0 0.00041202
9910.0 0.00041518
9930.0 0.00041838
9950.0 0.00042162
9970.0 0.00042484
9990.0 0.00042808
10010.0 0.00041701
10030.0 0.00042013
10050.0 0.00042322
10070.0 0.00042629
10090.0 0.00042946
10110.0 0.00043257
10130.0 0.00043568
10150.0 0.00043882
10170.0 0.00044193
10190.0 0.00044498
10210.0 0.00044806
10230.0 0.00045113
10250.0 0.00045414
10270.0 0.00045713
10290.0 0.00046014
10310.0 0.00046307
10330.0 0.00046594
10350.0 0.00046882
10370.0 0.00047166
10390.0 0.00047442
10410.0 0.00047714
10430.0 0.00047987
10450.0 0.0004825
10470.0 0.00048505
10490.0 0.00048759
10510.0 0.00049007
10530.0 0.00049241
10550.0 0.00049473
10570.0 0.00049702
10590.0 0.0004992
10610.0 0.00050129
10630.0 0.00050336
10650.0 0.00050534
10670.0 0.00050718
10690.0 0.00050897
10710.0 0.00051071
10730.0 0.00051232
10750.0 0.0005138
10770.0 0.00051528
10790.0 0.00051665
10810.0 0.00051787
10830.0 0.00051901
10850.0 0.00052006
10870.0 0.00052082
10890.0 0.0005213
10910.0 0.00052139
10930.0 0.0005208
10950.0 0.00051907
10970.0 0.00051606
10990.0 0.00051166
11010.0 0.00049369
11030.0 0.0004854
11050.0 0.00047569
11070.0 0.00046426
11090.0 0.00045061
11110.0 0.0004366
11130.0 0.00042205
11150.0 0.00040645
11170.0 0.00039053
11190.0 0.00037533
11210.0 0.00035992
11230.0 0.00034447
11250.0 0.00033013
11270.0 0.00031677
11290.0 0.00030379
11310.0 0.00029189
11330.0 0.00028174
11350.0 0.0002724
11370.0 0.00026394
11390.0 0.0002567
11410.0 0.00025035
11430.0 0.00024431
11450.0 0.00023886
11470.0 0.00023383
11490.0 0.00022876
11510.0 0.00022344
11530.0 0.00021811
11550.0 0.00021253
11570.0 0.00020636
11590.0 0.00019987
11610.0 0.00019327
11630.0 0.00018617
11650.0 0.00017872
11670.0 0.00017155
11690.0 0.00016446
11710.0 0.00015734
11730.0 0.00015062
11750.0 0.00014456
11770.0 0.00013874
11790.0 0.0001334
11810.0 0.00012876
11830.0 0.00012465
11850.0 0.00012086
11870.0 0.00011764
11890.0 0.00011486
11910.0 0.00011229
11930.0 0.00010991
11950.0 0.00010772
11970.0 0.00010556
11990.0 0.0001033
12010.0 0.00010102
12030.0 9.8703e-05
12050.0 9.6222e-05
12070.0 9.3602e-05
12090.0 9.1068e-05
12110.0 8.85e-05
12130.0 8.5928e-05
12150.0 8.3534e-05
12170.0 8.1389e-05
12190.0 7.9413e-05
12210.0 7.7811e-05
12230.0 7.6648e-05
12250.0 7.5907e-05
12270.0 7.5649e-05
12290.0 7.5885e-05
12310.0 7.6559e-05
12330.0 7.7743e-05
12350.0 7.9367e-05
12370.0 8.1288e-05
12390.0 8.3547e-05
12410.0 8.6216e-05
12430.0 8.8889e-05
12450.0 9.1606e-05
12470.0 9.4434e-05
12490.0 9.7183e-05
12510.0 9.9647e-05
12530.0 0.00010199
12550.0 0.00010412
12570.0 0.00010585
12590.0 0.00010721
12610.0 0.00010826
12630.0 0.0001089
12650.0 0.00010909
12670.0 0.00010893
12690.0 0.00010841
12710.0 0.00010756
12730.0 0.00010642
12750.0 0.00010498
12770.0 0.00010331
12790.0 0.00010148
12810.0 9.9458e-05
12830.0 9.7252e-05
12850.0 9.5014e-05
12870.0 9.2698e-05
12890.0 9.0233e-05
12910.0 8.7729e-05
12930.0 8.5238e-05
12950.0 8.2618e-05
12970.0 7.9907e-05
12990.0 7.7275e-05
13010.0 7.4619e-05
13030.0 7.1877e-05
13050.0 6.9181e-05
13070.0 6.6602e-05
13090.0 6.398e-05
13110.0 6.1415e-05
13130.0 5.903e-05
13150.0 5.6769e-05
13170.0 5.4574e-05
13190.0 5.264e-05
13210.0 5.0966e-05
13230.0 4.948e-05
13250.0 4.825e-05
13270.0 4.7325e-05
13290.0 4.6661e-05
13310.0 4.6274e-05
13330.0 4.6181e-05
13350.0 4.6344e-05
13370.0 4.6771e-05
13390.0 4.7452e-05
13410.0 4.8274e-05
13430.0 4.927e-05
13450.0 5.0429e-05
13470.0 5.1642e-05
13490.0 5.2862e-05
13510.0 5.4182e-05
13530.0 5.5457e-05
13550.0 5.6618e-05
13570.0 5.7717e-05
13590.0 5.8742e-05
13610.0 5.9603e-05
13630.0 6.0309e-05
13650.0 6.0913e-05
13670.0 6.1362e-05
13690.0 6.1649e-05
13710.0 6.181e-05
13730.0 6.1843e-05
13750.0 6.1738e-05
13770.0 6.1524e-05
13790.0 6.1203e-05
13810.0 6.0785e-05
13830.0 6.0297e-05
13850.0 5.9721e-05
13870.0 5.9063e-05
13890.0 5.8359e-05
13910.0 5.7607e-05
13930.0 5.6779e-05
13950.0 5.5909e-05
13970.0 5.5047e-05
13990.0 5.4138e-05
14010.0 5.32e-05
14030.0 5.2289e-05
14050.0 5.1393e-05
14070.0 5.0477e-05
14090.0 4.9622e-05
14110.0 4.8839e-05
14130.0 4.8104e-05
14150.0 4.7437e-05
14170.0 4.6888e-05
14190.0 4.6437e-05
14210.0 4.6082e-05
14230.0 4.585e-05
14250.0 4.5737e-05
14270.0 4.5741e-05
14290.0 4.5872e-05
14310.0 4.6106e-05
14330.0 4.6443e-05
14350.0 4.689e-05
14370.0 4.7412e-05
14390.0 4.7983e-05
14410.0 4.8638e-05
14430.0 4.9344e-05
14450.0 5.006e-05
14470.0 5.0804e-05
14490.0 5.161e-05
14510.0 5.2405e-05
14530.0 5.3197e-05
14550.0 5.4044e-05
14570.0 5.4935e-05
14590.0 5.5835e-05
14610.0 5.6812e-05
14630.0 5.7909e-05
14650.0 5.9066e-05
14670.0 6.0303e-05
14690.0 6.17e-05
14710.0 6.3247e-05
14730.0 6.4822e-05
14750.0 6.6543e-05
14770.0 6.8421e-05
14790.0 7.0338e-05
14810.0 7.2273e-05
14830.0 7.4376e-05
14850.0 7.6455e-05
14870.0 7.8429e-05
14890.0 8.0373e-05
14910.0 8.2253e-05
14930.0 8.3912e-05
14950.0 8.5346e-05
14970.0 8.6604e-05
14990.0 8.7582e-05
15010.0 8.8274e-05
15030.0 8.8739e-05
15050.0 8.8997e-05
15070.0 8.9076e-05
15090.0 8.9045e-05
15110.0 8.8936e-05
15130.0 8.8782e-05
15150.0 8.8613e-05
15170.0 8.8425e-05
15190.0 8.8228e-05
15210.0 8.8039e-05
15230.0 8.7852e-05
15250.0 8.7655e-05
15270.0 8.7462e-05
15290.0 8.7282e-05
15310.0 8.7095e-05
15330.0 8.6905e-05
15350.0 8.6724e-05
15370.0 8.6546e-05
15390.0 8.6354e-05
15410.0 8.617e-05
15430.0 8.5993e-05
15450.0 8.5811e-05
15470.0 8.5623e-05
15490.0 8.5448e-05
15510.0 8.5272e-05
15530.0 8.5087e-05
15550.0 8.4908e-05
15570.0 8.4735e-05
15590.0 8.4551e-05
15610.0 8.4364e-05
15630.0 8.419e-05
15650.0 8.4012e-05
15670.0 8.3827e-05
15690.0 8.3648e-05
15710.0 8.3475e-05
15730.0 8.329e-05
15750.0 8.3105e-05
15770.0 8.2928e-05
15790.0 8.2748e-05
15810.0 8.2556e-05
15830.0 8.2373e-05
15850.0 8.2195e-05
15870.0 8.2007e-05
15890.0 8.1818e-05
15910.0 8.1639e-05
15930.0 8.1452e-05
15950.0 8.1256e-05
15970.0 8.1068e-05
15990.0 8.0882e-05
16010.0 8.0687e-05
16030.0 8.0488e-05
16050.0 8.0302e-05
16070.0 8.0109e-05
16090.0 7.9908e-05
16110.0 7.9713e-05
16130.0 7.9522e-05
16150.0 7.9314e-05
16170.0 7.9109e-05
16190.0 7.8912e-05
16210.0 7.8708e-05
16230.0 7.8497e-05
16250.0 7.8293e-05
16270.0 7.8091e-05
16290.0 7.7877e-05
16310.0 7.7664e-05
16330.0 7.7457e-05
16350.0 7.7243e-05
16370.0 7.7016e-05
16390.0 7.6803e-05
16410.0 7.6589e-05
16430.0 7.6364e-05
16450.0 7.614e-05
16470.0 7.5925e-05
16490.0 7.5697e-05
16510.0 7.5464e-05
16530.0 7.5239e-05
16550.0 7.5012e-05
16570.0 7.4773e-05
16590.0 7.4536e-05
16610.0 7.4309e-05
16630.0 7.4071e-05
16650.0 7.3828e-05
16670.0 7.3592e-05
16690.0 7.3355e-05
16710.0 7.3102e-05
16730.0 7.2856e-05
16750.0 7.2614e-05
16770.0 7.2363e-05
16790.0 7.2107e-05
16810.0 7.186e-05
16830.0 7.161e-05
16850.0 7.135e-05
16870.0 7.1093e-05
16890.0 7.0841e-05
16910.0 7.0577e-05
16930.0 7.0308e-05
16950.0 7.005e-05
16970.0 6.9787e-05
16990.0 6.9515e-05
17010.0 6.9248e-05
17030.0 6.8986e-05
17050.0 6.8711e-05
17070.0 6.8435e-05
17090.0 6.8166e-05
17110.0 6.7892e-05
17130.0 6.7606e-05
17150.0 6.7329e-05
17170.0 6.7055e-05
17190.0 6.6771e-05
17210.0 6.6486e-05
17230.0 6.621e-05
17250.0 6.5925e-05
17270.0 6.5631e-05
17290.0 6.5345e-05
17310.0 6.5061e-05
17330.0 6.4767e-05
17350.0 6.447e-05
17370.0 6.4186e-05
17390.0 6.3893e-05
17410.0 6.3594e-05
17430.0 6.3301e-05
17450.0 6.3011e-05
17470.0 6.2705e-05
17490.0 6.2403e-05
17510.0 6.2109e-05
17530.0 6.1808e-05
17550.0 6.1501e-05
17570.0 6.1202e-05
17590.0 6.0905e-05
17610.0 6.0596e-05
17630.0 6.0289e-05
17650.0 5.999e-05
17670.0 5.9683e-05
17690.0 5.9365e-05
17710.0 5.9062e-05
17730.0 5.8758e-05
17750.0 5.8445e-05
17770.0 5.8135e-05
17790.0 5.7833e-05
17810.0 5.7519e-05
17830.0 5.7202e-05
17850.0 5.6894e-05
17870.0 5.6585e-05
17890.0 5.6266e-05
17910.0 5.595e-05
17930.0 5.5645e-05
17950.0 5.533e-05
17970.0 5.5013e-05
17990.0 5.4703e-05
18010.0 5.4393e-05
18030.0 5.4069e-05
18050.0 5.3754e-05
18070.0 5.3444e-05
18090.0 5.3127e-05
18110.0 5.2807e-05
18130.0 5.2497e-05
18150.0 5.2185e-05
18170.0 5.1865e-05
18190.0 5.155e-05
18210.0 5.1241e-05
18230.0 5.0921e-05
18250.0 5.06e-05
18270.0 5.029e-05
18290.0 4.9977e-05
18310.0 4.9658e-05
18330.0 4.9345e-05
18350.0 4.9037e-05
18370.0 4.8719e-05
18390.0 4.8402e-05
18410.0 4.8093e-05
18430.0 4.7781e-05
18450.0 4.746e-05
18470.0 4.7149e-05
18490.0 4.6843e-05
18510.0 4.6528e-05
18530.0 4.6215e-05
18550.0 4.5911e-05
18570.0 4.56e-05
18590.0 4.5283e-05
18610.0 4.4976e-05
18630.0 4.4671e-05
18650.0 4.4358e-05
18670.0 4.4046e-05
18690.0 4.3747e-05
18710.0 4.344e-05
18730.0 4.313e-05
18750.0 4.2828e-05
18770.0 4.2529e-05
18790.0 4.2216e-05
18810.0 4.1911e-05
18830.0 4.1613e-05
18850.0 4.1311e-05
18870.0 4.1005e-05
18890.0 4.0708e-05
18910.0 4.0413e-05
18930.0 4.0109e-05
18950.0 3.981e-05
18970.0 3.9518e-05
18990.0 3.9221e-05
19010.0 3.8915e-05
19030.0 3.8626e-05
19050.0 3.8335e-05
19070.0 3.8038e-05
19090.0 3.7746e-05
19110.0 3.7462e-05
19130.0 3.7167e-05
19150.0 3.6873e-05
19170.0 3.6588e-05
19190.0 3.6302e-05
19210.0 3.601e-05
19230.0 3.5722e-05
19250.0 3.5444e-05
19270.0 3.5158e-05
19290.0 3.4872e-05
19310.0 3.4595e-05
19330.0 3.4316e-05
19350.0 3.4028e-05
19370.0 3.3749e-05
19390.0 3.3475e-05
19410.0 3.3196e-05
19430.0 3.2915e-05
19450.0 3.2645e-05
19470.0 3.2373e-05
19490.0 3.2096e-05
19510.0 3.1824e-05
19530.0 3.1558e-05
19550.0 3.1283e-05
19570.0 3.1009e-05
19590.0 3.0746e-05
19610.0 3.048e-05
19630.0 3.0209e-05
19650.0 2.9946e-05
19670.0 2.9688e-05
19690.0 2.942e-05
19710.0 2.9156e-05
19730.0 2.8899e-05
19750.0 2.864e-05
19770.0 2.8373e-05
19790.0 2.8117e-05
19810.0 2.7865e-05
19830.0 2.7606e-05
19850.0 2.7348e-05
19870.0 2.7096e-05
19890.0 2.6833e-05
19910.0 2.6556e-05
19930.0 2.6273e-05
19950.0 2.5971e-05
19970.0 2.5628e-05
19990.0 2.5246e-05
20010.0 2.533e-05
20030.0 2.4857e-05
20050.0 2.4334e-05
20070.0 2.3792e-05
20090.0 2.3231e-05
20110.0 2.2624e-05
20130.0 2.2031e-05
20150.0 2.1461e-05
20170.0 2.0888e-05
20190.0 2.0325e-05
20210.0 1.9804e-05
20230.0 1.9308e-05
20250.0 1.8822e-05
20270.0 1.8378e-05
20290.0 1.7979e-05
20310.0 1.7607e-05
20330.0 1.7265e-05
20350.0 1.6986e-05
20370.0 1.6743e-05
20390.0 1.6537e-05
20410.0 1.6378e-05
20430.0 1.6262e-05
20450.0 1.6184e-05
20470.0 1.6147e-05
20490.0 1.6147e-05
20510.0 1.618e-05
20530.0 1.625e-05
20550.0 1.6346e-05
20570.0 1.6462e-05
20590.0 1.6606e-05
20610.0 1.6769e-05
20630.0 1.6942e-05
20650.0 1.7128e-05
20670.0 1.7336e-05
20690.0 1.7541e-05
20710.0 1.7747e-05
20730.0 1.7964e-05
20750.0 1.8185e-05
20770.0 1.8396e-05
20790.0 1.8612e-05
20810.0 1.8837e-05
20830.0 1.9057e-05
20850.0 1.9273e-05
20870.0 1.9504e-05
20890.0 1.9738e-05
20910.0 1.9962e-05
20930.0 2.0195e-05
20950.0 2.0438e-05
20970.0 2.0676e-05
20990.0 2.0913e-05
21010.0 2.1164e-05
21030.0 2.1412e-05
21050.0 2.165e-05
21070.0 2.1888e-05
21090.0 2.213e-05
21110.0 2.2351e-05
21130.0 2.2559e-05
21150.0 2.2763e-05
21170.0 2.2951e-05
21190.0 2.3114e-05
21210.0 2.3267e-05
21230.0 2.3401e-05
21250.0 2.3507e-05
21270.0 2.359e-05
21290.0 2.365e-05
21310.0 2.3682e-05
21330.0 2.3683e-05
21350.0 2.3656e-05
21370.0 2.3596e-05
21390.0 2.3505e-05
21410.0 2.3381e-05
21430.0 2.3215e-05
21450.0 2.3018e-05
21470.0 2.2792e-05
21490.0 2.2528e-05
21510.0 2.2228e-05
21530.0 2.1912e-05
21550.0 2.1571e-05
21570.0 2.1195e-05
21590.0 2.0813e-05
21610.0 2.043e-05
21630.0 2.0032e-05
21650.0 1.9627e-05
21670.0 1.9258e-05
21690.0 1.8899e-05
21710.0 1.8554e-05
21730.0 1.8244e-05
21750.0 1.7976e-05
21770.0 1.7732e-05
21790.0 1.7533e-05
21810.0 1.7385e-05
21830.0 1.7281e-05
21850.0 1.7224e-05
21870.0 1.7216e-05
21890.0 1.7252e-05
21910.0 1.7336e-05
21930.0 1.7464e-05
21950.0 1.7628e-05
21970.0 1.783e-05
21990.0 1.8081e-05
22010.0 1.8351e-05
22030.0 1.8644e-05
22050.0 1.8971e-05
22070.0 1.9318e-05
22090.0 1.9664e-05
22110.0 2.0029e-05
22130.0 2.0411e-05
22150.0 2.0783e-05
22170.0 2.1147e-05
22190.0 2.152e-05
22210.0 2.1879e-05
22230.0 2.2203e-05
22250.0 2.2515e-05
22270.0 2.2807e-05
22290.0 2.3059e-05
22310.0 2.3277e-05
22330.0 2.3468e-05
22350.0 2.3614e-05
22370.0 2.3714e-05
22390.0 2.3772e-05
22410.0 2.3783e-05
22430.0 2.3745e-05
22450.0 2.3662e-05
22470.0 2.3528e-05
22490.0 2.3347e-05
22510.0 2.3127e-05
22530.0 2.2852e-05
22550.0 2.2526e-05
22570.0 2.2171e-05
22590.0 2.1777e-05
22610.0 2.1331e-05
22630.0 2.0855e-05
22650.0 2.0369e-05
22670.0 1.9836e-05
