#lamb flux
1010.0 6.1589e-05
1030.0 8.1296e-05
1050.0 0.0001049
1070.0 0.00013236
1090.0 0.0001642
1110.0 0.00019751
1130.0 0.00023113
1150.0 0.00026558
1170.0 0.00029962
1190.0 0.00032967
1210.0 0.00035705
1230.0 0.0003816
1250.0 0.00040099
1270.0 0.00041464
1290.0 0.00042475
1310.0 0.00042954
1330.0 0.00042823
1350.0 0.00042273
1370.0 0.00041422
1390.0 0.00040154
1410.0 0.00038552
1430.0 0.00036821
1450.0 0.0003494
1470.0 0.00032933
1490.0 0.00030925
1510.0 0.00028985
1530.0 0.00027023
1550.0 0.00025151
1570.0 0.00023427
1590.0 0.00021836
1610.0 0.00020371
1630.0 0.00019064
1650.0 0.00017904
1670.0 0.0001685
1690.0 0.00015912
1710.0 0.00015103
1730.0 0.0001439
1750.0 0.00013696
1770.0 0.00013089
1790.0 0.00012554
1810.0 0.00012068
1830.0 0.00011629
1850.0 0.00011217
1870.0 0.00010843
1890.0 0.00010497
1910.0 0.0001019
1930.0 9.9218e-05
1950.0 9.6775e-05
1970.0 9.4681e-05
1990.0 9.3068e-05
2010.0 9.1894e-05
2030.0 9.1216e-05
2050.0 9.1252e-05
2070.0 9.2119e-05
2090.0 9.3822e-05
2110.0 9.6621e-05
2130.0 0.00010075
2150.0 0.00010633
2170.0 0.0001135
2190.0 0.00012263
2210.0 0.00013385
2230.0 0.00014728
2250.0 0.00016314
2270.0 0.00018173
2290.0 0.00020299
2310.0 0.00022693
2330.0 0.00025383
2350.0 0.00028361
2370.0 0.00031599
2390.0 0.00035098
2410.0 0.0003885
2430.0 0.00042777
2450.0 0.00046824
2470.0 0.00050945
2490.0 0.00055052
2510.0 0.00059073
2530.0 0.00063031
2550.0 0.0006703
2570.0 0.00071312
2590.0 0.0007624
2610.0 0.00082611
2630.0 0.00091199
2650.0 0.0010242
2670.0 0.001172
2690.0 0.0013641
2710.0 0.0015916
2730.0 0.0018473
2750.0 0.0021391
2770.0 0.0024441
2790.0 0.0027395
2810.0 0.0030243
2830.0 0.0032946
2850.0 0.0035206
2870.0 0.0037151
2890.0 0.0038881
2910.0 0.0040391
2930.0 0.0041696
2950.0 0.0042938
2970.0 0.0044129
2990.0 0.0045231
3010.0 0.0046282
3030.0 0.0047335
3050.0 0.004835
3070.0 0.0049258
3090.0 0.0050136
3110.0 0.0050944
3130.0 0.0051613
3150.0 0.0052151
3170.0 0.0052581
3190.0 0.0052866
3210.0 0.005306
3230.0 0.0053241
3250.0 0.0053466
3270.0 0.0053758
3290.0 0.0054169
3310.0 0.0054737
3330.0 0.0055391
3350.0 0.0056069
3370.0 0.0056783
3390.0 0.0057493
3410.0 0.0058114
3430.0 0.0058662
3450.0 0.0059084
3470.0 0.0061032
3490.0 0.006028
3510.0 0.0054858
3530.0 0.0059918
3550.0 0.0068766
3570.0 0.0075651
3590.0 0.0085741
3610.0 0.0091589
3630.0 0.0095808
3650.0 0.0086596
3670.0 0.0075504
3690.0 0.0071878
3710.0 0.0078404
3730.0 0.0091123
3750.0 0.0094397
3770.0 0.0095232
3790.0 0.0097659
3810.0 0.0091266
3830.0 0.0081686
3850.0 0.0073909
3870.0 0.0068734
3890.0 0.0076284
3910.0 0.0082704
3930.0 0.0084543
3950.0 0.0085425
3970.0 0.0089306
3990.0 0.0094804
4010.0 0.0095827
4030.0 0.009119
4050.0 0.0082784
4070.0 0.00817
4090.0 0.0085807
4110.0 0.00907
4130.0 0.008813
4150.0 0.0085701
4170.0 0.0084784
4190.0 0.0088878
4210.0 0.0088147
4230.0 0.0081682
4250.0 0.0073118
4270.0 0.0065548
4290.0 0.0059602
4310.0 0.0055569
4330.0 0.0054462
4350.0 0.0059728
4370.0 0.0061339
4390.0 0.0063251
4410.0 0.0066822
4430.0 0.0068685
4450.0 0.0066992
4470.0 0.0065241
4490.0 0.0066723
4510.0 0.0068133
4530.0 0.0069649
4550.0 0.0070876
4570.0 0.0071042
4590.0 0.0073398
4610.0 0.0074716
4630.0 0.0077224
4650.0 0.0079359
4670.0 0.0078016
4690.0 0.0073053
4710.0 0.006649
4730.0 0.0063618
4750.0 0.0063045
4770.0 0.0060669
4790.0 0.0057809
4810.0 0.0056021
4830.0 0.0056989
4850.0 0.0056526
4870.0 0.0056677
4890.0 0.0054873
4910.0 0.0050395
4930.0 0.0051036
4950.0 0.0047608
4970.0 0.004322
4990.0 0.0042211
5010.0 0.0039366
5030.0 0.0037047
5050.0 0.0037012
5070.0 0.004016
5090.0 0.0041718
5110.0 0.0046256
5130.0 0.004763
5150.0 0.0049137
5170.0 0.0050634
5190.0 0.0049857
5210.0 0.004993
5230.0 0.0050867
5250.0 0.0051009
5270.0 0.0052235
5290.0 0.0051908
5310.0 0.0050918
5330.0 0.0048313
5350.0 0.0045726
5370.0 0.0042889
5390.0 0.0043445
5410.0 0.004431
5430.0 0.0044221
5450.0 0.0044566
5470.0 0.0044187
5490.0 0.0043529
5510.0 0.0043111
5530.0 0.0042198
5550.0 0.0042372
5570.0 0.0042843
5590.0 0.0043397
5610.0 0.0042927
5630.0 0.0041955
5650.0 0.0041481
5670.0 0.0040623
5690.0 0.0039441
5710.0 0.0038179
5730.0 0.0037639
5750.0 0.0037542
5770.0 0.0036842
5790.0 0.0036023
5810.0 0.0035786
5830.0 0.0036426
5850.0 0.0037024
5870.0 0.0036975
5890.0 0.0036479
5910.0 0.0036427
5930.0 0.0036651
5950.0 0.003647
5970.0 0.0036059
5990.0 0.0035555
6010.0 0.0036244
6030.0 0.0036342
6050.0 0.0035527
6070.0 0.0035627
6090.0 0.0035529
6110.0 0.0035575
6130.0 0.0035536
6150.0 0.0034469
6170.0 0.0031925
6190.0 0.0029511
6210.0 0.0028481
6230.0 0.0028025
6250.0 0.0028181
6270.0 0.0029241
6290.0 0.0030086
6310.0 0.0031044
6330.0 0.0031937
6350.0 0.00324
6370.0 0.0032425
6390.0 0.0031594
6410.0 0.0030942
6430.0 0.0030017
6450.0 0.0029272
6470.0 0.0028829
6490.0 0.0028868
6510.0 0.002886
6530.0 0.0028785
6550.0 0.002818
6570.0 0.0027728
6590.0 0.0027527
6610.0 0.0026876
6630.0 0.0026533
6650.0 0.0026084
6670.0 0.0025274
6690.0 0.0024453
6710.0 0.002384
6730.0 0.0023591
6750.0 0.0023215
6770.0 0.0022989
6790.0 0.0022988
6810.0 0.0022604
6830.0 0.0022368
6850.0 0.0022114
6870.0 0.0021579
6890.0 0.0021488
6910.0 0.0021297
6930.0 0.0020885
6950.0 0.0020894
6970.0 0.0020648
6990.0 0.0020637
7010.0 0.0020298
7030.0 0.0020092
7050.0 0.0019986
7070.0 0.0019595
7090.0 0.0018994
7110.0 0.001852
7130.0 0.0018555
7150.0 0.0018785
7170.0 0.0018906
7190.0 0.0019255
7210.0 0.0019463
7230.0 0.0019672
7250.0 0.0019909
7270.0 0.001949
7290.0 0.001936
7310.0 0.0018981
7330.0 0.0018262
7350.0 0.0017884
7370.0 0.0017605
7390.0 0.0017392
7410.0 0.0017529
7430.0 0.0017413
7450.0 0.0017121
7470.0 0.0016788
7490.0 0.0016188
7510.0 0.0015166
7530.0 0.0015626
7550.0 0.0015743
7570.0 0.0015528
7590.0 0.0014395
7610.0 0.0014719
7630.0 0.0014603
7650.0 0.0014716
7670.0 0.0014692
7690.0 0.0015049
7710.0 0.0014833
7730.0 0.0015454
7750.0 0.0015746
7770.0 0.0016468
7790.0 0.0017092
7810.0 0.0017482
7830.0 0.0018156
7850.0 0.001805
7870.0 0.0018368
7890.0 0.0018104
7910.0 0.0017512
7930.0 0.0017286
7950.0 0.0017121
7970.0 0.001697
7990.0 0.0017003
8010.0 0.0015492
8030.0 0.0015397
8050.0 0.0015087
8070.0 0.0014943
8090.0 0.0014481
8110.0 0.0014591
8130.0 0.0014806
8150.0 0.0015086
8170.0 0.001495
8190.0 0.0015205
8210.0 0.0015008
8230.0 0.0014272
8250.0 0.0014052
8270.0 0.0013806
8290.0 0.0013566
8310.0 0.0013034
8330.0 0.0013177
8350.0 0.0013132
8370.0 0.0013163
8390.0 0.0013389
8410.0 0.0013295
8430.0 0.0013447
8450.0 0.0013595
8470.0 0.0013717
8490.0 0.0013892
8510.0 0.0013632
8530.0 0.0013134
8550.0 0.0013237
8570.0 0.0013237
8590.0 0.0012824
8610.0 0.0013094
8630.0 0.0012906
8650.0 0.0012657
8670.0 0.001257
8690.0 0.0012539
8710.0 0.0012016
8730.0 0.0012209
8750.0 0.0011802
8770.0 0.0011758
8790.0 0.0011422
8810.0 0.0011275
8830.0 0.0011289
8850.0 0.0010814
8870.0 0.0010276
8890.0 0.0010144
8910.0 0.0009573
8930.0 0.00088446
8950.0 0.00088419
8970.0 0.00085237
8990.0 0.00084567
9010.0 0.00083736
9030.0 0.00083146
9050.0 0.00082558
9070.0 0.00081965
9090.0 0.00081368
9110.0 0.00080762
9130.0 0.00080158
9150.0 0.00079559
9170.0 0.00078957
9190.0 0.00078352
9210.0 0.00077746
9230.0 0.00077137
9250.0 0.00076529
9270.0 0.0007592
9290.0 0.00075311
9310.0 0.00074702
9330.0 0.00074095
9350.0 0.00073488
9370.0 0.00072882
9390.0 0.00072279
9410.0 0.00071675
9430.0 0.00071074
9450.0 0.00070475
9470.0 0.00069923
9490.0 0.0006935
9510.0 0.00068732
9530.0 0.00068124
9550.0 0.00067527
9570.0 0.00066939
9590.0 0.00066355
9610.0 0.00065776
9630.0 0.00065205
9650.0 0.00064636
9670.0 0.0006407
9690.0 0.0006351
9710.0 0.00062954
9730.0 0.00062401
9750.0 0.00061853
9770.0 0.00061314
9790.0 0.00060775
9810.0 0.00060241
9830.0 0.00059704
9850.0 0.000591
9870.0 0.00058562
9890.0 0.00058094
9910.0 0.00057618
9930.0 0.00057039
9950.0 0.00056542
9970.0 0.00056093
9990.0 0.00055631
10010.0 0.00055169
10030.0 0.00054704
10050.0 0.00054239
10070.0 0.00053781
10090.0 0.00053331
10110.0 0.00052874
10130.0 0.00052422
10150.0 0.00051986
10170.0 0.00051552
10190.0 0.00051116
10210.0 0.00050695
10230.0 0.00050282
10250.0 0.00049866
10270.0 0.00049458
10290.0 0.00049062
10310.0 0.00048665
10330.0 0.00048267
10350.0 0.00047885
10370.0 0.00047509
10390.0 0.0004713
10410.0 0.00046754
10430.0 0.00046391
10450.0 0.00046038
10470.0 0.00045684
10490.0 0.00045342
10510.0 0.00045005
10530.0 0.00044661
10550.0 0.00044327
10570.0 0.00044006
10590.0 0.00043683
10610.0 0.00043363
10630.0 0.00043055
10650.0 0.00042751
10670.0 0.00042443
10690.0 0.00042145
10710.0 0.00041856
10730.0 0.00041566
10750.0 0.00041274
10770.0 0.00041
10790.0 0.00040728
10810.0 0.00040453
10830.0 0.00040187
10850.0 0.00039932
10870.0 0.00039669
10890.0 0.00039413
10910.0 0.0003917
10930.0 0.00038932
10950.0 0.00038696
10970.0 0.00038474
10990.0 0.00038268
11010.0 0.00040849
11030.0 0.00040694
11050.0 0.00040542
11070.0 0.00040383
11090.0 0.00040206
11110.0 0.00040025
11130.0 0.00039835
11150.0 0.00039626
11170.0 0.00039405
11190.0 0.00039186
11210.0 0.00038955
11230.0 0.00038714
11250.0 0.00038479
11270.0 0.00038251
11290.0 0.00038018
11310.0 0.00037792
11330.0 0.00037589
11350.0 0.0003739
11370.0 0.00037197
11390.0 0.00037023
11410.0 0.0003686
11430.0 0.00036695
11450.0 0.0003654
11470.0 0.00036395
11490.0 0.00036246
11510.0 0.0003609
11530.0 0.00035939
11550.0 0.00035785
11570.0 0.00035616
11590.0 0.00035443
11610.0 0.0003527
11630.0 0.00035084
11650.0 0.00034886
11670.0 0.00034696
11690.0 0.00034505
11710.0 0.00034305
11730.0 0.00034108
11750.0 0.00033925
11770.0 0.00033735
11790.0 0.00033545
11810.0 0.00033367
11830.0 0.00033194
11850.0 0.00033013
11870.0 0.00032845
11890.0 0.00032689
11910.0 0.00032534
11930.0 0.00032384
11950.0 0.00032252
11970.0 0.0003213
11990.0 0.00032013
12010.0 0.00031918
12030.0 0.00031842
12050.0 0.00031781
12070.0 0.00031739
12090.0 0.00031723
12110.0 0.00031726
12130.0 0.00031747
12150.0 0.00031788
12170.0 0.00031846
12190.0 0.00031919
12210.0 0.00032006
12230.0 0.00032101
12250.0 0.00032204
12270.0 0.00032312
12290.0 0.00032421
12310.0 0.00032528
12330.0 0.00032634
12350.0 0.00032734
12370.0 0.00032826
12390.0 0.00032909
12410.0 0.0003298
12430.0 0.00033037
12450.0 0.00033079
12470.0 0.00033103
12490.0 0.00033106
12510.0 0.00033091
12530.0 0.00033052
12550.0 0.00032986
12570.0 0.00032899
12590.0 0.0003279
12610.0 0.00032648
12630.0 0.00032482
12650.0 0.00032306
12670.0 0.00032104
12690.0 0.00031877
12710.0 0.00031644
12730.0 0.00031402
12750.0 0.00031132
12770.0 0.00030861
12790.0 0.00030596
12810.0 0.00030321
12830.0 0.00030039
12850.0 0.00029776
12870.0 0.00029519
12890.0 0.0002926
12910.0 0.00029014
12930.0 0.00028788
12950.0 0.00028564
12970.0 0.00028348
12990.0 0.00028156
13010.0 0.00027975
13030.0 0.00027798
13050.0 0.00027635
13070.0 0.00027487
13090.0 0.00027339
13110.0 0.00027197
13130.0 0.00027066
13150.0 0.00026939
13170.0 0.00026809
13190.0 0.00026688
13210.0 0.00026573
13230.0 0.00026457
13250.0 0.00026341
13270.0 0.00026232
13290.0 0.00026121
13310.0 0.00026004
13330.0 0.00025889
13350.0 0.00025774
13370.0 0.0002565
13390.0 0.00025519
13410.0 0.00025389
13430.0 0.0002525
13450.0 0.000251
13470.0 0.00024946
13490.0 0.0002479
13510.0 0.00024617
13530.0 0.00024439
13550.0 0.00024261
13570.0 0.00024075
13590.0 0.00023879
13610.0 0.00023684
13630.0 0.0002349
13650.0 0.00023285
13670.0 0.00023077
13690.0 0.00022873
13710.0 0.00022663
13730.0 0.00022441
13750.0 0.00022228
13770.0 0.00022015
13790.0 0.00021795
13810.0 0.00021574
13830.0 0.00021362
13850.0 0.00021144
13870.0 0.00020923
13890.0 0.0002071
13910.0 0.00020501
13930.0 0.00020286
13950.0 0.00020076
13970.0 0.00019878
13990.0 0.00019678
14010.0 0.00019479
14030.0 0.00019289
14050.0 0.00019103
14070.0 0.00018912
14090.0 0.00018728
14110.0 0.0001855
14130.0 0.00018371
14150.0 0.00018191
14170.0 0.00018019
14190.0 0.00017848
14210.0 0.00017674
14230.0 0.00017504
14250.0 0.0001734
14270.0 0.00017173
14290.0 0.00017006
14310.0 0.00016848
14330.0 0.00016694
14350.0 0.0001654
14370.0 0.00016392
14390.0 0.00016253
14410.0 0.00016114
14430.0 0.00015979
14450.0 0.00015852
14470.0 0.00015728
14490.0 0.00015604
14510.0 0.00015487
14530.0 0.00015374
14550.0 0.0001526
14570.0 0.00015148
14590.0 0.00015039
14610.0 0.00014931
14630.0 0.0001482
14650.0 0.00014713
14670.0 0.00014607
14690.0 0.00014499
14710.0 0.00014391
14730.0 0.00014289
14750.0 0.00014185
14770.0 0.00014081
14790.0 0.0001398
14810.0 0.00013882
14830.0 0.00013781
14850.0 0.00013682
14870.0 0.00013586
14890.0 0.00013491
14910.0 0.00013395
14930.0 0.00013303
14950.0 0.00013214
14970.0 0.00013125
14990.0 0.0001304
15010.0 0.0001296
15030.0 0.00012883
15050.0 0.00012807
15070.0 0.00012736
15090.0 0.00012668
15110.0 0.000126
15130.0 0.00012533
15150.0 0.00012469
15170.0 0.00012403
15190.0 0.00012338
15210.0 0.00012274
15230.0 0.0001221
15250.0 0.00012146
15270.0 0.00012082
15290.0 0.0001202
15310.0 0.00011958
15330.0 0.00011895
15350.0 0.00011834
15370.0 0.00011773
15390.0 0.00011711
15410.0 0.0001165
15430.0 0.00011591
15450.0 0.00011531
15470.0 0.00011471
15490.0 0.00011413
15510.0 0.00011355
15530.0 0.00011296
15550.0 0.00011239
15570.0 0.00011182
15590.0 0.00011125
15610.0 0.00011068
15630.0 0.00011013
15650.0 0.00010958
15670.0 0.00010902
15690.0 0.00010848
15710.0 0.00010795
15730.0 0.00010741
15750.0 0.00010688
15770.0 0.00010636
15790.0 0.00010584
15810.0 0.00010531
15830.0 0.0001048
15850.0 0.00010431
15870.0 0.0001038
15890.0 0.0001033
15910.0 0.00010282
15930.0 0.00010233
15950.0 0.00010184
15970.0 0.00010136
15990.0 0.0001009
16010.0 0.00010042
16030.0 9.9955e-05
16050.0 9.9504e-05
16070.0 9.9052e-05
16090.0 9.8598e-05
16110.0 9.8156e-05
16130.0 9.7723e-05
16150.0 9.7279e-05
16170.0 9.6845e-05
16190.0 9.6425e-05
16210.0 9.6004e-05
16230.0 9.558e-05
16250.0 9.5171e-05
16270.0 9.477e-05
16290.0 9.4361e-05
16310.0 9.3961e-05
16330.0 9.3572e-05
16350.0 9.3182e-05
16370.0 9.2785e-05
16390.0 9.2408e-05
16410.0 9.2036e-05
16430.0 9.1659e-05
16450.0 9.1288e-05
16470.0 9.0932e-05
16490.0 9.057e-05
16510.0 9.0208e-05
16530.0 8.9859e-05
16550.0 8.9514e-05
16570.0 8.9163e-05
16590.0 8.882e-05
16610.0 8.8491e-05
16630.0 8.8158e-05
16650.0 8.7826e-05
16670.0 8.7505e-05
16690.0 8.7189e-05
16710.0 8.6862e-05
16730.0 8.6548e-05
16750.0 8.6243e-05
16770.0 8.5935e-05
16790.0 8.5625e-05
16810.0 8.5331e-05
16830.0 8.5039e-05
16850.0 8.4741e-05
16870.0 8.4452e-05
16890.0 8.4172e-05
16910.0 8.3884e-05
16930.0 8.3597e-05
16950.0 8.3326e-05
16970.0 8.3054e-05
16990.0 8.2778e-05
17010.0 8.2512e-05
17030.0 8.2254e-05
17050.0 8.1988e-05
17070.0 8.1725e-05
17090.0 8.1473e-05
17110.0 8.1221e-05
17130.0 8.0961e-05
17150.0 8.0713e-05
17170.0 8.0473e-05
17190.0 8.0227e-05
17210.0 7.9983e-05
17230.0 7.9751e-05
17250.0 7.9515e-05
17270.0 7.9274e-05
17290.0 7.9043e-05
17310.0 7.8818e-05
17330.0 7.8586e-05
17350.0 7.8355e-05
17370.0 7.8139e-05
17390.0 7.7918e-05
17410.0 7.7694e-05
17430.0 7.7479e-05
17450.0 7.7269e-05
17470.0 7.7046e-05
17490.0 7.683e-05
17510.0 7.6624e-05
17530.0 7.6415e-05
17550.0 7.6201e-05
17570.0 7.5998e-05
17590.0 7.5798e-05
17610.0 7.5589e-05
17630.0 7.5385e-05
17650.0 7.519e-05
17670.0 7.4989e-05
17690.0 7.4779e-05
17710.0 7.4587e-05
17730.0 7.4394e-05
17750.0 7.4194e-05
17770.0 7.3998e-05
17790.0 7.3812e-05
17810.0 7.3616e-05
17830.0 7.3418e-05
17850.0 7.323e-05
17870.0 7.3042e-05
17890.0 7.2844e-05
17910.0 7.2652e-05
17930.0 7.247e-05
17950.0 7.228e-05
17970.0 7.2088e-05
17990.0 7.1905e-05
18010.0 7.1721e-05
18030.0 7.1524e-05
18050.0 7.1337e-05
18070.0 7.1155e-05
18090.0 7.0966e-05
18110.0 7.0773e-05
18130.0 7.0593e-05
18150.0 7.0409e-05
18170.0 7.0217e-05
18190.0 7.003e-05
18210.0 6.985e-05
18230.0 6.9657e-05
18250.0 6.9463e-05
18270.0 6.9281e-05
18290.0 6.9094e-05
18310.0 6.8901e-05
18330.0 6.8713e-05
18350.0 6.8531e-05
18370.0 6.8336e-05
18390.0 6.8143e-05
18410.0 6.7956e-05
18430.0 6.7766e-05
18450.0 6.7564e-05
18470.0 6.7373e-05
18490.0 6.7186e-05
18510.0 6.6988e-05
18530.0 6.679e-05
18550.0 6.6602e-05
18570.0 6.6404e-05
18590.0 6.6198e-05
18610.0 6.6002e-05
18630.0 6.5806e-05
18650.0 6.56e-05
18670.0 6.5394e-05
18690.0 6.5199e-05
18710.0 6.4995e-05
18730.0 6.4785e-05
18750.0 6.4582e-05
18770.0 6.438e-05
18790.0 6.4162e-05
18810.0 6.3949e-05
18830.0 6.3743e-05
18850.0 6.353e-05
18870.0 6.331e-05
18890.0 6.3099e-05
18910.0 6.2888e-05
18930.0 6.2663e-05
18950.0 6.2442e-05
18970.0 6.2227e-05
18990.0 6.2003e-05
19010.0 6.1768e-05
19030.0 6.1548e-05
19050.0 6.1325e-05
19070.0 6.1091e-05
19090.0 6.0861e-05
19110.0 6.0637e-05
19130.0 6.0399e-05
19150.0 6.0159e-05
19170.0 5.9926e-05
19190.0 5.969e-05
19210.0 5.9442e-05
19230.0 5.9199e-05
19250.0 5.8963e-05
19270.0 5.8716e-05
19290.0 5.8466e-05
19310.0 5.8222e-05
19330.0 5.7975e-05
19350.0 5.7713e-05
19370.0 5.746e-05
19390.0 5.721e-05
19410.0 5.695e-05
19430.0 5.6685e-05
19450.0 5.6431e-05
19470.0 5.6171e-05
19490.0 5.5902e-05
19510.0 5.5637e-05
19530.0 5.5375e-05
19550.0 5.51e-05
19570.0 5.4822e-05
19590.0 5.4556e-05
19610.0 5.4283e-05
19630.0 5.4001e-05
19650.0 5.3726e-05
19670.0 5.3453e-05
19690.0 5.3166e-05
19710.0 5.288e-05
19730.0 5.2601e-05
19750.0 5.2315e-05
19770.0 5.2018e-05
19790.0 5.1731e-05
19810.0 5.1446e-05
19830.0 5.115e-05
19850.0 5.0854e-05
19870.0 5.0566e-05
19890.0 5.0269e-05
19910.0 4.9965e-05
19930.0 4.9673e-05
19950.0 4.9384e-05
19970.0 4.9091e-05
19990.0 4.8803e-05
20010.0 4.8533e-05
20030.0 4.826e-05
20050.0 4.799e-05
20070.0 4.773e-05
20090.0 4.7475e-05
20110.0 4.7209e-05
20130.0 4.6951e-05
20150.0 4.6698e-05
20170.0 4.6439e-05
20190.0 4.6177e-05
20210.0 4.5923e-05
20230.0 4.5668e-05
20250.0 4.5406e-05
20270.0 4.515e-05
20290.0 4.4901e-05
20310.0 4.465e-05
20330.0 4.4396e-05
20350.0 4.4158e-05
20370.0 4.3923e-05
20390.0 4.3689e-05
20410.0 4.3463e-05
20430.0 4.3248e-05
20450.0 4.3033e-05
20470.0 4.2825e-05
20490.0 4.263e-05
20510.0 4.2441e-05
20530.0 4.2259e-05
20550.0 4.2088e-05
20570.0 4.193e-05
20590.0 4.1779e-05
20610.0 4.1639e-05
20630.0 4.1511e-05
20650.0 4.1392e-05
20670.0 4.1285e-05
20690.0 4.1188e-05
20710.0 4.1099e-05
20730.0 4.1018e-05
20750.0 4.0944e-05
20770.0 4.0872e-05
20790.0 4.0803e-05
20810.0 4.0735e-05
20830.0 4.0662e-05
20850.0 4.0584e-05
20870.0 4.0499e-05
20890.0 4.0404e-05
20910.0 4.0296e-05
20930.0 4.0174e-05
20950.0 4.0036e-05
20970.0 3.9881e-05
20990.0 3.9711e-05
21010.0 3.9519e-05
21030.0 3.931e-05
21050.0 3.9086e-05
21070.0 3.8843e-05
21090.0 3.858e-05
21110.0 3.8309e-05
21130.0 3.8027e-05
21150.0 3.7728e-05
21170.0 3.7422e-05
21190.0 3.7115e-05
21210.0 3.6796e-05
21230.0 3.6469e-05
21250.0 3.6148e-05
21270.0 3.5826e-05
21290.0 3.5498e-05
21310.0 3.5172e-05
21330.0 3.4856e-05
21350.0 3.4533e-05
21370.0 3.4209e-05
21390.0 3.389e-05
21410.0 3.3573e-05
21430.0 3.3244e-05
21450.0 3.2919e-05
21470.0 3.2598e-05
21490.0 3.2269e-05
21510.0 3.1935e-05
21530.0 3.1605e-05
21550.0 3.1272e-05
21570.0 3.0927e-05
21590.0 3.0585e-05
21610.0 3.0245e-05
21630.0 2.9898e-05
21650.0 2.9544e-05
21670.0 2.9205e-05
21690.0 2.8863e-05
21710.0 2.8517e-05
21730.0 2.8178e-05
21750.0 2.7848e-05
21770.0 2.751e-05
21790.0 2.7178e-05
21810.0 2.6858e-05
21830.0 2.6541e-05
21850.0 2.6222e-05
21870.0 2.5914e-05
21890.0 2.5615e-05
21910.0 2.5314e-05
21930.0 2.5018e-05
21950.0 2.4731e-05
21970.0 2.4445e-05
21990.0 2.4154e-05
22010.0 2.3873e-05
22030.0 2.3596e-05
22050.0 2.3315e-05
22070.0 2.3034e-05
22090.0 2.2761e-05
22110.0 2.2485e-05
22130.0 2.2203e-05
22150.0 2.1926e-05
22170.0 2.1651e-05
22190.0 2.1368e-05
22210.0 2.1085e-05
22230.0 2.081e-05
22250.0 2.0532e-05
22270.0 2.025e-05
22290.0 1.9975e-05
22310.0 1.9703e-05
22330.0 1.9423e-05
22350.0 1.915e-05
22370.0 1.8884e-05
22390.0 1.8617e-05
22410.0 1.8349e-05
22430.0 1.8093e-05
22450.0 1.7842e-05
22470.0 1.7591e-05
22490.0 1.7347e-05
22510.0 1.7114e-05
22530.0 1.6881e-05
22550.0 1.6652e-05
22570.0 1.6436e-05
22590.0 1.6225e-05
22610.0 1.6017e-05
22630.0 1.5817e-05
22650.0 1.5628e-05
22670.0 1.544e-05
22690.0 1.5256e-05
22710.0 1.5082e-05
22730.0 1.4913e-05
22750.0 1.4744e-05
22770.0 1.4583e-05
22790.0 1.4429e-05
22810.0 1.4278e-05
22830.0 1.413e-05
22850.0 1.3992e-05
22870.0 1.3857e-05
22890.0 1.3725e-05
22910.0 1.36e-05
22930.0 1.3483e-05
22950.0 1.337e-05
22970.0 1.3263e-05
