#lamb flux
1010.0 0.0001903
1030.0 0.0002464
1050.0 0.00031625
1070.0 0.00040177
1090.0 0.0005072
1110.0 0.00062754
1130.0 0.00076231
1150.0 0.00091702
1170.0 0.0010905
1190.0 0.0012722
1210.0 0.001463
1230.0 0.001667
1250.0 0.0018743
1270.0 0.0020788
1290.0 0.0022876
1310.0 0.0024879
1330.0 0.002668
1350.0 0.0028309
1370.0 0.0029754
1390.0 0.0030896
1410.0 0.0031708
1430.0 0.0032293
1450.0 0.0032587
1470.0 0.0032564
1490.0 0.0032316
1510.0 0.0031826
1530.0 0.0031052
1550.0 0.0030138
1570.0 0.0029206
1590.0 0.0028225
1610.0 0.0027194
1630.0 0.0026212
1650.0 0.0025296
1670.0 0.0024419
1690.0 0.0023615
1710.0 0.0022926
1730.0 0.0022335
1750.0 0.0021803
1770.0 0.0021387
1790.0 0.0021077
1810.0 0.0020844
1830.0 0.0020693
1850.0 0.0020656
1870.0 0.0020688
1890.0 0.0020782
1910.0 0.0020959
1930.0 0.0021218
1950.0 0.0021524
1970.0 0.002189
1990.0 0.0022334
2010.0 0.0022831
2030.0 0.0023371
2050.0 0.002398
2070.0 0.0024653
2090.0 0.0025352
2110.0 0.0026099
2130.0 0.0026906
2150.0 0.0027749
2170.0 0.0028612
2190.0 0.0029531
2210.0 0.0030487
2230.0 0.0031456
2250.0 0.0032449
2270.0 0.0033489
2290.0 0.0034533
2310.0 0.0035572
2330.0 0.0036638
2350.0 0.0037714
2370.0 0.003877
2390.0 0.0039825
2410.0 0.0040898
2430.0 0.0041942
2450.0 0.0042968
2470.0 0.004402
2490.0 0.0045127
2510.0 0.0046291
2530.0 0.0047647
2550.0 0.0049371
2570.0 0.0051586
2590.0 0.005446
2610.0 0.005855
2630.0 0.0064025
2650.0 0.007081
2670.0 0.0079306
2690.0 0.0089754
2710.0 0.010133
2730.0 0.011357
2750.0 0.012685
2770.0 0.01399
2790.0 0.015171
2810.0 0.01624
2830.0 0.017192
2850.0 0.017912
2870.0 0.018474
2890.0 0.018935
2910.0 0.019298
2930.0 0.019573
2950.0 0.019823
2970.0 0.020054
2990.0 0.020248
3010.0 0.020423
3030.0 0.020601
3050.0 0.020769
3070.0 0.020903
3090.0 0.02104
3110.0 0.021185
3130.0 0.021339
3150.0 0.021348
3170.0 0.021563
3190.0 0.021978
3210.0 0.022692
3230.0 0.023905
3250.0 0.025978
3270.0 0.028491
3290.0 0.031579
3310.0 0.036092
3330.0 0.037163
3350.0 0.037362
3370.0 0.037537
3390.0 0.037694
3410.0 0.037744
3430.0 0.037708
3450.0 0.037623
3470.0 0.03752
3490.0 0.037267
3510.0 0.036391
3530.0 0.033838
3550.0 0.031675
3570.0 0.033196
3590.0 0.037032
3610.0 0.040548
3630.0 0.044481
3650.0 0.043192
3670.0 0.037995
3690.0 0.03353
3710.0 0.032097
3730.0 0.032957
3750.0 0.03356
3770.0 0.034592
3790.0 0.035783
3810.0 0.036443
3830.0 0.033855
3850.0 0.030796
3870.0 0.029322
3890.0 0.030334
3910.0 0.030869
3930.0 0.03101
3950.0 0.03274
3970.0 0.034761
3990.0 0.035388
4010.0 0.035544
4030.0 0.034387
4050.0 0.033678
4070.0 0.033257
4090.0 0.033474
4110.0 0.033715
4130.0 0.032878
4150.0 0.031712
4170.0 0.031381
4190.0 0.030756
4210.0 0.0287
4230.0 0.026534
4250.0 0.024145
4270.0 0.022195
4290.0 0.021423
4310.0 0.02123
4330.0 0.021939
4350.0 0.023731
4370.0 0.024808
4390.0 0.027141
4410.0 0.029064
4430.0 0.029551
4450.0 0.027477
4470.0 0.025355
4490.0 0.02472
4510.0 0.024366
4530.0 0.024448
4550.0 0.024511
4570.0 0.02496
4590.0 0.025917
4610.0 0.026807
4630.0 0.027554
4650.0 0.027983
4670.0 0.027795
4690.0 0.026307
4710.0 0.024841
4730.0 0.023746
4750.0 0.023173
4770.0 0.022806
4790.0 0.022909
4810.0 0.022486
4830.0 0.021397
4850.0 0.02289
4870.0 0.021941
4890.0 0.022249
4910.0 0.022403
4930.0 0.021167
4950.0 0.018435
4970.0 0.017261
4990.0 0.016204
5010.0 0.015376
5030.0 0.015504
5050.0 0.016383
5070.0 0.016692
5090.0 0.017483
5110.0 0.017562
5130.0 0.01737
5150.0 0.017569
5170.0 0.017005
5190.0 0.016959
5210.0 0.017133
5230.0 0.016467
5250.0 0.016656
5270.0 0.017202
5290.0 0.016921
5310.0 0.016135
5330.0 0.015645
5350.0 0.014836
5370.0 0.014538
5390.0 0.014357
5410.0 0.013896
5430.0 0.014057
5450.0 0.013691
5470.0 0.013766
5490.0 0.01484
5510.0 0.015071
5530.0 0.015151
5550.0 0.015121
5570.0 0.015279
5590.0 0.015197
5610.0 0.015055
5630.0 0.014983
5650.0 0.014815
5670.0 0.014449
5690.0 0.014152
5710.0 0.013871
5730.0 0.014152
5750.0 0.013619
5770.0 0.012901
5790.0 0.012282
5810.0 0.011138
5830.0 0.011818
5850.0 0.012632
5870.0 0.012764
5890.0 0.012901
5910.0 0.013358
5930.0 0.01334
5950.0 0.013369
5970.0 0.013348
5990.0 0.013436
6010.0 0.013113
6030.0 0.012892
6050.0 0.012822
6070.0 0.012683
6090.0 0.012781
6110.0 0.012618
6130.0 0.012258
6150.0 0.011969
6170.0 0.011705
6190.0 0.010993
6210.0 0.010791
6230.0 0.010889
6250.0 0.010794
6270.0 0.010696
6290.0 0.010893
6310.0 0.01115
6330.0 0.011076
6350.0 0.010814
6370.0 0.010804
6390.0 0.010522
6410.0 0.010425
6430.0 0.010157
6450.0 0.010103
6470.0 0.010052
6490.0 0.010025
6510.0 0.009754
6530.0 0.0096318
6550.0 0.0094887
6570.0 0.0093012
6590.0 0.0094541
6610.0 0.0094604
6630.0 0.0092225
6650.0 0.0089097
6670.0 0.0087931
6690.0 0.0086619
6710.0 0.0084378
6730.0 0.0083351
6750.0 0.0084025
6770.0 0.0087421
6790.0 0.0091717
6810.0 0.0089127
6830.0 0.0081706
6850.0 0.0077311
6870.0 0.0076031
6890.0 0.0075655
6910.0 0.0075357
6930.0 0.007481
6950.0 0.0074936
6970.0 0.0072583
6990.0 0.0071501
7010.0 0.0072045
7030.0 0.0072573
7050.0 0.0071054
7070.0 0.0067891
7090.0 0.0066075
7110.0 0.0066365
7130.0 0.0066699
7150.0 0.0066716
7170.0 0.0066318
7190.0 0.0065367
7210.0 0.0067115
7230.0 0.006871
7250.0 0.006857
7270.0 0.0068758
7290.0 0.0069652
7310.0 0.0068736
7330.0 0.0067024
7350.0 0.0064577
7370.0 0.0064208
7390.0 0.0064766
7410.0 0.006197
7430.0 0.0062206
7450.0 0.0061763
7470.0 0.0063245
7490.0 0.006265
7510.0 0.0060292
7530.0 0.0060986
7550.0 0.0058111
7570.0 0.005624
7590.0 0.0055161
7610.0 0.0055911
7630.0 0.0057039
7650.0 0.0058556
7670.0 0.0055659
7690.0 0.0055041
7710.0 0.0057433
7730.0 0.0059451
7750.0 0.0059787
7770.0 0.0060438
7790.0 0.00596
7810.0 0.0060696
7830.0 0.006365
7850.0 0.0062412
7870.0 0.0064684
7890.0 0.0063392
7910.0 0.0062422
7930.0 0.0060704
7950.0 0.0061129
7970.0 0.0061843
7990.0 0.0058787
8010.0 0.0056985
8030.0 0.0056366
8050.0 0.005526
8070.0 0.0054112
8090.0 0.0049747
8110.0 0.0049906
8130.0 0.0053374
8150.0 0.0055398
8170.0 0.0055884
8190.0 0.0057527
8210.0 0.0056409
8230.0 0.0055352
8250.0 0.0055236
8270.0 0.0054194
8290.0 0.0053084
8310.0 0.0050524
8330.0 0.0050551
8350.0 0.0051278
8370.0 0.0051606
8390.0 0.0051449
8410.0 0.0050731
8430.0 0.0049989
8450.0 0.0049922
8470.0 0.0051781
8490.0 0.0052354
8510.0 0.0050325
8530.0 0.0048524
8550.0 0.0048352
8570.0 0.0047106
8590.0 0.0046236
8610.0 0.0047094
8630.0 0.0047078
8650.0 0.0046662
8670.0 0.0046343
8690.0 0.0045811
8710.0 0.0043781
8730.0 0.0043827
8750.0 0.0042784
8770.0 0.0042925
8790.0 0.0042405
8810.0 0.0041306
8830.0 0.004146
8850.0 0.0041557
8870.0 0.0039601
8890.0 0.0038165
8910.0 0.0036831
8930.0 0.0035034
8950.0 0.0034178
8970.0 0.0032732
8990.0 0.0032227
9010.0 0.0031152
9030.0 0.003081
9050.0 0.0030618
9070.0 0.0030433
9090.0 0.0030246
9110.0 0.0030054
9130.0 0.0029863
9150.0 0.0029675
9170.0 0.0029485
9190.0 0.0029294
9210.0 0.0029101
9230.0 0.0028907
9250.0 0.0028712
9270.0 0.0028517
9290.0 0.0028321
9310.0 0.0028128
9330.0 0.0027939
9350.0 0.0027749
9370.0 0.0027559
9390.0 0.002737
9410.0 0.002718
9430.0 0.002699
9450.0 0.0026801
9470.0 0.0026629
9490.0 0.0026448
9510.0 0.002625
9530.0 0.0026054
9550.0 0.0025863
9570.0 0.0025674
9590.0 0.0025486
9610.0 0.0025303
9630.0 0.0025122
9650.0 0.0024942
9670.0 0.0024761
9690.0 0.0024583
9710.0 0.0024406
9730.0 0.0024229
9750.0 0.0024053
9770.0 0.002388
9790.0 0.0023707
9810.0 0.0023535
9830.0 0.0023364
9850.0 0.002318
9870.0 0.0022994
9890.0 0.0022842
9910.0 0.0022687
9930.0 0.0022501
9950.0 0.0022339
9970.0 0.0022192
9990.0 0.0022041
10010.0 0.002189
10030.0 0.0021738
10050.0 0.0021585
10070.0 0.0021433
10090.0 0.0021284
10110.0 0.0021134
10130.0 0.0020986
10150.0 0.0020841
10170.0 0.0020698
10190.0 0.0020555
10210.0 0.0020415
10230.0 0.0020278
10250.0 0.002014
10270.0 0.0020005
10290.0 0.0019873
10310.0 0.0019741
10330.0 0.001961
10350.0 0.0019483
10370.0 0.0019357
10390.0 0.0019231
10410.0 0.0019099
10430.0 0.0018967
10450.0 0.0018858
10470.0 0.0018744
10490.0 0.0018632
10510.0 0.0018521
10530.0 0.0018408
10550.0 0.0018297
10570.0 0.001819
10590.0 0.0018083
10610.0 0.0017976
10630.0 0.0017873
10650.0 0.0017772
10670.0 0.0017669
10690.0 0.001757
10710.0 0.0017474
10730.0 0.0017377
10750.0 0.001728
10770.0 0.0017189
10790.0 0.0017098
10810.0 0.0017007
10830.0 0.0016918
10850.0 0.0016834
10870.0 0.0016746
10890.0 0.0016661
10910.0 0.0016578
10930.0 0.0016497
10950.0 0.0016414
10970.0 0.0016333
10990.0 0.0016255
11010.0 0.0017865
11030.0 0.001777
11050.0 0.001767
11070.0 0.0017563
11090.0 0.0017444
11110.0 0.0017327
11130.0 0.0017209
11150.0 0.0017084
11170.0 0.0016958
11190.0 0.0016836
11210.0 0.0016711
11230.0 0.0016582
11250.0 0.0016459
11270.0 0.0016338
11290.0 0.0016216
11310.0 0.0016098
11330.0 0.0015991
11350.0 0.0015886
11370.0 0.0015785
11390.0 0.0015692
11410.0 0.0015607
11430.0 0.0015522
11450.0 0.0015444
11470.0 0.0015372
11490.0 0.0015302
11510.0 0.0015232
11530.0 0.0015167
11550.0 0.0015103
11570.0 0.0015035
11590.0 0.0014968
11610.0 0.0014902
11630.0 0.0014832
11650.0 0.0014758
11670.0 0.0014685
11690.0 0.0014611
11710.0 0.0014532
11730.0 0.0014451
11750.0 0.0014373
11770.0 0.001429
11790.0 0.0014205
11810.0 0.0014123
11830.0 0.0014042
11850.0 0.0013956
11870.0 0.0013874
11890.0 0.0013798
11910.0 0.0013721
11930.0 0.0013647
11950.0 0.001358
11970.0 0.0013516
11990.0 0.0013454
12010.0 0.00134
12030.0 0.0013352
12050.0 0.0013307
12070.0 0.0013268
12090.0 0.0013237
12110.0 0.001321
12130.0 0.0013187
12150.0 0.0013169
12170.0 0.0013156
12190.0 0.0013144
12210.0 0.0013135
12230.0 0.0013127
12250.0 0.001312
12270.0 0.001311
12290.0 0.0013099
12310.0 0.0013086
12330.0 0.0013067
12350.0 0.0013043
12370.0 0.0013015
12390.0 0.001298
12410.0 0.0012935
12430.0 0.0012886
12450.0 0.0012831
12470.0 0.0012767
12490.0 0.0012697
12510.0 0.0012625
12530.0 0.0012544
12550.0 0.0012455
12570.0 0.0012366
12590.0 0.0012273
12610.0 0.0012173
12630.0 0.001207
12650.0 0.0011971
12670.0 0.0011868
12690.0 0.0011762
12710.0 0.001166
12730.0 0.001156
12750.0 0.0011456
12770.0 0.0011357
12790.0 0.0011263
12810.0 0.001117
12830.0 0.0011079
12850.0 0.0010997
12870.0 0.0010919
12890.0 0.0010843
12910.0 0.0010774
12930.0 0.0010712
12950.0 0.0010654
12970.0 0.0010602
12990.0 0.0010558
13010.0 0.0010521
13030.0 0.0010489
13050.0 0.0010465
13070.0 0.0010447
13090.0 0.0010434
13110.0 0.0010425
13130.0 0.001042
13150.0 0.0010417
13170.0 0.0010415
13190.0 0.0010413
13210.0 0.001041
13230.0 0.0010404
13250.0 0.0010394
13270.0 0.001038
13290.0 0.0010361
13310.0 0.0010335
13330.0 0.0010304
13350.0 0.0010268
13370.0 0.0010225
13390.0 0.0010174
13410.0 0.0010121
13430.0 0.0010061
13450.0 0.00099938
13470.0 0.0009923
13490.0 0.00098494
13510.0 0.00097668
13530.0 0.00096808
13550.0 0.00095944
13570.0 0.00095037
13590.0 0.00094077
13610.0 0.00093122
13630.0 0.00092172
13650.0 0.00091167
13670.0 0.00090156
13690.0 0.00089168
13710.0 0.0008816
13730.0 0.00087101
13750.0 0.000861
13770.0 0.00085108
13790.0 0.00084093
13810.0 0.00083092
13830.0 0.00082144
13850.0 0.0008118
13870.0 0.00080218
13890.0 0.00079305
13910.0 0.0007842
13930.0 0.00077526
13950.0 0.00076662
13970.0 0.00075862
13990.0 0.00075066
14010.0 0.00074284
14030.0 0.00073553
14050.0 0.00072853
14070.0 0.00072148
14090.0 0.00071488
14110.0 0.00070872
14130.0 0.00070269
14150.0 0.0006968
14170.0 0.00069139
14190.0 0.00068619
14210.0 0.00068103
14230.0 0.00067612
14250.0 0.00067147
14270.0 0.0006668
14290.0 0.00066219
14310.0 0.00065785
14330.0 0.00065359
14350.0 0.00064931
14370.0 0.00064517
14390.0 0.00064121
14410.0 0.0006372
14430.0 0.00063325
14450.0 0.00062948
14470.0 0.00062575
14490.0 0.00062194
14510.0 0.00061829
14530.0 0.00061475
14550.0 0.00061114
14570.0 0.00060752
14590.0 0.00060402
14610.0 0.00060047
14630.0 0.0005968
14650.0 0.00059321
14670.0 0.00058964
14690.0 0.00058595
14710.0 0.0005822
14730.0 0.00057858
14750.0 0.00057486
14770.0 0.00057103
14790.0 0.00056723
14810.0 0.00056345
14830.0 0.00055943
14850.0 0.00055541
14870.0 0.00055146
14890.0 0.00054744
14910.0 0.00054335
14930.0 0.00053943
14950.0 0.00053568
14970.0 0.00053199
14990.0 0.00052857
15010.0 0.00052549
15030.0 0.00052263
15050.0 0.00051994
15070.0 0.00051757
15090.0 0.00051534
15110.0 0.00051317
15130.0 0.00051108
15150.0 0.00050907
15170.0 0.00050704
15190.0 0.00050501
15210.0 0.00050302
15230.0 0.00050105
15250.0 0.00049903
15270.0 0.00049703
15290.0 0.00049509
15310.0 0.00049312
15330.0 0.00049114
15350.0 0.0004892
15370.0 0.00048728
15390.0 0.00048529
15410.0 0.00048334
15430.0 0.00048143
15450.0 0.0004795
15470.0 0.00047754
15490.0 0.00047565
15510.0 0.00047376
15530.0 0.00047183
15550.0 0.00046993
15570.0 0.00046807
15590.0 0.00046616
15610.0 0.00046425
15630.0 0.00046239
15650.0 0.00046054
15670.0 0.00045865
15690.0 0.00045679
15710.0 0.00045498
15730.0 0.00045311
15750.0 0.00045126
15770.0 0.00044944
15790.0 0.00044763
15810.0 0.00044576
15830.0 0.00044394
15850.0 0.00044216
15870.0 0.00044035
15890.0 0.00043854
15910.0 0.00043678
15930.0 0.000435
15950.0 0.00043318
15970.0 0.00043141
15990.0 0.00042967
16010.0 0.00042789
16030.0 0.0004261
16050.0 0.00042439
16070.0 0.00042265
16090.0 0.00042089
16110.0 0.00041917
16130.0 0.00041748
16150.0 0.00041573
16170.0 0.000414
16190.0 0.00041232
16210.0 0.00041062
16230.0 0.0004089
16250.0 0.00040723
16270.0 0.00040558
16290.0 0.00040389
16310.0 0.00040221
16330.0 0.00040058
16350.0 0.00039893
16370.0 0.00039723
16390.0 0.00039562
16410.0 0.00039401
16430.0 0.00039236
16450.0 0.00039074
16470.0 0.00038916
16490.0 0.00038755
16510.0 0.00038592
16530.0 0.00038435
16550.0 0.00038278
16570.0 0.00038117
16590.0 0.00037959
16610.0 0.00037806
16630.0 0.0003765
16650.0 0.00037494
16670.0 0.00037342
16690.0 0.0003719
16710.0 0.00037034
16730.0 0.00036881
16750.0 0.00036732
16770.0 0.00036581
16790.0 0.00036428
16810.0 0.00036282
16830.0 0.00036135
16850.0 0.00035985
16870.0 0.00035839
16890.0 0.00035695
16910.0 0.00035548
16930.0 0.000354
16950.0 0.00035258
16970.0 0.00035116
16990.0 0.00034971
17010.0 0.0003483
17030.0 0.00034692
17050.0 0.0003455
17070.0 0.00034409
17090.0 0.00034272
17110.0 0.00034135
17130.0 0.00033994
17150.0 0.00033857
17170.0 0.00033724
17190.0 0.00033588
17210.0 0.00033452
17230.0 0.00033322
17250.0 0.00033189
17270.0 0.00033053
17290.0 0.00032922
17310.0 0.00032793
17330.0 0.00032661
17350.0 0.0003253
17370.0 0.00032404
17390.0 0.00032277
17410.0 0.00032147
17430.0 0.00032022
17450.0 0.00031899
17470.0 0.0003177
17490.0 0.00031644
17510.0 0.00031523
17530.0 0.00031399
17550.0 0.00031274
17570.0 0.00031154
17590.0 0.00031036
17610.0 0.00030913
17630.0 0.00030792
17650.0 0.00030676
17670.0 0.00030557
17690.0 0.00030434
17710.0 0.0003032
17730.0 0.00030205
17750.0 0.00030087
17770.0 0.00029971
17790.0 0.0002986
17810.0 0.00029745
17830.0 0.00029629
17850.0 0.00029518
17870.0 0.00029407
17890.0 0.00029292
17910.0 0.0002918
17930.0 0.00029073
17950.0 0.00028962
17970.0 0.00028851
17990.0 0.00028745
18010.0 0.00028638
18030.0 0.00028527
18050.0 0.00028419
18070.0 0.00028315
18090.0 0.00028208
18110.0 0.000281
18130.0 0.00027998
18150.0 0.00027895
18170.0 0.00027788
18190.0 0.00027685
18210.0 0.00027585
18230.0 0.0002748
18250.0 0.00027375
18270.0 0.00027276
18290.0 0.00027176
18310.0 0.00027073
18330.0 0.00026973
18350.0 0.00026876
18370.0 0.00026775
18390.0 0.00026675
18410.0 0.00026578
18430.0 0.00026481
18450.0 0.00026379
18470.0 0.00026282
18490.0 0.00026188
18510.0 0.0002609
18530.0 0.00025993
18550.0 0.000259
18570.0 0.00025804
18590.0 0.00025706
18610.0 0.00025612
18630.0 0.00025519
18650.0 0.00025423
18670.0 0.00025327
18690.0 0.00025237
18710.0 0.00025144
18730.0 0.00025049
18750.0 0.00024958
18770.0 0.00024868
18790.0 0.00024772
18810.0 0.00024679
18830.0 0.0002459
18850.0 0.00024498
18870.0 0.00024405
18890.0 0.00024316
18910.0 0.00024227
18930.0 0.00024135
18950.0 0.00024044
18970.0 0.00023956
18990.0 0.00023866
19010.0 0.00023771
19030.0 0.00023684
19050.0 0.00023597
19070.0 0.00023506
19090.0 0.00023416
19110.0 0.00023331
19130.0 0.0002324
19150.0 0.00023149
19170.0 0.00023063
19190.0 0.00022975
19210.0 0.00022884
19230.0 0.00022795
19250.0 0.0002271
19270.0 0.00022621
19290.0 0.00022532
19310.0 0.00022446
19330.0 0.0002236
19350.0 0.00022267
19370.0 0.0002218
19390.0 0.00022094
19410.0 0.00022005
19430.0 0.00021915
19450.0 0.0002183
19470.0 0.00021744
19490.0 0.00021653
19510.0 0.00021566
19530.0 0.00021481
19550.0 0.00021391
19570.0 0.000213
19590.0 0.00021215
19610.0 0.00021127
19630.0 0.00021037
19650.0 0.0002095
19670.0 0.00020865
19690.0 0.00020774
19710.0 0.00020684
19730.0 0.00020598
19750.0 0.0002051
19770.0 0.00020417
19790.0 0.00020329
19810.0 0.00020243
19830.0 0.00020152
19850.0 0.00020062
19870.0 0.00019977
19890.0 0.00019889
19910.0 0.000198
19930.0 0.00019719
19950.0 0.00019644
19970.0 0.00019572
19990.0 0.00019511
20010.0 0.00019464
20030.0 0.00019426
20050.0 0.00019399
20070.0 0.00019383
20090.0 0.00019375
20110.0 0.00019371
20130.0 0.00019373
20150.0 0.00019378
20170.0 0.00019384
20190.0 0.00019391
20210.0 0.00019398
20230.0 0.00019406
20250.0 0.00019412
20270.0 0.00019418
20290.0 0.00019423
20310.0 0.00019427
20330.0 0.00019428
20350.0 0.00019429
20370.0 0.00019429
20390.0 0.00019425
20410.0 0.00019421
20430.0 0.00019416
20450.0 0.00019408
20470.0 0.00019399
20490.0 0.00019391
20510.0 0.00019382
20530.0 0.00019371
20550.0 0.00019361
20570.0 0.00019353
20590.0 0.00019344
20610.0 0.00019336
20630.0 0.00019329
20650.0 0.00019323
20670.0 0.00019316
20690.0 0.0001931
20710.0 0.00019304
20730.0 0.00019296
20750.0 0.00019287
20770.0 0.00019278
20790.0 0.00019265
20810.0 0.00019248
20830.0 0.00019229
20850.0 0.00019208
20870.0 0.0001918
20890.0 0.00019148
20910.0 0.00019114
20930.0 0.00019076
20950.0 0.00019032
20970.0 0.00018987
20990.0 0.00018941
21010.0 0.00018888
21030.0 0.00018835
21050.0 0.00018783
21070.0 0.00018728
21090.0 0.0001867
21110.0 0.00018616
21130.0 0.00018562
21150.0 0.00018506
21170.0 0.0001845
21190.0 0.00018397
21210.0 0.00018341
21230.0 0.00018283
21250.0 0.00018227
21270.0 0.00018171
21290.0 0.0001811
21310.0 0.00018047
21330.0 0.00017986
21350.0 0.0001792
21370.0 0.0001785
21390.0 0.0001778
21410.0 0.00017707
21430.0 0.00017626
21450.0 0.00017545
21470.0 0.00017464
21490.0 0.00017378
21510.0 0.00017288
21530.0 0.00017199
21550.0 0.00017107
21570.0 0.00017009
21590.0 0.00016912
21610.0 0.00016815
21630.0 0.00016714
21650.0 0.00016609
21670.0 0.0001651
21690.0 0.00016408
21710.0 0.00016303
21730.0 0.00016198
21750.0 0.00016097
21770.0 0.00015988
21790.0 0.0001588
21810.0 0.00015774
21830.0 0.00015666
21850.0 0.00015554
21870.0 0.00015444
21890.0 0.00015336
21910.0 0.00015224
21930.0 0.00015111
21950.0 0.00015001
21970.0 0.00014889
21990.0 0.00014773
22010.0 0.00014663
22030.0 0.00014555
22050.0 0.00014445
22070.0 0.00014338
22090.0 0.00014236
22110.0 0.00014134
22130.0 0.00014033
22150.0 0.00013938
22170.0 0.00013846
22190.0 0.00013754
22210.0 0.00013666
22230.0 0.00013583
22250.0 0.00013501
22270.0 0.00013421
22290.0 0.00013344
22310.0 0.00013269
22330.0 0.00013192
22350.0 0.00013118
22370.0 0.00013045
22390.0 0.00012971
22410.0 0.00012895
22430.0 0.00012822
22450.0 0.00012747
22470.0 0.0001267
22490.0 0.00012592
22510.0 0.00012515
22530.0 0.00012435
22550.0 0.00012353
22570.0 0.00012271
22590.0 0.00012189
22610.0 0.00012105
22630.0 0.0001202
22650.0 0.00011937
22670.0 0.00011852
22690.0 0.00011766
22710.0 0.00011682
22730.0 0.00011599
22750.0 0.00011514
22770.0 0.00011431
22790.0 0.00011349
22810.0 0.00011268
22830.0 0.00011187
22850.0 0.00011107
22870.0 0.00011029
22890.0 0.0001095
22910.0 0.00010871
22930.0 0.00010794
22950.0 0.00010715
22970.0 0.00010637
22990.0 0.00010558
23010.0 0.00010479
23030.0 0.00010398
23050.0 0.00010316
23070.0 0.00010234
23090.0 0.0001015
23110.0 0.00010065
23130.0 9.9797e-05
23150.0 9.8932e-05
23170.0 9.8061e-05
23190.0 9.7185e-05
23210.0 9.6305e-05
23230.0 9.5423e-05
23250.0 9.4541e-05
23270.0 9.3654e-05
23290.0 9.2767e-05
23310.0 9.1883e-05
23330.0 9.0986e-05
23350.0 9.0079e-05
23370.0 8.9165e-05
23390.0 8.8234e-05
23410.0 8.7273e-05
23430.0 8.6291e-05
23450.0 8.5284e-05
23470.0 8.4235e-05
23490.0 8.3145e-05
