#lamb flux
1010.0 6.4516e-05
1030.0 6.9022e-05
1050.0 7.4909e-05
1070.0 8.4182e-05
1090.0 9.7529e-05
1110.0 0.00011139
1130.0 0.00012549
1150.0 0.00014034
1170.0 0.00015551
1190.0 0.00016936
1210.0 0.00018261
1230.0 0.00019516
1250.0 0.00020649
1270.0 0.00021552
1290.0 0.00022311
1310.0 0.00022827
1330.0 0.00023046
1350.0 0.00023045
1370.0 0.00022862
1390.0 0.0002246
1410.0 0.00021877
1430.0 0.0002122
1450.0 0.00020481
1470.0 0.00019675
1490.0 0.00018874
1510.0 0.00018132
1530.0 0.00017404
1550.0 0.00016745
1570.0 0.00016195
1590.0 0.00015752
1610.0 0.00015434
1630.0 0.00015376
1650.0 0.00015488
1670.0 0.00015761
1690.0 0.00016218
1710.0 0.00016896
1730.0 0.00017796
1750.0 0.00018902
1770.0 0.00020274
1790.0 0.00021924
1810.0 0.00023844
1830.0 0.00026052
1850.0 0.0002861
1870.0 0.00031476
1890.0 0.00034645
1910.0 0.00038153
1930.0 0.00042002
1950.0 0.00046115
1970.0 0.00050493
1990.0 0.00055154
2010.0 0.00060007
2030.0 0.00064979
2050.0 0.00070091
2070.0 0.0007529
2090.0 0.00080402
2110.0 0.00085435
2130.0 0.0009038
2150.0 0.00095113
2170.0 0.00099539
2190.0 0.0010374
2210.0 0.0010765
2230.0 0.0011115
2250.0 0.0011429
2270.0 0.0011716
2290.0 0.0011963
2310.0 0.0012169
2330.0 0.0012351
2350.0 0.0012508
2370.0 0.0012635
2390.0 0.0012748
2410.0 0.0012862
2430.0 0.0012973
2450.0 0.0013091
2470.0 0.0013239
2490.0 0.0013428
2510.0 0.0013647
2530.0 0.0013936
2550.0 0.0014341
2570.0 0.0014891
2590.0 0.0015634
2610.0 0.0016736
2630.0 0.0018219
2650.0 0.0020019
2670.0 0.0022189
2690.0 0.0024702
2710.0 0.0027288
2730.0 0.0029843
2750.0 0.0032477
2770.0 0.0035038
2790.0 0.0037487
2810.0 0.0039994
2830.0 0.0042713
2850.0 0.0045424
2870.0 0.0048256
2890.0 0.0051327
2910.0 0.0054537
2930.0 0.0057758
2950.0 0.0061203
2970.0 0.006484
2990.0 0.0068506
3010.0 0.0072272
3030.0 0.0076275
3050.0 0.008039
3070.0 0.0084396
3090.0 0.0088479
3110.0 0.0092458
3130.0 0.0096049
3150.0 0.0099167
3170.0 0.010171
3190.0 0.010357
3210.0 0.010501
3230.0 0.010621
3250.0 0.010717
3270.0 0.010819
3290.0 0.010959
3310.0 0.011164
3330.0 0.011429
3350.0 0.011736
3370.0 0.012072
3390.0 0.012364
3410.0 0.012678
3430.0 0.013462
3450.0 0.014031
3470.0 0.014413
3490.0 0.014741
3510.0 0.015591
3530.0 0.018477
3550.0 0.0214
3570.0 0.023418
3590.0 0.025808
3610.0 0.025842
3630.0 0.0241
3650.0 0.025674
3670.0 0.030587
3690.0 0.03431
3710.0 0.035625
3730.0 0.036141
3750.0 0.038438
3770.0 0.03863
3790.0 0.036896
3810.0 0.034745
3830.0 0.032706
3850.0 0.032821
3870.0 0.034485
3890.0 0.035905
3910.0 0.036896
3930.0 0.037081
3950.0 0.039579
3970.0 0.042467
3990.0 0.041101
4010.0 0.0367
4030.0 0.032853
4050.0 0.032102
4070.0 0.033524
4090.0 0.033504
4110.0 0.032362
4130.0 0.032074
4150.0 0.033298
4170.0 0.036859
4190.0 0.039327
4210.0 0.037538
4230.0 0.034782
4250.0 0.033196
4270.0 0.032209
4290.0 0.032578
4310.0 0.033504
4330.0 0.031864
4350.0 0.028109
4370.0 0.02495
4390.0 0.022765
4410.0 0.021309
4430.0 0.021621
4450.0 0.023674
4470.0 0.02584
4490.0 0.027884
4510.0 0.031222
4530.0 0.037463
4550.0 0.044218
4570.0 0.048295
4590.0 0.051615
4610.0 0.054932
4630.0 0.05603
4650.0 0.052046
4670.0 0.044459
4690.0 0.038574
4710.0 0.036634
4730.0 0.035195
4750.0 0.031173
4770.0 0.028017
4790.0 0.028979
4810.0 0.031481
4830.0 0.031027
4850.0 0.028023
4870.0 0.028164
4890.0 0.029102
4910.0 0.02995
4930.0 0.029681
4950.0 0.029028
4970.0 0.027748
4990.0 0.025591
5010.0 0.023788
5030.0 0.022959
5050.0 0.022581
5070.0 0.02235
5090.0 0.022156
5110.0 0.022116
5130.0 0.022523
5150.0 0.023738
5170.0 0.026046
5190.0 0.028961
5210.0 0.031649
5230.0 0.033264
5250.0 0.034129
5270.0 0.03559
5290.0 0.036891
5310.0 0.037
5330.0 0.035665
5350.0 0.034251
5370.0 0.034283
5390.0 0.035645
5410.0 0.036808
5430.0 0.036889
5450.0 0.036474
5470.0 0.035488
5490.0 0.034386
5510.0 0.033904
5530.0 0.034094
5550.0 0.034565
5570.0 0.034828
5590.0 0.033794
5610.0 0.031892
5630.0 0.030147
5650.0 0.028767
5670.0 0.027875
5690.0 0.026691
5710.0 0.025856
5730.0 0.026141
5750.0 0.026009
5770.0 0.025498
5790.0 0.025727
5810.0 0.026427
5830.0 0.027006
5850.0 0.027177
5870.0 0.026543
5890.0 0.025424
5910.0 0.024284
5930.0 0.022744
5950.0 0.021587
5970.0 0.02166
5990.0 0.022258
6010.0 0.022357
6030.0 0.021557
6050.0 0.021358
6070.0 0.022165
6090.0 0.02306
6110.0 0.023196
6130.0 0.022219
6150.0 0.020824
6170.0 0.01999
6190.0 0.019321
6210.0 0.018665
6230.0 0.018163
6250.0 0.018069
6270.0 0.018557
6290.0 0.019359
6310.0 0.020317
6330.0 0.021324
6350.0 0.022042
6370.0 0.022265
6390.0 0.022224
6410.0 0.02245
6430.0 0.022749
6450.0 0.022774
6470.0 0.022948
6490.0 0.023198
6510.0 0.023226
6530.0 0.022933
6550.0 0.022276
6570.0 0.021502
6590.0 0.020923
6610.0 0.020479
6630.0 0.020078
6650.0 0.019394
6670.0 0.018618
6690.0 0.018039
6710.0 0.017686
6730.0 0.01755
6750.0 0.01736
6770.0 0.017063
6790.0 0.016779
6810.0 0.016547
6830.0 0.016504
6850.0 0.016443
6870.0 0.016272
6890.0 0.016212
6910.0 0.015925
6930.0 0.015592
6950.0 0.015554
6970.0 0.015378
6990.0 0.014976
7010.0 0.014741
7030.0 0.014512
7050.0 0.014217
7070.0 0.013875
7090.0 0.013586
7110.0 0.013737
7130.0 0.014178
7150.0 0.014626
7170.0 0.014909
7190.0 0.01484
7210.0 0.014631
7230.0 0.014441
7250.0 0.014254
7270.0 0.014061
7290.0 0.01386
7310.0 0.013739
7330.0 0.013925
7350.0 0.014069
7370.0 0.014113
7390.0 0.01397
7410.0 0.013681
7430.0 0.013561
7450.0 0.013457
7470.0 0.012898
7490.0 0.012424
7510.0 0.011881
7530.0 0.011467
7550.0 0.011327
7570.0 0.011479
7590.0 0.011389
7610.0 0.011265
7630.0 0.011189
7650.0 0.011175
7670.0 0.011387
7690.0 0.011842
7710.0 0.012265
7730.0 0.012684
7750.0 0.013005
7770.0 0.013195
7790.0 0.013158
7810.0 0.012902
7830.0 0.013015
7850.0 0.012974
7870.0 0.012612
7890.0 0.012185
7910.0 0.011807
7930.0 0.011452
7950.0 0.011223
7970.0 0.01121
7990.0 0.011339
8010.0 0.011297
8030.0 0.01117
8050.0 0.010969
8070.0 0.010759
8090.0 0.010537
8110.0 0.010563
8130.0 0.010652
8150.0 0.010651
8170.0 0.010569
8190.0 0.010386
8210.0 0.0099162
8230.0 0.0092584
8250.0 0.0088492
8270.0 0.008603
8290.0 0.0084733
8310.0 0.0085209
8330.0 0.0086949
8350.0 0.0085242
8370.0 0.0083231
8390.0 0.0084471
8410.0 0.0087726
8430.0 0.0092821
8450.0 0.0097616
8470.0 0.0099199
8490.0 0.010042
8510.0 0.01003
8530.0 0.010024
8550.0 0.010115
8570.0 0.010141
8590.0 0.010152
8610.0 0.010432
8630.0 0.010532
8650.0 0.010307
8670.0 0.010293
8690.0 0.010347
8710.0 0.010262
8730.0 0.010166
8750.0 0.0098654
8770.0 0.0097324
8790.0 0.0096447
8810.0 0.0095407
8830.0 0.0090595
8850.0 0.0083722
8870.0 0.007857
8890.0 0.0075633
8910.0 0.0071061
8930.0 0.0066176
8950.0 0.0064048
8970.0 0.0063689
8990.0 0.006388
9010.0 0.0063458
9030.0 0.0063007
9050.0 0.0062594
9070.0 0.00622
9090.0 0.0061809
9110.0 0.006142
9130.0 0.0061031
9150.0 0.0060644
9170.0 0.0060257
9190.0 0.0059871
9210.0 0.0059483
9230.0 0.0059101
9250.0 0.005872
9270.0 0.0058339
9290.0 0.005796
9310.0 0.0057582
9330.0 0.0057205
9350.0 0.005683
9370.0 0.0056456
9390.0 0.0056084
9410.0 0.0055713
9430.0 0.0055342
9450.0 0.0054965
9470.0 0.0054597
9490.0 0.0054244
9510.0 0.0053883
9530.0 0.0053525
9550.0 0.0053166
9570.0 0.0052809
9590.0 0.0052455
9610.0 0.0052102
9630.0 0.0051751
9650.0 0.0051401
9670.0 0.0051055
9690.0 0.0050709
9710.0 0.0050365
9730.0 0.0050024
9750.0 0.0049684
9770.0 0.0049346
9790.0 0.0049009
9810.0 0.0048676
9830.0 0.0048336
9850.0 0.0047953
9870.0 0.0047635
9890.0 0.0047328
9910.0 0.0047015
9930.0 0.0046689
9950.0 0.0046378
9970.0 0.0046062
9990.0 0.004574
10010.0 0.004538
10030.0 0.0045049
10050.0 0.004476
10070.0 0.0044467
10090.0 0.0044173
10110.0 0.0043859
10130.0 0.0043496
10150.0 0.0043205
10170.0 0.0042923
10190.0 0.0042626
10210.0 0.0042336
10230.0 0.0042048
10250.0 0.0041747
10270.0 0.0041448
10290.0 0.004116
10310.0 0.0040863
10330.0 0.0040558
10350.0 0.0040267
10370.0 0.0039979
10390.0 0.0039681
10410.0 0.0039386
10430.0 0.0039105
10450.0 0.0038814
10470.0 0.0038519
10490.0 0.0038235
10510.0 0.0037952
10530.0 0.0037655
10550.0 0.0037365
10570.0 0.0037087
10590.0 0.00368
10610.0 0.0036509
10630.0 0.003623
10650.0 0.0035951
10670.0 0.0035659
10690.0 0.0035374
10710.0 0.0035097
10730.0 0.0034811
10750.0 0.0034517
10770.0 0.0034242
10790.0 0.0033963
10810.0 0.0033675
10830.0 0.0033392
10850.0 0.003312
10870.0 0.0032831
10890.0 0.0032544
10910.0 0.0032271
10930.0 0.0031998
10950.0 0.003172
10970.0 0.0031455
10990.0 0.0031206
11010.0 0.0031673
11030.0 0.0031453
11050.0 0.0031244
11070.0 0.0031034
11090.0 0.0030811
11110.0 0.0030596
11130.0 0.003038
11150.0 0.0030153
11170.0 0.0029924
11190.0 0.0029704
11210.0 0.0029479
11230.0 0.0029251
11250.0 0.0029034
11270.0 0.0028826
11290.0 0.0028617
11310.0 0.0028415
11330.0 0.0028231
11350.0 0.002805
11370.0 0.0027873
11390.0 0.0027708
11410.0 0.0027549
11430.0 0.0027386
11450.0 0.0027228
11470.0 0.0027074
11490.0 0.0026916
11510.0 0.0026749
11530.0 0.0026584
11550.0 0.0026414
11570.0 0.0026229
11590.0 0.0026038
11610.0 0.0025844
11630.0 0.0025634
11650.0 0.0025411
11670.0 0.0025189
11690.0 0.0024962
11710.0 0.0024723
11730.0 0.0024482
11750.0 0.002425
11770.0 0.002401
11790.0 0.0023768
11810.0 0.0023537
11830.0 0.0023311
11850.0 0.0023079
11870.0 0.0022859
11890.0 0.0022652
11910.0 0.0022446
11930.0 0.0022245
11950.0 0.0022058
11970.0 0.0021877
11990.0 0.0021698
12010.0 0.002153
12030.0 0.0021375
12050.0 0.0021224
12070.0 0.002108
12090.0 0.0020954
12110.0 0.0020836
12130.0 0.0020727
12150.0 0.0020631
12170.0 0.0020549
12190.0 0.0020477
12210.0 0.0020418
12230.0 0.0020374
12250.0 0.0020343
12270.0 0.0020325
12290.0 0.002032
12310.0 0.0020325
12330.0 0.0020341
12350.0 0.0020367
12370.0 0.0020398
12390.0 0.0020435
12410.0 0.0020478
12430.0 0.0020518
12450.0 0.0020556
12470.0 0.0020592
12490.0 0.002062
12510.0 0.0020638
12530.0 0.0020646
12550.0 0.0020641
12570.0 0.002062
12590.0 0.0020583
12610.0 0.0020527
12630.0 0.0020452
12650.0 0.0020362
12670.0 0.0020252
12690.0 0.0020123
12710.0 0.0019982
12730.0 0.0019828
12750.0 0.0019655
12770.0 0.0019474
12790.0 0.0019291
12810.0 0.0019098
12830.0 0.0018897
12850.0 0.0018702
12870.0 0.0018507
12890.0 0.0018306
12910.0 0.0018109
12930.0 0.0017921
12950.0 0.0017727
12970.0 0.0017533
12990.0 0.001735
13010.0 0.001717
13030.0 0.0016987
13050.0 0.0016811
13070.0 0.0016643
13090.0 0.0016474
13110.0 0.0016308
13130.0 0.0016153
13150.0 0.0016003
13170.0 0.0015853
13190.0 0.0015715
13210.0 0.0015588
13230.0 0.0015465
13250.0 0.0015348
13270.0 0.0015242
13290.0 0.001514
13310.0 0.0015041
13330.0 0.0014948
13350.0 0.001486
13370.0 0.0014772
13390.0 0.0014684
13410.0 0.00146
13430.0 0.0014515
13450.0 0.0014426
13470.0 0.0014338
13490.0 0.0014251
13510.0 0.0014156
13530.0 0.001406
13550.0 0.0013966
13570.0 0.001387
13590.0 0.0013768
13610.0 0.0013669
13630.0 0.0013571
13650.0 0.0013468
13670.0 0.0013365
13690.0 0.0013265
13710.0 0.0013163
13730.0 0.0013056
13750.0 0.0012955
13770.0 0.0012853
13790.0 0.0012748
13810.0 0.0012642
13830.0 0.001254
13850.0 0.0012433
13870.0 0.0012322
13890.0 0.0012214
13910.0 0.0012105
13930.0 0.0011989
13950.0 0.0011872
13970.0 0.0011759
13990.0 0.0011641
14010.0 0.0011519
14030.0 0.0011399
14050.0 0.0011279
14070.0 0.0011151
14090.0 0.0011025
14110.0 0.0010904
14130.0 0.001078
14150.0 0.0010655
14170.0 0.0010539
14190.0 0.0010425
14210.0 0.0010311
14230.0 0.0010204
14250.0 0.0010104
14270.0 0.0010005
14290.0 0.00099097
14310.0 0.00098238
14330.0 0.00097419
14350.0 0.00096617
14370.0 0.0009587
14390.0 0.00095182
14410.0 0.00094497
14430.0 0.00093837
14450.0 0.00093225
14470.0 0.00092634
14490.0 0.00092037
14510.0 0.00091484
14530.0 0.00090966
14550.0 0.00090449
14570.0 0.00089948
14590.0 0.00089486
14610.0 0.00089033
14630.0 0.00088581
14650.0 0.00088163
14670.0 0.00087771
14690.0 0.00087386
14710.0 0.00087019
14730.0 0.00086702
14750.0 0.00086406
14770.0 0.00086138
14790.0 0.00085919
14810.0 0.0008575
14830.0 0.00085623
14850.0 0.00085559
14870.0 0.0008556
14890.0 0.00085619
14910.0 0.00085737
14930.0 0.00085897
14950.0 0.00086081
14970.0 0.0008628
14990.0 0.00086464
15010.0 0.00086616
15030.0 0.00086732
15050.0 0.00086804
15070.0 0.00086836
15090.0 0.0008684
15110.0 0.00086821
15130.0 0.0008679
15150.0 0.00086756
15170.0 0.00086716
15190.0 0.00086673
15210.0 0.00086635
15230.0 0.00086598
15250.0 0.00086558
15270.0 0.00086521
15290.0 0.0008649
15310.0 0.00086458
15330.0 0.00086425
15350.0 0.00086397
15370.0 0.00086372
15390.0 0.00086341
15410.0 0.00086316
15430.0 0.00086295
15450.0 0.00086272
15470.0 0.00086249
15490.0 0.00086232
15510.0 0.00086216
15530.0 0.00086198
15550.0 0.00086183
15570.0 0.00086173
15590.0 0.0008616
15610.0 0.00086146
15630.0 0.00086139
15650.0 0.00086133
15670.0 0.00086124
15690.0 0.00086119
15710.0 0.00086119
15730.0 0.00086116
15750.0 0.00086113
15770.0 0.00086115
15790.0 0.00086118
15810.0 0.00086117
15830.0 0.00086121
15850.0 0.0008613
15870.0 0.00086135
15890.0 0.00086142
15910.0 0.00086154
15930.0 0.00086165
15950.0 0.00086173
15970.0 0.00086186
15990.0 0.00086202
16010.0 0.00086215
16030.0 0.00086227
16050.0 0.00086248
16070.0 0.00086266
16090.0 0.00086283
16110.0 0.00086303
16130.0 0.00086327
16150.0 0.00086345
16170.0 0.00086365
16190.0 0.00086391
16210.0 0.00086415
16230.0 0.00086437
16250.0 0.00086464
16270.0 0.00086493
16290.0 0.00086517
16310.0 0.00086544
16330.0 0.00086575
16350.0 0.00086603
16370.0 0.00086627
16390.0 0.00086659
16410.0 0.00086691
16430.0 0.0008672
16450.0 0.0008675
16470.0 0.00086785
16490.0 0.00086816
16510.0 0.00086845
16530.0 0.00086878
16550.0 0.00086912
16570.0 0.00086941
16590.0 0.00086972
16610.0 0.00087008
16630.0 0.0008704
16650.0 0.00087071
16670.0 0.00087105
16690.0 0.0008714
16710.0 0.00087167
16730.0 0.00087199
16750.0 0.00087233
16770.0 0.00087264
16790.0 0.00087291
16810.0 0.00087325
16830.0 0.00087357
16850.0 0.00087384
16870.0 0.00087413
16890.0 0.00087445
16910.0 0.0008747
16930.0 0.00087494
16950.0 0.00087523
16970.0 0.0008755
16990.0 0.00087572
17010.0 0.00087596
17030.0 0.00087623
17050.0 0.00087643
17070.0 0.00087662
17090.0 0.00087684
17110.0 0.00087704
17130.0 0.00087717
17150.0 0.00087734
17170.0 0.00087752
17190.0 0.00087764
17210.0 0.00087775
17230.0 0.0008779
17250.0 0.00087799
17270.0 0.00087803
17290.0 0.0008781
17310.0 0.00087817
17330.0 0.00087818
17350.0 0.00087816
17370.0 0.0008782
17390.0 0.00087818
17410.0 0.00087811
17430.0 0.00087807
17450.0 0.00087802
17470.0 0.00087787
17490.0 0.00087774
17510.0 0.00087762
17530.0 0.00087746
17550.0 0.00087724
17570.0 0.00087705
17590.0 0.00087685
17610.0 0.00087657
17630.0 0.00087629
17650.0 0.00087602
17670.0 0.00087569
17690.0 0.00087528
17710.0 0.00087493
17730.0 0.00087455
17750.0 0.0008741
17770.0 0.00087364
17790.0 0.00087321
17810.0 0.00087268
17830.0 0.00087212
17850.0 0.00087157
17870.0 0.000871
17890.0 0.00087035
17910.0 0.00086968
17930.0 0.00086905
17950.0 0.00086834
17970.0 0.00086758
17990.0 0.00086684
18010.0 0.00086607
18030.0 0.00086519
18050.0 0.00086433
18070.0 0.00086347
18090.0 0.00086254
18110.0 0.00086156
18130.0 0.00086062
18150.0 0.00085962
18170.0 0.00085855
18190.0 0.00085747
18210.0 0.0008564
18230.0 0.00085523
18250.0 0.00085402
18270.0 0.00085284
18290.0 0.00085161
18310.0 0.00085031
18330.0 0.00084902
18350.0 0.00084772
18370.0 0.00084632
18390.0 0.0008449
18410.0 0.00084349
18430.0 0.00084202
18450.0 0.00084047
18470.0 0.00083894
18490.0 0.0008374
18510.0 0.00083578
18530.0 0.00083413
18550.0 0.0008325
18570.0 0.0008308
18590.0 0.00082902
18610.0 0.00082726
18630.0 0.00082548
18650.0 0.00082362
18670.0 0.00082172
18690.0 0.00081987
18710.0 0.00081793
18730.0 0.00081594
18750.0 0.00081396
18770.0 0.00081196
18790.0 0.00080985
18810.0 0.00080774
18830.0 0.00080565
18850.0 0.00080349
18870.0 0.00080127
18890.0 0.00079907
18910.0 0.00079685
18930.0 0.00079454
18950.0 0.00079222
18970.0 0.00078991
18990.0 0.00078753
19010.0 0.00078508
19030.0 0.00078268
19050.0 0.00078024
19070.0 0.00077773
19090.0 0.00077521
19110.0 0.00077272
19130.0 0.00077012
19150.0 0.0007675
19170.0 0.00076489
19190.0 0.00076225
19210.0 0.00075954
19230.0 0.00075683
19250.0 0.00075414
19270.0 0.00075138
19290.0 0.00074858
19310.0 0.0007458
19330.0 0.00074299
19350.0 0.00074009
19370.0 0.00073722
19390.0 0.00073436
19410.0 0.00073142
19430.0 0.00072846
19450.0 0.00072553
19470.0 0.00072256
19490.0 0.00071953
19510.0 0.00071652
19530.0 0.00071351
19550.0 0.00071042
19570.0 0.00070731
19590.0 0.00070424
19610.0 0.00070113
19630.0 0.00069798
19650.0 0.00069484
19670.0 0.00069171
19690.0 0.00068851
19710.0 0.0006853
19730.0 0.00068211
19750.0 0.00067889
19770.0 0.00067561
19790.0 0.00067237
19810.0 0.00066913
19830.0 0.00066583
19850.0 0.00066251
19870.0 0.00065918
19890.0 0.00065572
19910.0 0.00065208
19930.0 0.00064824
19950.0 0.00064405
19970.0 0.00063927
19990.0 0.00063384
20010.0 0.00062787
20030.0 0.00062104
20050.0 0.00061339
20070.0 0.00060531
20090.0 0.00059682
20110.0 0.00058759
20130.0 0.00057837
20150.0 0.00056931
20170.0 0.00056009
20190.0 0.00055085
20210.0 0.00054205
20230.0 0.00053344
20250.0 0.0005248
20270.0 0.00051659
20290.0 0.00050883
20310.0 0.00050123
20330.0 0.00049381
20350.0 0.0004871
20370.0 0.00048067
20390.0 0.00047447
20410.0 0.00046872
20430.0 0.00046343
20450.0 0.0004583
20470.0 0.00045352
20490.0 0.00044917
20510.0 0.00044509
20530.0 0.00044123
20550.0 0.0004377
20570.0 0.00043447
20590.0 0.00043141
20610.0 0.00042856
20630.0 0.00042592
20650.0 0.00042344
20670.0 0.00042107
20690.0 0.00041883
20710.0 0.00041669
20730.0 0.00041459
20750.0 0.00041251
20770.0 0.00041044
20790.0 0.00040834
20810.0 0.00040616
20830.0 0.00040391
20850.0 0.00040156
20870.0 0.00039905
20890.0 0.00039638
20910.0 0.0003936
20930.0 0.00039062
20950.0 0.00038744
20970.0 0.00038412
20990.0 0.00038067
21010.0 0.00037696
21030.0 0.00037312
21050.0 0.00036922
21070.0 0.00036516
21090.0 0.00036091
21110.0 0.0003567
21130.0 0.00035247
21150.0 0.0003481
21170.0 0.00034374
21190.0 0.00033948
21210.0 0.00033514
21230.0 0.00033079
21250.0 0.0003266
21270.0 0.0003225
21290.0 0.00031838
21310.0 0.00031439
21330.0 0.0003106
21350.0 0.00030683
21370.0 0.00030314
21390.0 0.00029963
21410.0 0.00029623
21430.0 0.00029282
21450.0 0.00028957
21470.0 0.00028647
21490.0 0.0002834
21510.0 0.00028038
21530.0 0.00027749
21550.0 0.00027465
21570.0 0.0002718
21590.0 0.00026903
21610.0 0.00026634
21630.0 0.00026364
21650.0 0.00026092
21670.0 0.00025833
21690.0 0.00025574
21710.0 0.00025313
21730.0 0.00025057
21750.0 0.00024807
21770.0 0.0002455
21790.0 0.00024295
21810.0 0.00024046
21830.0 0.00023796
21850.0 0.00023542
21870.0 0.00023292
21890.0 0.00023046
21910.0 0.00022795
21930.0 0.00022543
21950.0 0.00022296
21970.0 0.00022047
21990.0 0.0002179
22010.0 0.00021541
22030.0 0.00021295
22050.0 0.00021045
22070.0 0.00020795
22090.0 0.00020555
22110.0 0.00020314
22130.0 0.00020072
22150.0 0.00019838
22170.0 0.00019611
22190.0 0.00019382
22210.0 0.00019159
22230.0 0.0001895
22250.0 0.00018742
22270.0 0.00018539
22290.0 0.00018345
22310.0 0.0001816
22330.0 0.00017974
22350.0 0.00017796
22370.0 0.00017626
22390.0 0.00017459
22410.0 0.00017293
22430.0 0.00017136
22450.0 0.00016983
22470.0 0.00016828
22490.0 0.00016677
22510.0 0.00016531
22530.0 0.00016383
22550.0 0.00016234
22570.0 0.00016091
22590.0 0.00015948
22610.0 0.00015803
22630.0 0.00015661
22650.0 0.00015525
22670.0 0.00015387
22690.0 0.0001525
22710.0 0.00015119
22730.0 0.00014992
22750.0 0.00014863
22770.0 0.00014742
22790.0 0.00014629
22810.0 0.00014518
22830.0 0.00014413
22850.0 0.00014318
22870.0 0.00014228
22890.0 0.00014145
22910.0 0.00014073
22930.0 0.0001401
22950.0 0.00013956
22970.0 0.00013913
22990.0 0.00013882
23010.0 0.00013861
23030.0 0.00013851
23050.0 0.00013851
23070.0 0.0001386
23090.0 0.00013879
23110.0 0.00013906
23130.0 0.00013939
23150.0 0.00013977
23170.0 0.00014021
23190.0 0.00014066
23210.0 0.00014112
23230.0 0.00014162
23250.0 0.00014211
23270.0 0.00014259
23290.0 0.00014307
23310.0 0.00014358
23330.0 0.00014404
23350.0 0.00014449
23370.0 0.00014494
23390.0 0.00014539
23410.0 0.0001458
23430.0 0.00014622
23450.0 0.00014668
23470.0 0.00014713
23490.0 0.00014757
23510.0 0.00014803
23530.0 0.0001485
23550.0 0.00014895
