#lamb flux
1010.0 1.0201e-08
1030.0 1.1232e-08
1050.0 1.2418e-08
1070.0 1.3753e-08
1090.0 1.527e-08
1110.0 1.6825e-08
1130.0 1.839e-08
1150.0 2.003e-08
1170.0 2.1721e-08
1190.0 2.3325e-08
1210.0 2.495e-08
1230.0 2.663e-08
1250.0 2.8276e-08
1270.0 2.9874e-08
1290.0 3.1563e-08
1310.0 3.325e-08
1330.0 3.4868e-08
1350.0 3.6505e-08
1370.0 3.8195e-08
1390.0 3.9842e-08
1410.0 4.144e-08
1430.0 4.3111e-08
1450.0 4.4782e-08
1470.0 4.6397e-08
1490.0 4.8029e-08
1510.0 4.9753e-08
1530.0 5.1387e-08
1550.0 5.2999e-08
1570.0 5.4667e-08
1590.0 5.6337e-08
1610.0 5.7932e-08
1630.0 5.9578e-08
1650.0 6.1266e-08
1670.0 6.29e-08
1690.0 6.4514e-08
1710.0 6.6191e-08
1730.0 6.7878e-08
1750.0 6.9465e-08
1770.0 7.1099e-08
1790.0 7.2768e-08
1810.0 7.4384e-08
1830.0 7.5973e-08
1850.0 7.766e-08
1870.0 7.9305e-08
1890.0 8.0896e-08
1910.0 8.252e-08
1930.0 8.4184e-08
1950.0 8.5773e-08
1970.0 8.7344e-08
1990.0 8.8975e-08
2010.0 9.0579e-08
2030.0 9.2126e-08
2050.0 9.372e-08
2070.0 9.5354e-08
2090.0 9.6893e-08
2110.0 9.8425e-08
2130.0 1e-07
2150.0 1.0155e-07
2170.0 1.0302e-07
2190.0 1.0455e-07
2210.0 1.0608e-07
2230.0 1.0754e-07
2250.0 1.0899e-07
2270.0 1.105e-07
2290.0 1.1196e-07
2310.0 1.1335e-07
2330.0 1.1479e-07
2350.0 1.1626e-07
2370.0 1.1773e-07
2390.0 1.1932e-07
2410.0 1.2123e-07
2430.0 1.2345e-07
2450.0 1.2615e-07
2470.0 1.2965e-07
2490.0 1.3411e-07
2510.0 1.3921e-07
2530.0 1.4539e-07
2550.0 1.5316e-07
2570.0 1.6284e-07
2590.0 1.7542e-07
2610.0 1.9426e-07
2630.0 2.2107e-07
2650.0 2.5597e-07
2670.0 3.0094e-07
2690.0 3.5597e-07
2710.0 4.1443e-07
2730.0 4.7189e-07
2750.0 5.2817e-07
2770.0 5.7674e-07
2790.0 6.1487e-07
2810.0 6.4471e-07
2830.0 6.6759e-07
2850.0 6.8268e-07
2870.0 6.9333e-07
2890.0 7.0143e-07
2910.0 7.0759e-07
2930.0 7.1237e-07
2950.0 7.1688e-07
2970.0 7.2128e-07
2990.0 7.2535e-07
3010.0 2.1208e-05
3030.0 2.1324e-05
3050.0 2.1437e-05
3070.0 2.1529e-05
3090.0 2.1604e-05
3110.0 2.1638e-05
3130.0 2.1601e-05
3150.0 2.1473e-05
3170.0 2.1211e-05
3190.0 2.082e-05
3210.0 2.0333e-05
3230.0 1.978e-05
3250.0 1.9228e-05
3270.0 1.8821e-05
3290.0 1.8571e-05
3310.0 1.8579e-05
3330.0 1.8817e-05
3350.0 1.9257e-05
3370.0 1.9898e-05
3390.0 2.0713e-05
3410.0 2.1605e-05
3430.0 2.2609e-05
3450.0 2.3767e-05
3470.0 2.5035e-05
3490.0 2.6381e-05
3510.0 2.7906e-05
3530.0 2.9544e-05
3550.0 3.1222e-05
3570.0 3.2991e-05
3590.0 3.4923e-05
3610.0 3.6946e-05
3630.0 3.8956e-05
3650.0 4.105e-05
3670.0 4.2952e-05
3690.0 4.437e-05
3710.0 4.5158e-05
3730.0 4.5083e-05
3750.0 4.4248e-05
3770.0 4.4337e-05
3790.0 4.403e-05
3810.0 4.119e-05
3830.0 4.2151e-05
3850.0 4.9908e-05
3870.0 5.2366e-05
3890.0 4.9478e-05
3910.0 4.8742e-05
3930.0 5.1478e-05
3950.0 5.4073e-05
3970.0 5.1318e-05
3990.0 4.1426e-05
4010.0 0.00011666
4030.0 0.00013785
4050.0 0.00015784
4070.0 0.00014191
4090.0 0.00012926
4110.0 0.00011272
4130.0 0.00010887
4150.0 0.00012236
4170.0 0.00011458
4190.0 0.00011796
4210.0 0.00011981
4230.0 0.00013072
4250.0 0.00015558
4270.0 0.00016008
4290.0 0.00014561
4310.0 0.00014756
4330.0 0.00015432
4350.0 0.00017773
4370.0 0.00020551
4390.0 0.00018581
4410.0 0.0001297
4430.0 0.00010679
4450.0 9.8653e-05
4470.0 7.2561e-05
4490.0 8.4282e-05
4510.0 0.00013937
4530.0 0.0001632
4550.0 0.00016084
4570.0 0.00017174
4590.0 0.00019276
4610.0 0.00028423
4630.0 0.00037774
4650.0 0.00039602
4670.0 0.00036193
4690.0 0.00034972
4710.0 0.00036823
4730.0 0.00033748
4750.0 0.00024546
4770.0 0.00017684
4790.0 0.00017078
4810.0 0.00016685
4830.0 0.00015558
4850.0 0.00017002
4870.0 0.00022475
4890.0 0.00026376
4910.0 0.00022539
4930.0 0.00020412
4950.0 0.00022691
4970.0 0.00029317
4990.0 0.00039713
5010.0 0.00045829
5030.0 0.00039511
5050.0 0.00026194
5070.0 0.00017552
5090.0 0.00013903
5110.0 0.00013988
5130.0 0.00016331
5150.0 0.00017302
5170.0 0.00016873
5190.0 0.00015587
5210.0 0.00016549
5230.0 0.00018035
5250.0 0.00019803
5270.0 0.00020612
5290.0 0.00022674
5310.0 0.00027277
5330.0 0.00030051
5350.0 0.00029807
5370.0 0.00031774
5390.0 0.0003725
5410.0 0.0003589
5430.0 0.00030832
5450.0 0.00028907
5470.0 0.00031302
5490.0 0.00038401
5510.0 0.00047643
5530.0 0.00054812
5550.0 0.00052176
5570.0 0.00047313
5590.0 0.00040626
5610.0 0.00038259
5630.0 0.00038479
5650.0 0.00036266
5670.0 0.00034084
5690.0 0.00029737
5710.0 0.00029373
5730.0 0.00027397
5750.0 0.00018262
5770.0 0.00013959
5790.0 0.00016098
5810.0 0.00017878
5830.0 0.00023123
5850.0 0.00028194
5870.0 0.00031098
5890.0 0.00031187
5910.0 0.00030562
5930.0 0.00029126
5950.0 0.00029747
5970.0 0.00034651
5990.0 0.00031545
6010.0 0.0002596
6030.0 0.00021784
6050.0 0.00019078
6070.0 0.00019771
6090.0 0.000216
6110.0 0.00023619
6130.0 0.00023501
6150.0 0.00019828
6170.0 0.00016927
6190.0 0.00019289
6210.0 0.00026547
6230.0 0.00035935
6250.0 0.00038954
6270.0 0.00032977
6290.0 0.00027872
6310.0 0.0002164
6330.0 0.0001639
6350.0 0.00014946
6370.0 0.0001571
6390.0 0.00018284
6410.0 0.00022844
6430.0 0.00026882
6450.0 0.00031305
6470.0 0.00035057
6490.0 0.00042213
6510.0 0.00047226
6530.0 0.00046888
6550.0 0.00042589
6570.0 0.00035506
6590.0 0.0003239
6610.0 0.00027637
6630.0 0.00025979
6650.0 0.00024789
6670.0 0.00023329
6690.0 0.0002021
6710.0 0.00018714
6730.0 0.00012014
6750.0 0.00012705
6770.0 0.00015242
6790.0 0.00018285
6810.0 0.00015503
6830.0 0.00015925
6850.0 0.0001443
6870.0 0.00013238
6890.0 0.00012318
6910.0 0.00013595
6930.0 0.00012758
6950.0 0.00013658
6970.0 0.00014348
6990.0 0.0001619
7010.0 0.00016095
7030.0 0.00016965
7050.0 0.00015752
7070.0 0.00014472
7090.0 0.00014794
7110.0 0.00015391
7130.0 0.00016894
7150.0 0.00018268
7170.0 0.00020269
7190.0 0.00022145
7210.0 0.00021191
7230.0 0.00021704
7250.0 0.00023271
7270.0 0.00025201
7290.0 0.00030272
7310.0 0.00032704
7330.0 0.00031411
7350.0 0.0002835
7370.0 0.00023698
7390.0 0.00023295
7410.0 0.00025653
7430.0 0.00028722
7450.0 0.00031196
7470.0 0.00030199
7490.0 0.00026472
7510.0 0.00032934
7530.0 0.00031888
7550.0 0.00029143
7570.0 0.0002192
7590.0 0.00013648
7610.0 0.00011315
7630.0 0.00013571
7650.0 0.00016509
7670.0 0.00021867
7690.0 0.00024119
7710.0 0.00024219
7730.0 0.00025131
7750.0 0.00029386
7770.0 0.00029963
7790.0 0.0002747
7810.0 0.00024256
7830.0 0.00025356
7850.0 0.00025483
7870.0 0.000238
7890.0 0.00019572
7910.0 0.00015149
7930.0 0.00014791
7950.0 0.00013454
7970.0 0.0001216
7990.0 0.00011828
8010.0 2.2468e-05
8030.0 2.056e-05
8050.0 2.1962e-05
8070.0 2.496e-05
8090.0 3.073e-05
8110.0 2.9192e-05
8130.0 1.7381e-05
8150.0 1.8332e-05
8170.0 1.0344e-05
8190.0 6.3868e-06
8210.0 1.7031e-05
8230.0 2.06e-05
8250.0 8.9263e-06
8270.0 7.0033e-06
8290.0 1.292e-05
8310.0 1.1502e-05
8330.0 7.225e-06
8350.0 5.6253e-06
8370.0 1.3356e-06
8390.0 6.1324e-06
8410.0 6.9674e-06
8430.0 8.5988e-06
8450.0 9.8275e-06
8470.0 1.6162e-05
8490.0 1.3598e-05
8510.0 1.0831e-05
8530.0 6.4905e-06
8550.0 1.9089e-05
8570.0 2.834e-05
8590.0 2.0898e-05
8610.0 3.0787e-05
8630.0 3.4291e-05
8650.0 2.1626e-05
8670.0 2.9507e-05
8690.0 4.1989e-05
8710.0 3.6061e-05
8730.0 3.7738e-05
8750.0 2.9982e-05
8770.0 2.6839e-05
8790.0 2.9124e-05
8810.0 3.1113e-05
8830.0 1.8086e-05
8850.0 8.2723e-06
8870.0 5.7827e-06
8890.0 1.2676e-05
8910.0 1.9681e-05
8930.0 2.6015e-05
8950.0 2.831e-05
8970.0 2.7228e-05
8990.0 2.0129e-05
9010.0 5.7039e-05
9030.0 4.809e-05
9050.0 4.8818e-05
9070.0 4.971e-05
9090.0 5.0459e-05
9110.0 5.1384e-05
9130.0 5.2065e-05
9150.0 5.2562e-05
9170.0 5.3091e-05
9190.0 5.3656e-05
9210.0 5.425e-05
9230.0 5.4878e-05
9250.0 5.5511e-05
9270.0 5.6166e-05
9290.0 5.6838e-05
9310.0 5.7509e-05
9330.0 5.819e-05
9350.0 5.8896e-05
9370.0 5.9605e-05
9390.0 6.0316e-05
9410.0 6.1046e-05
9430.0 6.1798e-05
9450.0 6.254e-05
9470.0 6.3296e-05
9490.0 6.4073e-05
9510.0 6.4856e-05
9530.0 6.5639e-05
9550.0 6.6451e-05
9570.0 6.7274e-05
9590.0 6.8096e-05
9610.0 6.8931e-05
9630.0 6.9789e-05
9650.0 7.0651e-05
9670.0 7.1511e-05
9690.0 7.2396e-05
9710.0 7.3294e-05
9730.0 7.419e-05
9750.0 7.5099e-05
9770.0 7.6039e-05
9790.0 7.6973e-05
9810.0 7.7909e-05
9830.0 7.8868e-05
9850.0 7.9838e-05
9870.0 8.0801e-05
9890.0 8.1781e-05
9910.0 8.2781e-05
9930.0 8.3779e-05
9950.0 8.478e-05
9970.0 8.5804e-05
9990.0 8.6838e-05
10010.0 7.5821e-05
10030.0 7.6715e-05
10050.0 7.7626e-05
10070.0 7.8543e-05
10090.0 7.9441e-05
10110.0 8.0363e-05
10130.0 8.1285e-05
10150.0 8.2201e-05
10170.0 8.3127e-05
10190.0 8.407e-05
10210.0 8.4999e-05
10230.0 8.5925e-05
10250.0 8.6867e-05
10270.0 8.7807e-05
10290.0 8.8735e-05
10310.0 8.9676e-05
10330.0 9.0627e-05
10350.0 9.156e-05
10370.0 9.249e-05
10390.0 9.3432e-05
10410.0 9.4369e-05
10430.0 9.5286e-05
10450.0 9.6213e-05
10470.0 9.7143e-05
10490.0 9.8055e-05
10510.0 9.8961e-05
10530.0 9.9883e-05
10550.0 0.00010079
10570.0 0.00010167
10590.0 0.00010256
10610.0 0.00010345
10630.0 0.00010432
10650.0 0.00010518
10670.0 0.00010605
10690.0 0.00010689
10710.0 0.00010772
10730.0 0.00010856
10750.0 0.00010939
10770.0 0.00011018
10790.0 0.00011097
10810.0 0.00011176
10830.0 0.00011252
10850.0 0.00011325
10870.0 0.00011396
10890.0 0.0001146
10910.0 0.00011511
10930.0 0.00011545
10950.0 0.00011551
10970.0 0.00011522
10990.0 0.00011452
11010.0 0.00010686
11030.0 0.00010518
11050.0 0.00010311
11070.0 0.00010062
11090.0 9.7633e-05
11110.0 9.4535e-05
11130.0 9.1304e-05
11150.0 8.7831e-05
11170.0 8.4256e-05
11190.0 8.0793e-05
11210.0 7.7224e-05
11230.0 7.3571e-05
11250.0 7.0085e-05
11270.0 6.6742e-05
11290.0 6.3397e-05
11310.0 6.023e-05
11330.0 5.7439e-05
11350.0 5.4801e-05
11370.0 5.236e-05
11390.0 5.0242e-05
11410.0 4.8382e-05
11430.0 4.6647e-05
11450.0 4.5144e-05
11470.0 4.3835e-05
11490.0 4.2611e-05
11510.0 4.1428e-05
11530.0 4.0326e-05
11550.0 3.9231e-05
11570.0 3.8068e-05
11590.0 3.6867e-05
11610.0 3.5648e-05
11630.0 3.4329e-05
11650.0 3.2922e-05
11670.0 3.1539e-05
11690.0 3.0139e-05
11710.0 2.8698e-05
11730.0 2.7302e-05
11750.0 2.601e-05
11770.0 2.4742e-05
11790.0 2.3552e-05
11810.0 2.2501e-05
11830.0 2.1558e-05
11850.0 2.0685e-05
11870.0 1.995e-05
11890.0 1.9334e-05
11910.0 1.8788e-05
11930.0 1.8315e-05
11950.0 1.7916e-05
11970.0 1.7558e-05
11990.0 1.7218e-05
12010.0 1.6903e-05
12030.0 1.6601e-05
12050.0 1.629e-05
12070.0 1.5969e-05
12090.0 1.5659e-05
12110.0 1.5347e-05
12130.0 1.5033e-05
12150.0 1.4742e-05
12170.0 1.4485e-05
12190.0 1.4258e-05
12210.0 1.409e-05
12230.0 1.3993e-05
12250.0 1.3972e-05
12270.0 1.4045e-05
12290.0 1.4211e-05
12310.0 1.4464e-05
12330.0 1.483e-05
12350.0 1.5293e-05
12370.0 1.5826e-05
12390.0 1.6444e-05
12410.0 1.7173e-05
12430.0 1.7914e-05
12450.0 1.8683e-05
12470.0 1.9502e-05
12490.0 2.0325e-05
12510.0 2.1096e-05
12530.0 2.1862e-05
12550.0 2.2601e-05
12570.0 2.3251e-05
12590.0 2.382e-05
12610.0 2.4325e-05
12630.0 2.4724e-05
12650.0 2.4995e-05
12670.0 2.5167e-05
12690.0 2.5227e-05
12710.0 2.5169e-05
12730.0 2.5007e-05
12750.0 2.4732e-05
12770.0 2.4359e-05
12790.0 2.391e-05
12810.0 2.3378e-05
12830.0 2.2765e-05
12850.0 2.2126e-05
12870.0 2.1452e-05
12890.0 2.0725e-05
12910.0 1.9987e-05
12930.0 1.9261e-05
12950.0 1.8505e-05
12970.0 1.7738e-05
12990.0 1.7012e-05
13010.0 1.6297e-05
13030.0 1.5575e-05
13050.0 1.4882e-05
13070.0 1.4232e-05
13090.0 1.3581e-05
13110.0 1.2951e-05
13130.0 1.2369e-05
13150.0 1.1818e-05
13170.0 1.1278e-05
13190.0 1.0795e-05
13210.0 1.0369e-05
13230.0 9.9778e-06
13250.0 9.6386e-06
13270.0 9.3681e-06
13290.0 9.1542e-06
13310.0 9.0019e-06
13330.0 8.9247e-06
13350.0 8.9175e-06
13370.0 8.984e-06
13390.0 9.1288e-06
13410.0 9.3308e-06
13430.0 9.5981e-06
13450.0 9.9324e-06
13470.0 1.0306e-05
13490.0 1.0705e-05
13510.0 1.1157e-05
13530.0 1.1618e-05
13550.0 1.2061e-05
13570.0 1.25e-05
13590.0 1.293e-05
13610.0 1.3314e-05
13630.0 1.3651e-05
13650.0 1.396e-05
13670.0 1.4218e-05
13690.0 1.442e-05
13710.0 1.4577e-05
13730.0 1.4692e-05
13750.0 1.4751e-05
13770.0 1.4769e-05
13790.0 1.4747e-05
13810.0 1.4685e-05
13830.0 1.4591e-05
13850.0 1.4462e-05
13870.0 1.4298e-05
13890.0 1.411e-05
13910.0 1.3897e-05
13930.0 1.3651e-05
13950.0 1.3382e-05
13970.0 1.3106e-05
13990.0 1.2806e-05
14010.0 1.2488e-05
14030.0 1.217e-05
14050.0 1.185e-05
14070.0 1.1512e-05
14090.0 1.1188e-05
14110.0 1.0884e-05
14130.0 1.0589e-05
14150.0 1.0311e-05
14170.0 1.0073e-05
14190.0 9.8671e-06
14210.0 9.6918e-06
14230.0 9.5611e-06
14250.0 9.4756e-06
14270.0 9.4325e-06
14290.0 9.4379e-06
14310.0 9.4878e-06
14330.0 9.5799e-06
14350.0 9.717e-06
14370.0 9.889e-06
14390.0 1.0085e-05
14410.0 1.0318e-05
14430.0 1.0574e-05
14450.0 1.0836e-05
14470.0 1.1109e-05
14490.0 1.1401e-05
14510.0 1.168e-05
14530.0 1.1947e-05
14550.0 1.2214e-05
14570.0 1.2471e-05
14590.0 1.2706e-05
14610.0 1.2933e-05
14630.0 1.3158e-05
14650.0 1.3367e-05
14670.0 1.3569e-05
14690.0 1.378e-05
14710.0 1.4e-05
14730.0 1.4221e-05
14750.0 1.4464e-05
14770.0 1.4741e-05
14790.0 1.504e-05
14810.0 1.5365e-05
14830.0 1.575e-05
14850.0 1.6169e-05
14870.0 1.6607e-05
14890.0 1.708e-05
14910.0 1.7583e-05
14930.0 1.8067e-05
14950.0 1.8521e-05
14970.0 1.8951e-05
14990.0 1.9313e-05
15010.0 1.9592e-05
15030.0 1.98e-05
15050.0 1.994e-05
15070.0 2.0012e-05
15090.0 2.0041e-05
15110.0 2.0041e-05
15130.0 2.0022e-05
15150.0 1.9995e-05
15170.0 1.9961e-05
15190.0 1.9924e-05
15210.0 1.9888e-05
15230.0 1.9852e-05
15250.0 1.9815e-05
15270.0 1.9778e-05
15290.0 1.9744e-05
15310.0 1.9708e-05
15330.0 1.9672e-05
15350.0 1.9638e-05
15370.0 1.9604e-05
15390.0 1.9568e-05
15410.0 1.9534e-05
15430.0 1.95e-05
15450.0 1.9466e-05
15470.0 1.9431e-05
15490.0 1.9399e-05
15510.0 1.9366e-05
15530.0 1.9332e-05
15550.0 1.9299e-05
15570.0 1.9268e-05
15590.0 1.9234e-05
15610.0 1.9201e-05
15630.0 1.9169e-05
15650.0 1.9137e-05
15670.0 1.9104e-05
15690.0 1.9072e-05
15710.0 1.9042e-05
15730.0 1.9009e-05
15750.0 1.8977e-05
15770.0 1.8946e-05
15790.0 1.8915e-05
15810.0 1.8881e-05
15830.0 1.885e-05
15850.0 1.882e-05
15870.0 1.8788e-05
15890.0 1.8756e-05
15910.0 1.8726e-05
15930.0 1.8694e-05
15950.0 1.8662e-05
15970.0 1.8631e-05
15990.0 1.86e-05
16010.0 1.8568e-05
16030.0 1.8536e-05
16050.0 1.8506e-05
16070.0 1.8475e-05
16090.0 1.8442e-05
16110.0 1.8411e-05
16130.0 1.8381e-05
16150.0 1.8348e-05
16170.0 1.8316e-05
16190.0 1.8285e-05
16210.0 1.8253e-05
16230.0 1.822e-05
16250.0 1.8189e-05
16270.0 1.8158e-05
16290.0 1.8125e-05
16310.0 1.8092e-05
16330.0 1.8061e-05
16350.0 1.8029e-05
16370.0 1.7994e-05
16390.0 1.7962e-05
16410.0 1.793e-05
16430.0 1.7897e-05
16450.0 1.7864e-05
16470.0 1.7832e-05
16490.0 1.7798e-05
16510.0 1.7764e-05
16530.0 1.7731e-05
16550.0 1.7698e-05
16570.0 1.7663e-05
16590.0 1.7628e-05
16610.0 1.7595e-05
16630.0 1.7561e-05
16650.0 1.7525e-05
16670.0 1.7492e-05
16690.0 1.7458e-05
16710.0 1.7421e-05
16730.0 1.7386e-05
16750.0 1.7351e-05
16770.0 1.7315e-05
16790.0 1.7278e-05
16810.0 1.7243e-05
16830.0 1.7208e-05
16850.0 1.7171e-05
16870.0 1.7134e-05
16890.0 1.7099e-05
16910.0 1.7061e-05
16930.0 1.7023e-05
16950.0 1.6986e-05
16970.0 1.6949e-05
16990.0 1.6911e-05
17010.0 1.6873e-05
17030.0 1.6836e-05
17050.0 1.6797e-05
17070.0 1.6758e-05
17090.0 1.672e-05
17110.0 1.6682e-05
17130.0 1.6641e-05
17150.0 1.6602e-05
17170.0 1.6563e-05
17190.0 1.6523e-05
17210.0 1.6482e-05
17230.0 1.6444e-05
17250.0 1.6403e-05
17270.0 1.6361e-05
17290.0 1.6321e-05
17310.0 1.6281e-05
17330.0 1.6239e-05
17350.0 1.6196e-05
17370.0 1.6156e-05
17390.0 1.6115e-05
17410.0 1.6072e-05
17430.0 1.603e-05
17450.0 1.5989e-05
17470.0 1.5945e-05
17490.0 1.5901e-05
17510.0 1.5859e-05
17530.0 1.5816e-05
17550.0 1.5772e-05
17570.0 1.5729e-05
17590.0 1.5686e-05
17610.0 1.5641e-05
17630.0 1.5597e-05
17650.0 1.5553e-05
17670.0 1.5509e-05
17690.0 1.5462e-05
17710.0 1.5418e-05
17730.0 1.5374e-05
17750.0 1.5328e-05
17770.0 1.5282e-05
17790.0 1.5238e-05
17810.0 1.5192e-05
17830.0 1.5145e-05
17850.0 1.51e-05
17870.0 1.5054e-05
17890.0 1.5006e-05
17910.0 1.4959e-05
17930.0 1.4914e-05
17950.0 1.4867e-05
17970.0 1.4819e-05
17990.0 1.4773e-05
18010.0 1.4727e-05
18030.0 1.4677e-05
18050.0 1.463e-05
18070.0 1.4583e-05
18090.0 1.4535e-05
18110.0 1.4486e-05
18130.0 1.4439e-05
18150.0 1.4391e-05
18170.0 1.4342e-05
18190.0 1.4293e-05
18210.0 1.4246e-05
18230.0 1.4196e-05
18250.0 1.4146e-05
18270.0 1.4098e-05
18290.0 1.405e-05
18310.0 1.4e-05
18330.0 1.3951e-05
18350.0 1.3903e-05
18370.0 1.3852e-05
18390.0 1.3802e-05
18410.0 1.3753e-05
18430.0 1.3704e-05
18450.0 1.3652e-05
18470.0 1.3603e-05
18490.0 1.3554e-05
18510.0 1.3503e-05
18530.0 1.3453e-05
18550.0 1.3404e-05
18570.0 1.3354e-05
18590.0 1.3302e-05
18610.0 1.3252e-05
18630.0 1.3202e-05
18650.0 1.3151e-05
18670.0 1.31e-05
18690.0 1.3051e-05
18710.0 1.3e-05
18730.0 1.2948e-05
18750.0 1.2898e-05
18770.0 1.2849e-05
18790.0 1.2796e-05
18810.0 1.2745e-05
18830.0 1.2695e-05
18850.0 1.2644e-05
18870.0 1.2592e-05
18890.0 1.2542e-05
18910.0 1.2492e-05
18930.0 1.2439e-05
18950.0 1.2388e-05
18970.0 1.2338e-05
18990.0 1.2287e-05
19010.0 1.2234e-05
19030.0 1.2184e-05
19050.0 1.2133e-05
19070.0 1.2081e-05
19090.0 1.203e-05
19110.0 1.1981e-05
19130.0 1.1929e-05
19150.0 1.1876e-05
19170.0 1.1826e-05
19190.0 1.1775e-05
19210.0 1.1723e-05
19230.0 1.1671e-05
19250.0 1.1622e-05
19270.0 1.157e-05
19290.0 1.1519e-05
19310.0 1.1469e-05
19330.0 1.1418e-05
19350.0 1.1365e-05
19370.0 1.1314e-05
19390.0 1.1264e-05
19410.0 1.1213e-05
19430.0 1.1161e-05
19450.0 1.1111e-05
19470.0 1.1061e-05
19490.0 1.1009e-05
19510.0 1.0958e-05
19530.0 1.0908e-05
19550.0 1.0857e-05
19570.0 1.0805e-05
19590.0 1.0755e-05
19610.0 1.0705e-05
19630.0 1.0653e-05
19650.0 1.0603e-05
19670.0 1.0554e-05
19690.0 1.0502e-05
19710.0 1.0451e-05
19730.0 1.0402e-05
19750.0 1.0351e-05
19770.0 1.0299e-05
19790.0 1.0249e-05
19810.0 1.02e-05
19830.0 1.0149e-05
19850.0 1.0098e-05
19870.0 1.0048e-05
19890.0 9.994e-06
19910.0 9.9353e-06
19930.0 9.8729e-06
19950.0 9.8021e-06
19970.0 9.7158e-06
19990.0 9.6127e-06
20010.0 8.5989e-06
20030.0 8.4717e-06
20050.0 8.3235e-06
20070.0 8.1634e-06
20090.0 7.9916e-06
20110.0 7.7978e-06
20130.0 7.6019e-06
20150.0 7.4081e-06
20170.0 7.2074e-06
20190.0 7.0042e-06
20210.0 6.8123e-06
20230.0 6.6253e-06
20250.0 6.438e-06
20270.0 6.2642e-06
20290.0 6.1054e-06
20310.0 5.9545e-06
20330.0 5.8134e-06
20350.0 5.6959e-06
20370.0 5.5914e-06
20390.0 5.4995e-06
20410.0 5.4249e-06
20430.0 5.3669e-06
20450.0 5.3205e-06
20470.0 5.2887e-06
20490.0 5.2708e-06
20510.0 5.2644e-06
20530.0 5.2691e-06
20550.0 5.2837e-06
20570.0 5.3059e-06
20590.0 5.3367e-06
20610.0 5.3744e-06
20630.0 5.4162e-06
20650.0 5.4633e-06
20670.0 5.5174e-06
20690.0 5.5728e-06
20710.0 5.6301e-06
20730.0 5.692e-06
20750.0 5.7567e-06
20770.0 5.8202e-06
20790.0 5.887e-06
20810.0 5.9575e-06
20830.0 6.0275e-06
20850.0 6.0977e-06
20870.0 6.1727e-06
20890.0 6.249e-06
20910.0 6.3225e-06
20930.0 6.3986e-06
20950.0 6.4773e-06
20970.0 6.5539e-06
20990.0 6.6294e-06
21010.0 6.7087e-06
21030.0 6.7861e-06
21050.0 6.8598e-06
21070.0 6.9333e-06
21090.0 7.0071e-06
21110.0 7.0741e-06
21130.0 7.137e-06
21150.0 7.1979e-06
21170.0 7.253e-06
21190.0 7.3002e-06
21210.0 7.3426e-06
21230.0 7.3777e-06
21250.0 7.4025e-06
21270.0 7.418e-06
21290.0 7.4232e-06
21310.0 7.4166e-06
21330.0 7.3985e-06
21350.0 7.3673e-06
21370.0 7.3219e-06
21390.0 7.2644e-06
21410.0 7.1941e-06
21430.0 7.1053e-06
21450.0 7.0057e-06
21470.0 6.8971e-06
21490.0 6.7745e-06
21510.0 6.6401e-06
21530.0 6.5034e-06
21550.0 6.3603e-06
21570.0 6.2078e-06
21590.0 6.0577e-06
21610.0 5.9127e-06
21630.0 5.7676e-06
21650.0 5.6257e-06
21670.0 5.5027e-06
21690.0 5.3891e-06
21710.0 5.2868e-06
21730.0 5.2028e-06
21750.0 5.1378e-06
21770.0 5.088e-06
21790.0 5.0589e-06
21810.0 5.05e-06
21830.0 5.06e-06
21850.0 5.0901e-06
21870.0 5.1377e-06
21890.0 5.1994e-06
21910.0 5.2789e-06
21930.0 5.3724e-06
21950.0 5.4738e-06
21970.0 5.5862e-06
21990.0 5.7125e-06
22010.0 5.8388e-06
22030.0 5.9671e-06
22050.0 6.1019e-06
22070.0 6.2376e-06
22090.0 6.366e-06
22110.0 6.4956e-06
22130.0 6.6251e-06
22150.0 6.746e-06
22170.0 6.8599e-06
22190.0 6.973e-06
22210.0 7.0781e-06
22230.0 7.1706e-06
22250.0 7.2577e-06
22270.0 7.3378e-06
22290.0 7.4063e-06
22310.0 7.4649e-06
22330.0 7.5165e-06
22350.0 7.5562e-06
22370.0 7.584e-06
22390.0 7.6012e-06
22410.0 7.6063e-06
22430.0 7.5985e-06
22450.0 7.5784e-06
22470.0 7.5442e-06
22490.0 7.4964e-06
22510.0 7.437e-06
22530.0 7.3612e-06
22550.0 7.2691e-06
22570.0 7.1671e-06
22590.0 7.0521e-06
22610.0 6.9199e-06
22630.0 6.7769e-06
22650.0 6.6291e-06
