#lamb flux
1010.0 6.7201e-10
1030.0 7.4325e-10
1050.0 8.2518e-10
1070.0 9.1742e-10
1090.0 1.0222e-09
1110.0 1.1296e-09
1130.0 1.2378e-09
1150.0 1.3511e-09
1170.0 1.4679e-09
1190.0 1.5788e-09
1210.0 1.6911e-09
1230.0 1.8071e-09
1250.0 1.9208e-09
1270.0 2.0312e-09
1290.0 2.1479e-09
1310.0 2.2645e-09
1330.0 2.3763e-09
1350.0 2.4894e-09
1370.0 2.6062e-09
1390.0 2.72e-09
1410.0 2.8304e-09
1430.0 2.9459e-09
1450.0 3.0614e-09
1470.0 3.173e-09
1490.0 3.2858e-09
1510.0 3.4049e-09
1530.0 3.5179e-09
1550.0 3.6293e-09
1570.0 3.7446e-09
1590.0 3.86e-09
1610.0 3.9703e-09
1630.0 4.0841e-09
1650.0 4.2009e-09
1670.0 4.314e-09
1690.0 4.4256e-09
1710.0 4.5417e-09
1730.0 4.6585e-09
1750.0 4.7685e-09
1770.0 4.8818e-09
1790.0 4.9975e-09
1810.0 5.1096e-09
1830.0 5.22e-09
1850.0 5.3373e-09
1870.0 5.4517e-09
1890.0 5.5625e-09
1910.0 5.6757e-09
1930.0 5.7919e-09
1950.0 5.9031e-09
1970.0 6.0132e-09
1990.0 6.1276e-09
2010.0 6.2405e-09
2030.0 6.3495e-09
2050.0 6.4622e-09
2070.0 6.5779e-09
2090.0 6.6874e-09
2110.0 6.7967e-09
2130.0 6.9096e-09
2150.0 7.0205e-09
2170.0 7.1269e-09
2190.0 7.2375e-09
2210.0 7.3489e-09
2230.0 7.456e-09
2250.0 7.5628e-09
2270.0 7.6746e-09
2290.0 7.783e-09
2310.0 7.8872e-09
2330.0 7.9956e-09
2350.0 8.107e-09
2370.0 8.2178e-09
2390.0 8.3379e-09
2410.0 8.4802e-09
2430.0 8.6439e-09
2450.0 8.8395e-09
2470.0 9.0901e-09
2490.0 9.406e-09
2510.0 9.765e-09
2530.0 1.0197e-08
2550.0 1.0738e-08
2570.0 1.1411e-08
2590.0 1.2287e-08
2610.0 1.3598e-08
2630.0 1.5469e-08
2650.0 1.7916e-08
2670.0 2.108e-08
2690.0 2.4968e-08
2710.0 2.9118e-08
2730.0 3.3219e-08
2750.0 3.7258e-08
2770.0 4.0771e-08
2790.0 4.3561e-08
2810.0 4.5775e-08
2830.0 4.7505e-08
2850.0 4.8686e-08
2870.0 4.9553e-08
2890.0 5.0239e-08
2910.0 5.0787e-08
2930.0 5.1234e-08
2950.0 5.1661e-08
2970.0 5.2079e-08
2990.0 5.2471e-08
3010.0 1.4831e-06
3030.0 1.4942e-06
3050.0 1.5049e-06
3070.0 1.5141e-06
3090.0 1.522e-06
3110.0 1.5269e-06
3130.0 1.5267e-06
3150.0 1.5199e-06
3170.0 1.5036e-06
3190.0 1.4781e-06
3210.0 1.4456e-06
3230.0 1.4085e-06
3250.0 1.3719e-06
3270.0 1.3451e-06
3290.0 1.3303e-06
3310.0 1.3327e-06
3330.0 1.352e-06
3350.0 1.3856e-06
3370.0 1.4335e-06
3390.0 1.494e-06
3410.0 1.5597e-06
3430.0 1.6336e-06
3450.0 1.7186e-06
3470.0 1.8114e-06
3490.0 1.9098e-06
3510.0 2.021e-06
3530.0 2.1401e-06
3550.0 2.2606e-06
3570.0 2.3864e-06
3590.0 2.5232e-06
3610.0 2.6641e-06
3630.0 2.8046e-06
3650.0 2.9504e-06
3670.0 3.0835e-06
3690.0 3.1829e-06
3710.0 3.24e-06
3730.0 3.2418e-06
3750.0 3.1967e-06
3770.0 3.179e-06
3790.0 3.1601e-06
3810.0 3.0824e-06
3830.0 3.1779e-06
3850.0 3.5532e-06
3870.0 3.7593e-06
3890.0 3.7421e-06
3910.0 3.7581e-06
3930.0 3.857e-06
3950.0 3.9179e-06
3970.0 3.5696e-06
3990.0 3.0714e-06
4010.0 9.2055e-06
4030.0 1.1154e-05
4050.0 1.2787e-05
4070.0 1.1095e-05
4090.0 1.0049e-05
4110.0 8.867e-06
4130.0 8.1612e-06
4150.0 8.681e-06
4170.0 8.5512e-06
4190.0 9.115e-06
4210.0 9.0316e-06
4230.0 9.553e-06
4250.0 1.1301e-05
4270.0 1.1434e-05
4290.0 1.0537e-05
4310.0 1.0948e-05
4330.0 1.1646e-05
4350.0 1.3058e-05
4370.0 1.486e-05
4390.0 1.3944e-05
4410.0 1.0303e-05
4430.0 8.7217e-06
4450.0 8.0142e-06
4470.0 6.1512e-06
4490.0 6.6379e-06
4510.0 1.0027e-05
4530.0 1.1564e-05
4550.0 1.1664e-05
4570.0 1.3125e-05
4590.0 1.4951e-05
4610.0 2.0165e-05
4630.0 2.619e-05
4650.0 2.8403e-05
4670.0 2.6304e-05
4690.0 2.5098e-05
4710.0 2.6531e-05
4730.0 2.5038e-05
4750.0 1.8719e-05
4770.0 1.3731e-05
4790.0 1.2822e-05
4810.0 1.2221e-05
4830.0 1.1189e-05
4850.0 1.2278e-05
4870.0 1.622e-05
4890.0 1.9128e-05
4910.0 1.6782e-05
4930.0 1.485e-05
4950.0 1.6315e-05
4970.0 2.0923e-05
4990.0 2.8355e-05
5010.0 3.2619e-05
5030.0 2.8762e-05
5050.0 1.946e-05
5070.0 1.2825e-05
5090.0 1.0341e-05
5110.0 1.0635e-05
5130.0 1.2274e-05
5150.0 1.3298e-05
5170.0 1.3099e-05
5190.0 1.224e-05
5210.0 1.2794e-05
5230.0 1.3449e-05
5250.0 1.4494e-05
5270.0 1.5638e-05
5290.0 1.7331e-05
5310.0 2.0172e-05
5330.0 2.2323e-05
5350.0 2.2181e-05
5370.0 2.3299e-05
5390.0 2.6736e-05
5410.0 2.6712e-05
5430.0 2.3623e-05
5450.0 2.1704e-05
5470.0 2.3046e-05
5490.0 2.8156e-05
5510.0 3.5205e-05
5530.0 4.0379e-05
5550.0 3.9027e-05
5570.0 3.5478e-05
5590.0 3.0849e-05
5610.0 2.845e-05
5630.0 2.7587e-05
5650.0 2.6274e-05
5670.0 2.4897e-05
5690.0 2.2258e-05
5710.0 2.1702e-05
5730.0 1.9991e-05
5750.0 1.4095e-05
5770.0 1.0996e-05
5790.0 1.2461e-05
5810.0 1.4071e-05
5830.0 1.7267e-05
5850.0 2.0554e-05
5870.0 2.2805e-05
5890.0 2.3192e-05
5910.0 2.2753e-05
5930.0 2.1658e-05
5950.0 2.2069e-05
5970.0 2.5157e-05
5990.0 2.3654e-05
6010.0 1.9829e-05
6030.0 1.6753e-05
6050.0 1.459e-05
6070.0 1.451e-05
6090.0 1.5734e-05
6110.0 1.7593e-05
6130.0 1.7862e-05
6150.0 1.5369e-05
6170.0 1.352e-05
6190.0 1.5215e-05
6210.0 2.0113e-05
6230.0 2.6394e-05
6250.0 2.8589e-05
6270.0 2.4983e-05
6290.0 2.1019e-05
6310.0 1.6409e-05
6330.0 1.2573e-05
6350.0 1.1214e-05
6370.0 1.1793e-05
6390.0 1.3634e-05
6410.0 1.6811e-05
6430.0 1.963e-05
6450.0 2.2462e-05
6470.0 2.572e-05
6490.0 3.1068e-05
6510.0 3.4738e-05
6530.0 3.408e-05
6550.0 3.0817e-05
6570.0 2.6161e-05
6590.0 2.359e-05
6610.0 2.0341e-05
6630.0 1.8428e-05
6650.0 1.742e-05
6670.0 1.6923e-05
6690.0 1.5291e-05
6710.0 1.39e-05
6730.0 1.0012e-05
6750.0 9.9255e-06
6770.0 1.0788e-05
6790.0 1.24e-05
6810.0 1.1347e-05
6830.0 1.1684e-05
6850.0 1.0928e-05
6870.0 9.9829e-06
6890.0 9.5851e-06
6910.0 1.0214e-05
6930.0 9.567e-06
6950.0 9.8428e-06
6970.0 1.0353e-05
6990.0 1.1751e-05
7010.0 1.1851e-05
7030.0 1.204e-05
7050.0 1.1482e-05
7070.0 1.094e-05
7090.0 1.0972e-05
7110.0 1.1289e-05
7130.0 1.2149e-05
7150.0 1.2903e-05
7170.0 1.4238e-05
7190.0 1.5652e-05
7210.0 1.538e-05
7230.0 1.5811e-05
7250.0 1.6991e-05
7270.0 1.8516e-05
7290.0 2.1977e-05
7310.0 2.3847e-05
7330.0 2.305e-05
7350.0 2.0847e-05
7370.0 1.8139e-05
7390.0 1.7597e-05
7410.0 1.87e-05
7430.0 2.0783e-05
7450.0 2.2637e-05
7470.0 2.2429e-05
7490.0 2.0451e-05
7510.0 2.3166e-05
7530.0 2.2912e-05
7550.0 2.0594e-05
7570.0 1.6087e-05
7590.0 1.1059e-05
7610.0 9.4924e-06
7630.0 1.0785e-05
7650.0 1.2752e-05
7670.0 1.5871e-05
7690.0 1.7464e-05
7710.0 1.82e-05
7730.0 1.9126e-05
7750.0 2.1471e-05
7770.0 2.1809e-05
7790.0 2.0032e-05
7810.0 1.8278e-05
7830.0 1.8849e-05
7850.0 1.8323e-05
7870.0 1.6799e-05
7890.0 1.4114e-05
7910.0 1.1473e-05
7930.0 1.0955e-05
7950.0 9.9804e-06
7970.0 9.2387e-06
7990.0 9.1859e-06
8010.0 6.8034e-07
8030.0 6.7149e-07
8050.0 6.6244e-07
8070.0 6.7111e-07
8090.0 7.2109e-07
8110.0 7.088e-07
8130.0 5.8467e-07
8150.0 5.694e-07
8170.0 4.9046e-07
8190.0 4.6481e-07
8210.0 6.0361e-07
8230.0 6.7204e-07
8250.0 6.057e-07
8270.0 5.2718e-07
8290.0 5.139e-07
8310.0 3.9552e-07
8330.0 2.6658e-07
8350.0 1.8919e-07
8370.0 1.192e-07
8390.0 2.1789e-07
8410.0 2.539e-07
8430.0 3.1297e-07
8450.0 3.6751e-07
8470.0 4.568e-07
8490.0 4.5357e-07
8510.0 4.4616e-07
8530.0 4.6563e-07
8550.0 6.2822e-07
8570.0 7.4373e-07
8590.0 8.0247e-07
8610.0 1.0137e-06
8630.0 1.2211e-06
8650.0 1.2774e-06
8670.0 1.3575e-06
8690.0 1.3651e-06
8710.0 1.2363e-06
8730.0 1.15e-06
8750.0 1.0151e-06
8770.0 9.6315e-07
8790.0 9.4624e-07
8810.0 9.0671e-07
8830.0 7.2505e-07
8850.0 5.3079e-07
8870.0 4.0642e-07
8890.0 3.9734e-07
8910.0 4.5536e-07
8930.0 5.1794e-07
8950.0 5.2785e-07
8970.0 5.3035e-07
8990.0 4.7301e-07
9010.0 4.9569e-06
9030.0 4.4915e-06
9050.0 4.5132e-06
9070.0 4.5488e-06
9090.0 4.5801e-06
9110.0 4.6187e-06
9130.0 4.6484e-06
9150.0 4.6716e-06
9170.0 4.6963e-06
9190.0 4.7226e-06
9210.0 4.7503e-06
9230.0 4.7796e-06
9250.0 4.8094e-06
9270.0 4.8402e-06
9290.0 4.872e-06
9310.0 4.904e-06
9330.0 4.9366e-06
9350.0 4.9705e-06
9370.0 5.0047e-06
9390.0 5.0393e-06
9410.0 5.0748e-06
9430.0 5.1115e-06
9450.0 5.148e-06
9470.0 5.1852e-06
9490.0 5.2236e-06
9510.0 5.2624e-06
9530.0 5.3013e-06
9550.0 5.3417e-06
9570.0 5.3827e-06
9590.0 5.4239e-06
9610.0 5.4658e-06
9630.0 5.5087e-06
9650.0 5.5521e-06
9670.0 5.5955e-06
9690.0 5.6401e-06
9710.0 5.6854e-06
9730.0 5.7308e-06
9750.0 5.7769e-06
9770.0 5.8243e-06
9790.0 5.8716e-06
9810.0 5.9192e-06
9830.0 5.9678e-06
9850.0 6.017e-06
9870.0 6.0661e-06
9890.0 6.1159e-06
9910.0 6.1667e-06
9930.0 6.2175e-06
9950.0 6.2685e-06
9970.0 6.3205e-06
9990.0 6.373e-06
10010.0 5.5301e-06
10030.0 5.5755e-06
10050.0 5.6218e-06
10070.0 5.6697e-06
10090.0 5.7149e-06
10110.0 5.7611e-06
10130.0 5.8076e-06
10150.0 5.8539e-06
10170.0 5.9008e-06
10190.0 5.9485e-06
10210.0 5.9956e-06
10230.0 6.0426e-06
10250.0 6.0903e-06
10270.0 6.138e-06
10290.0 6.1851e-06
10310.0 6.2328e-06
10330.0 6.281e-06
10350.0 6.3284e-06
10370.0 6.3756e-06
10390.0 6.4233e-06
10410.0 6.4708e-06
10430.0 6.5174e-06
10450.0 6.5645e-06
10470.0 6.6117e-06
10490.0 6.6581e-06
10510.0 6.7041e-06
10530.0 6.751e-06
10550.0 6.797e-06
10570.0 6.8421e-06
10590.0 6.8874e-06
10610.0 6.9327e-06
10630.0 6.9769e-06
10650.0 7.0207e-06
10670.0 7.065e-06
10690.0 7.1084e-06
10710.0 7.1508e-06
10730.0 7.1934e-06
10750.0 7.236e-06
10770.0 7.2769e-06
10790.0 7.3175e-06
10810.0 7.358e-06
10830.0 7.3972e-06
10850.0 7.4345e-06
10870.0 7.4706e-06
10890.0 7.5024e-06
10910.0 7.5268e-06
10930.0 7.5407e-06
10950.0 7.5374e-06
10970.0 7.5119e-06
10990.0 7.4618e-06
11010.0 7.378e-06
11030.0 7.2606e-06
11050.0 7.1176e-06
11070.0 6.9465e-06
11090.0 6.741e-06
11110.0 6.5284e-06
11130.0 6.3067e-06
11150.0 6.0679e-06
11170.0 5.8218e-06
11190.0 5.5831e-06
11210.0 5.3365e-06
11230.0 5.0837e-06
11250.0 4.8421e-06
11270.0 4.6102e-06
11290.0 4.3777e-06
11310.0 4.1576e-06
11330.0 3.9637e-06
11350.0 3.7805e-06
11370.0 3.6113e-06
11390.0 3.4648e-06
11410.0 3.3367e-06
11430.0 3.2177e-06
11450.0 3.1151e-06
11470.0 3.0264e-06
11490.0 2.9439e-06
11510.0 2.8644e-06
11530.0 2.7906e-06
11550.0 2.7173e-06
11570.0 2.6391e-06
11590.0 2.5581e-06
11610.0 2.4757e-06
11630.0 2.386e-06
11650.0 2.29e-06
11670.0 2.1953e-06
11690.0 2.0993e-06
11710.0 2.0003e-06
11730.0 1.9043e-06
11750.0 1.8155e-06
11770.0 1.7284e-06
11790.0 1.6468e-06
11810.0 1.5749e-06
11830.0 1.5107e-06
11850.0 1.4515e-06
11870.0 1.402e-06
11890.0 1.3608e-06
11910.0 1.3246e-06
11930.0 1.2936e-06
11950.0 1.2677e-06
11970.0 1.2445e-06
11990.0 1.2227e-06
12010.0 1.2025e-06
12030.0 1.183e-06
12050.0 1.1628e-06
12070.0 1.1419e-06
12090.0 1.1217e-06
12110.0 1.1011e-06
12130.0 1.0806e-06
12150.0 1.0616e-06
12170.0 1.0451e-06
12190.0 1.0308e-06
12210.0 1.0208e-06
12230.0 1.016e-06
12250.0 1.0168e-06
12270.0 1.0244e-06
12290.0 1.0389e-06
12310.0 1.0597e-06
12330.0 1.0888e-06
12350.0 1.1251e-06
12370.0 1.1664e-06
12390.0 1.2141e-06
12410.0 1.2699e-06
12430.0 1.3267e-06
12450.0 1.3855e-06
12470.0 1.448e-06
12490.0 1.5107e-06
12510.0 1.5696e-06
12530.0 1.6282e-06
12550.0 1.6847e-06
12570.0 1.7346e-06
12590.0 1.7784e-06
12610.0 1.8174e-06
12630.0 1.8485e-06
12650.0 1.87e-06
12670.0 1.8841e-06
12690.0 1.8897e-06
12710.0 1.8866e-06
12730.0 1.8757e-06
12750.0 1.8562e-06
12770.0 1.8294e-06
12790.0 1.7969e-06
12810.0 1.7581e-06
12830.0 1.7133e-06
12850.0 1.6664e-06
12870.0 1.6168e-06
12890.0 1.5631e-06
12910.0 1.5085e-06
12930.0 1.4548e-06
12950.0 1.3986e-06
12970.0 1.3415e-06
12990.0 1.2875e-06
13010.0 1.2341e-06
13030.0 1.1802e-06
13050.0 1.1283e-06
13070.0 1.0798e-06
13090.0 1.0311e-06
13110.0 9.8392e-07
13130.0 9.4046e-07
13150.0 8.993e-07
13170.0 8.5901e-07
13190.0 8.2315e-07
13210.0 7.9159e-07
13230.0 7.6274e-07
13250.0 7.379e-07
13270.0 7.183e-07
13290.0 7.0306e-07
13310.0 6.9256e-07
13330.0 6.8778e-07
13350.0 6.8834e-07
13370.0 6.9451e-07
13390.0 7.0664e-07
13410.0 7.2303e-07
13430.0 7.4434e-07
13450.0 7.7065e-07
13470.0 7.9987e-07
13490.0 8.3082e-07
13510.0 8.6572e-07
13530.0 9.0109e-07
13550.0 9.3496e-07
13570.0 9.6835e-07
13590.0 1.0009e-06
13610.0 1.0298e-06
13630.0 1.0551e-06
13650.0 1.0782e-06
13670.0 1.0973e-06
13690.0 1.1122e-06
13710.0 1.1236e-06
13730.0 1.1318e-06
13750.0 1.1359e-06
13770.0 1.1368e-06
13790.0 1.1347e-06
13810.0 1.1297e-06
13830.0 1.1223e-06
13850.0 1.1123e-06
13870.0 1.0997e-06
13890.0 1.0852e-06
13910.0 1.0689e-06
13930.0 1.05e-06
13950.0 1.0294e-06
13970.0 1.0084e-06
13990.0 9.8543e-07
14010.0 9.6104e-07
14030.0 9.367e-07
14050.0 9.1219e-07
14070.0 8.863e-07
14090.0 8.615e-07
14110.0 8.3818e-07
14130.0 8.1559e-07
14150.0 7.9432e-07
14170.0 7.7617e-07
14190.0 7.6048e-07
14210.0 7.4716e-07
14230.0 7.373e-07
14250.0 7.3093e-07
14270.0 7.2784e-07
14290.0 7.285e-07
14310.0 7.3256e-07
14330.0 7.3985e-07
14350.0 7.5058e-07
14370.0 7.6395e-07
14390.0 7.7913e-07
14410.0 7.9701e-07
14430.0 8.1665e-07
14450.0 8.367e-07
14470.0 8.5751e-07
14490.0 8.7964e-07
14510.0 9.0079e-07
14530.0 9.2089e-07
14550.0 9.4098e-07
14570.0 9.6026e-07
14590.0 9.7781e-07
14610.0 9.9479e-07
14630.0 1.0116e-06
14650.0 1.0272e-06
14670.0 1.0424e-06
14690.0 1.0581e-06
14710.0 1.0747e-06
14730.0 1.0912e-06
14750.0 1.1096e-06
14770.0 1.1304e-06
14790.0 1.153e-06
14810.0 1.1774e-06
14830.0 1.2064e-06
14850.0 1.2379e-06
14870.0 1.2708e-06
14890.0 1.3062e-06
14910.0 1.3439e-06
14930.0 1.3801e-06
14950.0 1.4139e-06
14970.0 1.4459e-06
14990.0 1.4728e-06
15010.0 1.4933e-06
15030.0 1.5085e-06
15050.0 1.5186e-06
15070.0 1.5235e-06
15090.0 1.5252e-06
15110.0 1.5247e-06
15130.0 1.5228e-06
15150.0 1.5202e-06
15170.0 1.5172e-06
15190.0 1.5139e-06
15210.0 1.5107e-06
15230.0 1.5075e-06
15250.0 1.5041e-06
15270.0 1.5008e-06
15290.0 1.4977e-06
15310.0 1.4945e-06
15330.0 1.4913e-06
15350.0 1.4882e-06
15370.0 1.4851e-06
15390.0 1.4819e-06
15410.0 1.4787e-06
15430.0 1.4757e-06
15450.0 1.4726e-06
15470.0 1.4694e-06
15490.0 1.4664e-06
15510.0 1.4634e-06
15530.0 1.4604e-06
15550.0 1.4573e-06
15570.0 1.4544e-06
15590.0 1.4514e-06
15610.0 1.4483e-06
15630.0 1.4454e-06
15650.0 1.4424e-06
15670.0 1.4394e-06
15690.0 1.4365e-06
15710.0 1.4336e-06
15730.0 1.4307e-06
15750.0 1.4277e-06
15770.0 1.4248e-06
15790.0 1.422e-06
15810.0 1.419e-06
15830.0 1.4161e-06
15850.0 1.4133e-06
15870.0 1.4104e-06
15890.0 1.4074e-06
15910.0 1.4047e-06
15930.0 1.4018e-06
15950.0 1.3989e-06
15970.0 1.396e-06
15990.0 1.3932e-06
16010.0 1.3903e-06
16030.0 1.3874e-06
16050.0 1.3847e-06
16070.0 1.3818e-06
16090.0 1.3789e-06
16110.0 1.3761e-06
16130.0 1.3734e-06
16150.0 1.3705e-06
16170.0 1.3676e-06
16190.0 1.3648e-06
16210.0 1.362e-06
16230.0 1.3591e-06
16250.0 1.3563e-06
16270.0 1.3535e-06
16290.0 1.3506e-06
16310.0 1.3478e-06
16330.0 1.345e-06
16350.0 1.3422e-06
16370.0 1.3392e-06
16390.0 1.3364e-06
16410.0 1.3336e-06
16430.0 1.3307e-06
16450.0 1.3278e-06
16470.0 1.3251e-06
16490.0 1.3222e-06
16510.0 1.3192e-06
16530.0 1.3164e-06
16550.0 1.3136e-06
16570.0 1.3106e-06
16590.0 1.3077e-06
16610.0 1.3049e-06
16630.0 1.302e-06
16650.0 1.2991e-06
16670.0 1.2962e-06
16690.0 1.2934e-06
16710.0 1.2904e-06
16730.0 1.2874e-06
16750.0 1.2846e-06
16770.0 1.2816e-06
16790.0 1.2786e-06
16810.0 1.2757e-06
16830.0 1.2728e-06
16850.0 1.2698e-06
16870.0 1.2669e-06
16890.0 1.264e-06
16910.0 1.2609e-06
16930.0 1.2579e-06
16950.0 1.2549e-06
16970.0 1.252e-06
16990.0 1.2489e-06
17010.0 1.2459e-06
17030.0 1.243e-06
17050.0 1.2399e-06
17070.0 1.2368e-06
17090.0 1.2338e-06
17110.0 1.2308e-06
17130.0 1.2276e-06
17150.0 1.2246e-06
17170.0 1.2216e-06
17190.0 1.2185e-06
17210.0 1.2153e-06
17230.0 1.2123e-06
17250.0 1.2092e-06
17270.0 1.206e-06
17290.0 1.2029e-06
17310.0 1.1999e-06
17330.0 1.1967e-06
17350.0 1.1934e-06
17370.0 1.1904e-06
17390.0 1.1873e-06
17410.0 1.184e-06
17430.0 1.1809e-06
17450.0 1.1778e-06
17470.0 1.1745e-06
17490.0 1.1712e-06
17510.0 1.1681e-06
17530.0 1.1649e-06
17550.0 1.1616e-06
17570.0 1.1584e-06
17590.0 1.1552e-06
17610.0 1.1519e-06
17630.0 1.1486e-06
17650.0 1.1455e-06
17670.0 1.1422e-06
17690.0 1.1388e-06
17710.0 1.1356e-06
17730.0 1.1323e-06
17750.0 1.129e-06
17770.0 1.1256e-06
17790.0 1.1224e-06
17810.0 1.1191e-06
17830.0 1.1157e-06
17850.0 1.1124e-06
17870.0 1.1091e-06
17890.0 1.1057e-06
17910.0 1.1023e-06
17930.0 1.099e-06
17950.0 1.0956e-06
17970.0 1.0922e-06
17990.0 1.0889e-06
18010.0 1.0856e-06
18030.0 1.0821e-06
18050.0 1.0787e-06
18070.0 1.0753e-06
18090.0 1.0719e-06
18110.0 1.0684e-06
18130.0 1.0651e-06
18150.0 1.0617e-06
18170.0 1.0582e-06
18190.0 1.0548e-06
18210.0 1.0514e-06
18230.0 1.0479e-06
18250.0 1.0444e-06
18270.0 1.041e-06
18290.0 1.0376e-06
18310.0 1.034e-06
18330.0 1.0306e-06
18350.0 1.0272e-06
18370.0 1.0237e-06
18390.0 1.0202e-06
18410.0 1.0167e-06
18430.0 1.0133e-06
18450.0 1.0097e-06
18470.0 1.0062e-06
18490.0 1.0028e-06
18510.0 9.9924e-07
18530.0 9.957e-07
18550.0 9.923e-07
18570.0 9.8878e-07
18590.0 9.8517e-07
18610.0 9.8168e-07
18630.0 9.7822e-07
18650.0 9.7464e-07
18670.0 9.7105e-07
18690.0 9.6764e-07
18710.0 9.6412e-07
18730.0 9.6052e-07
18750.0 9.5703e-07
18770.0 9.5358e-07
18790.0 9.4992e-07
18810.0 9.4635e-07
18830.0 9.4289e-07
18850.0 9.3935e-07
18870.0 9.3573e-07
18890.0 9.3225e-07
18910.0 9.2877e-07
18930.0 9.2515e-07
18950.0 9.2159e-07
18970.0 9.1812e-07
18990.0 9.1456e-07
19010.0 9.1086e-07
19030.0 9.074e-07
19050.0 9.039e-07
19070.0 9.0029e-07
19090.0 8.9673e-07
19110.0 8.933e-07
19130.0 8.8969e-07
19150.0 8.8606e-07
19170.0 8.8256e-07
19190.0 8.7905e-07
19210.0 8.754e-07
19230.0 8.7183e-07
19250.0 8.6838e-07
19270.0 8.6481e-07
19290.0 8.6121e-07
19310.0 8.5773e-07
19330.0 8.5423e-07
19350.0 8.5055e-07
19370.0 8.4701e-07
19390.0 8.4353e-07
19410.0 8.3995e-07
19430.0 8.3633e-07
19450.0 8.3288e-07
19470.0 8.2937e-07
19490.0 8.2575e-07
19510.0 8.2223e-07
19530.0 8.1877e-07
19550.0 8.1515e-07
19570.0 8.1153e-07
19590.0 8.0808e-07
19610.0 8.0456e-07
19630.0 8.0096e-07
19650.0 7.9746e-07
19670.0 7.9402e-07
19690.0 7.9042e-07
19710.0 7.8685e-07
19730.0 7.8339e-07
19750.0 7.7988e-07
19770.0 7.7623e-07
19790.0 7.7275e-07
19810.0 7.693e-07
19830.0 7.6572e-07
19850.0 7.6213e-07
19870.0 7.586e-07
19890.0 7.5481e-07
19910.0 7.5065e-07
19930.0 7.4619e-07
19950.0 7.411e-07
19970.0 7.3483e-07
19990.0 7.2728e-07
20010.0 6.4705e-07
20030.0 6.3769e-07
20050.0 6.2673e-07
20070.0 6.1485e-07
20090.0 6.0208e-07
20110.0 5.8763e-07
20130.0 5.73e-07
20150.0 5.585e-07
20170.0 5.4347e-07
20190.0 5.2822e-07
20210.0 5.1382e-07
20230.0 4.9978e-07
20250.0 4.857e-07
20270.0 4.7264e-07
20290.0 4.6071e-07
20310.0 4.4938e-07
20330.0 4.3879e-07
20350.0 4.3e-07
20370.0 4.2219e-07
20390.0 4.1535e-07
20410.0 4.0982e-07
20430.0 4.0556e-07
20450.0 4.0219e-07
20470.0 3.9993e-07
20490.0 3.9871e-07
20510.0 3.9836e-07
20530.0 3.9885e-07
20550.0 4.0008e-07
20570.0 4.0188e-07
20590.0 4.043e-07
20610.0 4.0724e-07
20630.0 4.1047e-07
20650.0 4.1409e-07
20670.0 4.1823e-07
20690.0 4.2245e-07
20710.0 4.2681e-07
20730.0 4.3151e-07
20750.0 4.3642e-07
20770.0 4.4125e-07
20790.0 4.4632e-07
20810.0 4.5169e-07
20830.0 4.5703e-07
20850.0 4.6239e-07
20870.0 4.6813e-07
20890.0 4.7398e-07
20910.0 4.7963e-07
20930.0 4.8549e-07
20950.0 4.9156e-07
20970.0 4.9748e-07
20990.0 5.0332e-07
21010.0 5.0946e-07
21030.0 5.1546e-07
21050.0 5.2119e-07
21070.0 5.2691e-07
21090.0 5.3265e-07
21110.0 5.3788e-07
21130.0 5.428e-07
21150.0 5.4756e-07
21170.0 5.5187e-07
21190.0 5.5558e-07
21210.0 5.5892e-07
21230.0 5.6169e-07
21250.0 5.6367e-07
21270.0 5.6493e-07
21290.0 5.654e-07
21310.0 5.6494e-07
21330.0 5.6361e-07
21350.0 5.6127e-07
21370.0 5.5784e-07
21390.0 5.5347e-07
21410.0 5.4812e-07
21430.0 5.4134e-07
21450.0 5.3374e-07
21470.0 5.2546e-07
21490.0 5.1609e-07
21510.0 5.0582e-07
21530.0 4.9538e-07
21550.0 4.8445e-07
21570.0 4.7278e-07
21590.0 4.6131e-07
21610.0 4.5023e-07
21630.0 4.3913e-07
21650.0 4.2829e-07
21670.0 4.189e-07
21690.0 4.1023e-07
21710.0 4.0243e-07
21730.0 3.9604e-07
21750.0 3.9111e-07
21770.0 3.8735e-07
21790.0 3.8519e-07
21810.0 3.8459e-07
21830.0 3.8544e-07
21850.0 3.8785e-07
21870.0 3.9161e-07
21890.0 3.9646e-07
21910.0 4.0269e-07
21930.0 4.0999e-07
21950.0 4.179e-07
21970.0 4.2666e-07
21990.0 4.365e-07
22010.0 4.4633e-07
22030.0 4.5631e-07
22050.0 4.668e-07
22070.0 4.7734e-07
22090.0 4.8732e-07
22110.0 4.9738e-07
22130.0 5.0743e-07
22150.0 5.1681e-07
22170.0 5.2566e-07
22190.0 5.3443e-07
22210.0 5.4258e-07
22230.0 5.4976e-07
22250.0 5.5652e-07
22270.0 5.6275e-07
22290.0 5.6807e-07
22310.0 5.7264e-07
22330.0 5.7666e-07
22350.0 5.7977e-07
22370.0 5.8196e-07
22390.0 5.8333e-07
22410.0 5.8376e-07
22430.0 5.8321e-07
22450.0 5.8171e-07
22470.0 5.7911e-07
22490.0 5.7546e-07
22510.0 5.7092e-07
22530.0 5.651e-07
22550.0 5.5803e-07
22570.0 5.5018e-07
22590.0 5.4133e-07
22610.0 5.3115e-07
22630.0 5.2013e-07
