#lamb flux
1010.0 6.3628e-07
1030.0 7.1676e-07
1050.0 8.0934e-07
1070.0 9.1355e-07
1090.0 1.0319e-06
1110.0 1.1533e-06
1130.0 1.2755e-06
1150.0 1.4035e-06
1170.0 1.5355e-06
1190.0 1.6607e-06
1210.0 1.7876e-06
1230.0 1.9187e-06
1250.0 2.0472e-06
1270.0 2.172e-06
1290.0 2.3038e-06
1310.0 2.4355e-06
1330.0 2.5618e-06
1350.0 2.6896e-06
1370.0 2.8215e-06
1390.0 2.95e-06
1410.0 3.0748e-06
1430.0 3.2052e-06
1450.0 3.3356e-06
1470.0 3.4615e-06
1490.0 3.5888e-06
1510.0 3.7233e-06
1530.0 3.8507e-06
1550.0 3.9763e-06
1570.0 4.1062e-06
1590.0 4.2361e-06
1610.0 4.3602e-06
1630.0 4.4881e-06
1650.0 4.6192e-06
1670.0 4.7458e-06
1690.0 4.8707e-06
1710.0 5.0003e-06
1730.0 5.1304e-06
1750.0 5.2524e-06
1770.0 5.3777e-06
1790.0 5.5053e-06
1810.0 5.6283e-06
1830.0 5.7486e-06
1850.0 5.876e-06
1870.0 5.9993e-06
1890.0 6.1177e-06
1910.0 6.2376e-06
1930.0 6.3598e-06
1950.0 6.4749e-06
1970.0 6.5874e-06
1990.0 6.7032e-06
2010.0 6.8153e-06
2030.0 6.9213e-06
2050.0 7.0292e-06
2070.0 7.1381e-06
2090.0 7.2376e-06
2110.0 7.3342e-06
2130.0 7.4318e-06
2150.0 7.5242e-06
2170.0 7.6082e-06
2190.0 7.6932e-06
2210.0 7.7754e-06
2230.0 7.849e-06
2250.0 7.9181e-06
2270.0 7.9881e-06
2290.0 8.0499e-06
2310.0 8.1024e-06
2330.0 8.1537e-06
2350.0 8.2014e-06
2370.0 8.2402e-06
2390.0 8.2769e-06
2410.0 8.3178e-06
2430.0 8.3564e-06
2450.0 8.3969e-06
2470.0 8.4504e-06
2490.0 8.5214e-06
2510.0 8.6038e-06
2530.0 8.7252e-06
2550.0 8.925e-06
2570.0 9.2391e-06
2590.0 9.7206e-06
2610.0 1.0521e-05
2630.0 1.1683e-05
2650.0 1.3149e-05
2670.0 1.4946e-05
2690.0 1.7004e-05
2710.0 1.9013e-05
2730.0 2.0812e-05
2750.0 2.2413e-05
2770.0 2.3627e-05
2790.0 2.4426e-05
2810.0 2.4928e-05
2830.0 2.5211e-05
2850.0 2.5276e-05
2870.0 2.523e-05
2890.0 2.5134e-05
2910.0 2.4999e-05
2930.0 2.4833e-05
2950.0 2.4672e-05
2970.0 2.4516e-05
2990.0 2.4354e-05
3010.0 0.00056912
3030.0 0.00056532
3050.0 0.00056157
3070.0 0.00055742
3090.0 0.00055309
3110.0 0.00054801
3130.0 0.00054151
3150.0 0.00053326
3170.0 0.00052258
3190.0 0.00050973
3210.0 0.00049571
3230.0 0.00048145
3250.0 0.00046888
3270.0 0.00046021
3290.0 0.00045652
3310.0 0.00045864
3330.0 0.00046677
3350.0 0.00047971
3370.0 0.00049773
3390.0 0.00052022
3410.0 0.00054466
3430.0 0.0005722
3450.0 0.0006039
3470.0 0.00063842
3490.0 0.00067489
3510.0 0.00071582
3530.0 0.00075957
3550.0 0.00080412
3570.0 0.00085129
3590.0 0.00090408
3610.0 0.00095983
3630.0 0.0010181
3650.0 0.0010792
3670.0 0.0011364
3690.0 0.0011809
3710.0 0.0012075
3730.0 0.0012085
3750.0 0.0011833
3770.0 0.0011082
3790.0 0.0010123
3810.0 0.00091196
3830.0 0.00080787
3850.0 0.00067546
3870.0 0.00048305
3890.0 0.00069944
3910.0 0.0011099
3930.0 0.0013561
3950.0 0.0013441
3970.0 0.0014211
3990.0 0.0015886
4010.0 0.0021138
4030.0 0.0020922
4050.0 0.0018433
4070.0 0.0017066
4090.0 0.0016228
4110.0 0.0019208
4130.0 0.0020651
4150.0 0.0021241
4170.0 0.0020655
4190.0 0.0020593
4210.0 0.002067
4230.0 0.0023434
4250.0 0.002586
4270.0 0.002655
4290.0 0.0026451
4310.0 0.0026552
4330.0 0.0028927
4350.0 0.0034026
4370.0 0.0038998
4390.0 0.0035957
4410.0 0.0028104
4430.0 0.0023239
4450.0 0.0020068
4470.0 0.0019024
4490.0 0.0021648
4510.0 0.0026056
4530.0 0.0029295
4550.0 0.0033086
4570.0 0.0037729
4590.0 0.0045039
4610.0 0.0061098
4630.0 0.0076106
4650.0 0.0076991
4670.0 0.0072869
4690.0 0.007763
4710.0 0.0082464
4730.0 0.0069331
4750.0 0.0048375
4770.0 0.003875
4790.0 0.0038285
4810.0 0.0036034
4830.0 0.0034131
4850.0 0.0038762
4870.0 0.0050489
4890.0 0.0058556
4910.0 0.0048734
4930.0 0.0043296
4950.0 0.0048518
4970.0 0.0065319
4990.0 0.0085743
5010.0 0.0092789
5030.0 0.007621
5050.0 0.0048175
5070.0 0.0033144
5090.0 0.0028976
5110.0 0.002996
5130.0 0.0032607
5150.0 0.0033868
5170.0 0.0033627
5190.0 0.0032615
5210.0 0.0031894
5230.0 0.0033512
5250.0 0.0036249
5270.0 0.004036
5290.0 0.0046307
5310.0 0.0052477
5330.0 0.0053948
5350.0 0.0053952
5370.0 0.0058943
5390.0 0.0065401
5410.0 0.0062512
5430.0 0.0052782
5450.0 0.0048825
5470.0 0.0054845
5490.0 0.0070359
5510.0 0.0089915
5530.0 0.010087
5550.0 0.0096533
5570.0 0.0086985
5590.0 0.0076484
5610.0 0.0071505
5630.0 0.0069333
5650.0 0.0069987
5670.0 0.0067762
5690.0 0.0061513
5710.0 0.0058927
5730.0 0.0054294
5750.0 0.0036918
5770.0 0.0031417
5790.0 0.0035811
5810.0 0.0042958
5830.0 0.0050739
5850.0 0.0057206
5870.0 0.0059253
5890.0 0.0057136
5910.0 0.0054715
5930.0 0.005456
5950.0 0.0057013
5970.0 0.0062469
5990.0 0.0058066
6010.0 0.0048175
6030.0 0.0039889
6050.0 0.0034606
6070.0 0.0035192
6090.0 0.0039858
6110.0 0.004358
6130.0 0.0041701
6150.0 0.0037463
6170.0 0.0039399
6190.0 0.0047732
6210.0 0.0060057
6230.0 0.0071721
6250.0 0.0072587
6270.0 0.0063585
6290.0 0.0052827
6310.0 0.0041709
6330.0 0.0032718
6350.0 0.0029574
6370.0 0.0031741
6390.0 0.0037803
6410.0 0.0044353
6430.0 0.0051736
6450.0 0.006071
6470.0 0.007262
6490.0 0.0089458
6510.0 0.0099553
6530.0 0.0093351
6550.0 0.00855
6570.0 0.0081052
6590.0 0.0078049
6610.0 0.0068668
6630.0 0.0062864
6650.0 0.0057943
6670.0 0.005903
6690.0 0.0056947
6710.0 0.0051053
6730.0 0.0043909
6750.0 0.004033
6770.0 0.0040845
6790.0 0.0046563
6810.0 0.004559
6830.0 0.0046863
6850.0 0.0045243
6870.0 0.0043229
6890.0 0.0041697
6910.0 0.0041059
6930.0 0.0038417
6950.0 0.0039935
6970.0 0.0040367
6990.0 0.0045114
7010.0 0.004783
7030.0 0.0044808
7050.0 0.0041705
7070.0 0.0040212
7090.0 0.0037638
7110.0 0.0035694
7130.0 0.0036965
7150.0 0.0039446
7170.0 0.0042252
7190.0 0.004284
7210.0 0.004156
7230.0 0.0042865
7250.0 0.0048722
7270.0 0.0056667
7290.0 0.0062552
7310.0 0.006171
7330.0 0.0055057
7350.0 0.0049205
7370.0 0.0045613
7390.0 0.0046197
7410.0 0.0049434
7430.0 0.0054198
7450.0 0.0058623
7470.0 0.0063007
7490.0 0.0068417
7510.0 0.0072279
7530.0 0.0067449
7550.0 0.00568
7570.0 0.0044659
7590.0 0.0032896
7610.0 0.0029217
7630.0 0.003162
7650.0 0.0036628
7670.0 0.0042502
7690.0 0.0048208
7710.0 0.0051493
7730.0 0.0052916
7750.0 0.0055305
7770.0 0.0055122
7790.0 0.0053073
7810.0 0.0052928
7830.0 0.0051934
7850.0 0.0047436
7870.0 0.0043116
7890.0 0.0038706
7910.0 0.0033035
7930.0 0.0028851
7950.0 0.0026156
7970.0 0.0025452
7990.0 0.0026133
8010.0 0.0027553
8030.0 0.0027613
8050.0 0.0027818
8070.0 0.0027368
8090.0 0.002804
8110.0 0.0026453
8130.0 0.0023155
8150.0 0.0021757
8170.0 0.0020055
8190.0 0.0019852
8210.0 0.0021285
8230.0 0.0022775
8250.0 0.0021109
8270.0 0.0018819
8290.0 0.0015464
8310.0 0.001066
8330.0 0.00069194
8350.0 0.00050408
8370.0 0.00053585
8390.0 0.00063469
8410.0 0.00080632
8430.0 0.00098543
8450.0 0.0010882
8470.0 0.0012075
8490.0 0.0011872
8510.0 0.0011935
8530.0 0.0012467
8550.0 0.0015094
8570.0 0.0018597
8590.0 0.0021252
8610.0 0.0025691
8630.0 0.0029785
8650.0 0.0031344
8670.0 0.0031868
8690.0 0.0031683
8710.0 0.002963
8730.0 0.0028444
8750.0 0.0026326
8770.0 0.0025283
8790.0 0.0025086
8810.0 0.0023919
8830.0 0.0020123
8850.0 0.0016585
8870.0 0.0013833
8890.0 0.0013522
8910.0 0.0014607
8930.0 0.0015505
8950.0 0.0017404
8970.0 0.001768
8990.0 0.0017408
9010.0 0.0016741
9030.0 0.0016565
9050.0 0.0016728
9070.0 0.0016857
9090.0 0.0016953
9110.0 0.001704
9130.0 0.0017117
9150.0 0.001719
9170.0 0.0017267
9190.0 0.0017348
9210.0 0.0017437
9230.0 0.0017527
9250.0 0.0017624
9270.0 0.0017724
9290.0 0.0017829
9310.0 0.0017938
9330.0 0.0018053
9350.0 0.001817
9370.0 0.0018292
9390.0 0.0018419
9410.0 0.001855
9430.0 0.0018683
9450.0 0.0018823
9470.0 0.0018966
9490.0 0.0019112
9510.0 0.0019262
9530.0 0.0019417
9550.0 0.0019575
9570.0 0.0019736
9590.0 0.0019901
9610.0 0.002007
9630.0 0.0020241
9650.0 0.0020416
9670.0 0.0020596
9690.0 0.0020777
9710.0 0.0020961
9730.0 0.0021149
9750.0 0.002134
9770.0 0.0021532
9790.0 0.0021728
9810.0 0.0021926
9830.0 0.0022127
9850.0 0.0022329
9870.0 0.0022534
9890.0 0.0022741
9910.0 0.0022949
9930.0 0.0023159
9950.0 0.0023371
9970.0 0.0023584
9990.0 0.0023797
10010.0 0.0022916
10030.0 0.0023118
10050.0 0.0023319
10070.0 0.002352
10090.0 0.0023724
10110.0 0.0023927
10130.0 0.0024129
10150.0 0.0024333
10170.0 0.0024536
10190.0 0.0024736
10210.0 0.0024937
10230.0 0.0025139
10250.0 0.0025337
10270.0 0.0025534
10290.0 0.0025732
10310.0 0.0025926
10330.0 0.0026117
10350.0 0.0026308
10370.0 0.0026497
10390.0 0.0026683
10410.0 0.0026865
10430.0 0.0027048
10450.0 0.0027226
10470.0 0.0027399
10490.0 0.0027572
10510.0 0.0027741
10530.0 0.0027903
10550.0 0.0028063
10570.0 0.0028221
10590.0 0.0028374
10610.0 0.0028521
10630.0 0.0028666
10650.0 0.0028807
10670.0 0.002894
10690.0 0.002907
10710.0 0.0029196
10730.0 0.0029315
10750.0 0.0029428
10770.0 0.0029539
10790.0 0.0029644
10810.0 0.0029741
10830.0 0.0029832
10850.0 0.0029918
10870.0 0.0029988
10890.0 0.0030041
10910.0 0.003007
10930.0 0.003006
10950.0 0.0029984
10970.0 0.0029831
10990.0 0.0029596
11010.0 0.0028744
11030.0 0.0028281
11050.0 0.0027733
11070.0 0.0027083
11090.0 0.0026302
11110.0 0.0025497
11130.0 0.0024658
11150.0 0.0023754
11170.0 0.0022827
11190.0 0.0021937
11210.0 0.0021029
11230.0 0.0020112
11250.0 0.0019255
11270.0 0.0018449
11290.0 0.001766
11310.0 0.001693
11330.0 0.0016303
11350.0 0.0015721
11370.0 0.0015191
11390.0 0.0014736
11410.0 0.0014338
11430.0 0.0013961
11450.0 0.0013625
11470.0 0.001332
11490.0 0.0013018
11510.0 0.0012707
11530.0 0.00124
11550.0 0.0012081
11570.0 0.0011731
11590.0 0.0011363
11610.0 0.0010988
11630.0 0.0010583
11650.0 0.0010157
11670.0 0.00097433
11690.0 0.00093321
11710.0 0.00089167
11730.0 0.00085219
11750.0 0.00081628
11770.0 0.00078164
11790.0 0.00074965
11810.0 0.00072174
11830.0 0.0006969
11850.0 0.00067401
11870.0 0.00065457
11890.0 0.00063795
11910.0 0.00062275
11930.0 0.00060885
11950.0 0.00059633
11970.0 0.00058418
11990.0 0.0005717
12010.0 0.00055928
12030.0 0.00054667
12050.0 0.00053323
12070.0 0.00051902
12090.0 0.0005052
12110.0 0.00049111
12130.0 0.00047689
12150.0 0.00046352
12170.0 0.0004514
12190.0 0.00044008
12210.0 0.0004307
12230.0 0.00042368
12250.0 0.00041893
12270.0 0.0004168
12290.0 0.00041741
12310.0 0.0004205
12330.0 0.00042644
12350.0 0.0004349
12370.0 0.00044513
12390.0 0.00045735
12410.0 0.00047198
12430.0 0.00048679
12450.0 0.00050199
12470.0 0.00051797
12490.0 0.00053365
12510.0 0.00054787
12530.0 0.00056155
12550.0 0.00057419
12570.0 0.00058461
12590.0 0.00059304
12610.0 0.00059981
12630.0 0.00060426
12650.0 0.00060616
12670.0 0.0006061
12690.0 0.00060393
12710.0 0.00059978
12730.0 0.00059393
12750.0 0.00058624
12770.0 0.00057715
12790.0 0.00056704
12810.0 0.00055574
12830.0 0.00054328
12850.0 0.00053055
12870.0 0.00051732
12890.0 0.0005032
12910.0 0.00048884
12930.0 0.00047456
12950.0 0.00045955
12970.0 0.00044405
12990.0 0.00042904
13010.0 0.00041392
13030.0 0.00039834
13050.0 0.00038305
13070.0 0.00036842
13090.0 0.00035354
13110.0 0.00033896
13130.0 0.00032536
13150.0 0.00031241
13170.0 0.00029977
13190.0 0.00028853
13210.0 0.00027869
13230.0 0.00026984
13250.0 0.00026236
13270.0 0.00025657
13290.0 0.00025221
13310.0 0.00024936
13330.0 0.00024818
13350.0 0.00024847
13370.0 0.00025028
13390.0 0.00025358
13410.0 0.00025778
13430.0 0.00026305
13450.0 0.00026934
13470.0 0.00027606
13490.0 0.00028293
13510.0 0.00029048
13530.0 0.00029789
13550.0 0.00030473
13570.0 0.00031129
13590.0 0.00031751
13610.0 0.00032282
13630.0 0.00032724
13650.0 0.00033111
13670.0 0.00033408
13690.0 0.00033609
13710.0 0.00033734
13730.0 0.00033785
13750.0 0.0003375
13770.0 0.00033648
13790.0 0.00033482
13810.0 0.00033255
13830.0 0.00032985
13850.0 0.00032662
13870.0 0.0003229
13890.0 0.00031889
13910.0 0.0003146
13930.0 0.00030985
13950.0 0.00030486
13970.0 0.00029991
13990.0 0.00029467
14010.0 0.00028927
14030.0 0.000284
14050.0 0.00027881
14070.0 0.00027349
14090.0 0.0002685
14110.0 0.00026391
14130.0 0.00025957
14150.0 0.0002556
14170.0 0.00025231
14190.0 0.00024956
14210.0 0.00024735
14230.0 0.00024585
14250.0 0.00024502
14270.0 0.00024487
14290.0 0.00024545
14310.0 0.00024664
14330.0 0.00024843
14350.0 0.00025087
14370.0 0.00025378
14390.0 0.00025699
14410.0 0.00026072
14430.0 0.00026477
14450.0 0.00026891
14470.0 0.00027325
14490.0 0.00027796
14510.0 0.00028262
14530.0 0.00028725
14550.0 0.00029219
14570.0 0.00029733
14590.0 0.00030248
14610.0 0.00030799
14630.0 0.0003141
14650.0 0.00032046
14670.0 0.00032719
14690.0 0.00033472
14710.0 0.000343
14730.0 0.00035141
14750.0 0.00036061
14770.0 0.00037066
14790.0 0.00038097
14810.0 0.00039143
14830.0 0.00040291
14850.0 0.00041437
14870.0 0.0004254
14890.0 0.00043638
14910.0 0.00044717
14930.0 0.00045683
14950.0 0.00046531
14970.0 0.00047287
14990.0 0.00047886
15010.0 0.0004832
15030.0 0.00048621
15050.0 0.00048801
15070.0 0.00048872
15090.0 0.00048877
15110.0 0.00048834
15130.0 0.00048763
15150.0 0.00048683
15170.0 0.00048591
15190.0 0.00048494
15210.0 0.00048401
15230.0 0.00048309
15250.0 0.00048212
15270.0 0.00048117
15290.0 0.00048029
15310.0 0.00047937
15330.0 0.00047844
15350.0 0.00047756
15370.0 0.00047669
15390.0 0.00047575
15410.0 0.00047486
15430.0 0.000474
15450.0 0.00047311
15470.0 0.00047219
15490.0 0.00047134
15510.0 0.00047049
15530.0 0.00046959
15550.0 0.00046872
15570.0 0.00046788
15590.0 0.00046699
15610.0 0.00046608
15630.0 0.00046523
15650.0 0.00046437
15670.0 0.00046347
15690.0 0.0004626
15710.0 0.00046176
15730.0 0.00046086
15750.0 0.00045996
15770.0 0.0004591
15790.0 0.00045822
15810.0 0.00045728
15830.0 0.00045639
15850.0 0.00045552
15870.0 0.00045461
15890.0 0.00045368
15910.0 0.00045281
15930.0 0.00045189
15950.0 0.00045093
15970.0 0.00045
15990.0 0.00044909
16010.0 0.00044813
16030.0 0.00044715
16050.0 0.00044623
16070.0 0.00044528
16090.0 0.00044428
16110.0 0.00044332
16130.0 0.00044237
16150.0 0.00044133
16170.0 0.00044031
16190.0 0.00043933
16210.0 0.00043831
16230.0 0.00043725
16250.0 0.00043623
16270.0 0.00043523
16290.0 0.00043415
16310.0 0.00043307
16330.0 0.00043203
16350.0 0.00043095
16370.0 0.0004298
16390.0 0.00042873
16410.0 0.00042764
16430.0 0.0004265
16450.0 0.00042536
16470.0 0.00042427
16490.0 0.00042311
16510.0 0.00042192
16530.0 0.00042077
16550.0 0.00041961
16570.0 0.00041838
16590.0 0.00041716
16610.0 0.00041599
16630.0 0.00041477
16650.0 0.00041351
16670.0 0.0004123
16690.0 0.00041107
16710.0 0.00040976
16730.0 0.00040848
16750.0 0.00040723
16770.0 0.00040592
16790.0 0.00040458
16810.0 0.0004033
16830.0 0.000402
16850.0 0.00040063
16870.0 0.00039929
16890.0 0.00039797
16910.0 0.00039658
16930.0 0.00039516
16950.0 0.00039381
16970.0 0.00039243
16990.0 0.00039099
17010.0 0.00038958
17030.0 0.0003882
17050.0 0.00038674
17070.0 0.00038528
17090.0 0.00038385
17110.0 0.0003824
17130.0 0.00038087
17150.0 0.0003794
17170.0 0.00037794
17190.0 0.00037643
17210.0 0.00037491
17230.0 0.00037343
17250.0 0.00037191
17270.0 0.00037034
17290.0 0.0003688
17310.0 0.00036728
17330.0 0.0003657
17350.0 0.0003641
17370.0 0.00036258
17390.0 0.000361
17410.0 0.00035939
17430.0 0.00035781
17450.0 0.00035625
17470.0 0.00035459
17490.0 0.00035296
17510.0 0.00035137
17530.0 0.00034974
17550.0 0.00034807
17570.0 0.00034645
17590.0 0.00034484
17610.0 0.00034316
17630.0 0.0003415
17650.0 0.00033986
17670.0 0.0003382
17690.0 0.00033646
17710.0 0.00033482
17730.0 0.00033316
17750.0 0.00033145
17770.0 0.00032975
17790.0 0.0003281
17810.0 0.00032638
17830.0 0.00032465
17850.0 0.00032296
17870.0 0.00032127
17890.0 0.00031952
17910.0 0.00031779
17930.0 0.00031612
17950.0 0.00031439
17970.0 0.00031264
17990.0 0.00031094
18010.0 0.00030924
18030.0 0.00030745
18050.0 0.00030572
18070.0 0.00030401
18090.0 0.00030227
18110.0 0.0003005
18130.0 0.00029879
18150.0 0.00029707
18170.0 0.0002953
18190.0 0.00029357
18210.0 0.00029186
18230.0 0.00029009
18250.0 0.00028831
18270.0 0.0002866
18290.0 0.00028487
18310.0 0.0002831
18330.0 0.00028136
18350.0 0.00027966
18370.0 0.0002779
18390.0 0.00027614
18410.0 0.00027443
18430.0 0.00027269
18450.0 0.00027091
18470.0 0.00026919
18490.0 0.00026748
18510.0 0.00026574
18530.0 0.000264
18550.0 0.00026231
18570.0 0.00026058
18590.0 0.00025882
18610.0 0.00025711
18630.0 0.00025541
18650.0 0.00025367
18670.0 0.00025193
18690.0 0.00025026
18710.0 0.00024856
18730.0 0.00024683
18750.0 0.00024515
18770.0 0.00024348
18790.0 0.00024174
18810.0 0.00024004
18830.0 0.00023838
18850.0 0.00023669
18870.0 0.00023498
18890.0 0.00023333
18910.0 0.00023168
18930.0 0.00022999
18950.0 0.00022832
18970.0 0.00022669
18990.0 0.00022503
19010.0 0.00022332
19030.0 0.00022171
19050.0 0.00022008
19070.0 0.00021843
19090.0 0.00021679
19110.0 0.0002152
19130.0 0.00021356
19150.0 0.00021192
19170.0 0.00021032
19190.0 0.00020873
19210.0 0.00020709
19230.0 0.00020549
19250.0 0.00020393
19270.0 0.00020234
19290.0 0.00020074
19310.0 0.00019918
19330.0 0.00019763
19350.0 0.00019602
19370.0 0.00019446
19390.0 0.00019293
19410.0 0.00019137
19430.0 0.0001898
19450.0 0.00018829
19470.0 0.00018677
19490.0 0.00018522
19510.0 0.0001837
19530.0 0.00018222
19550.0 0.00018068
19570.0 0.00017915
19590.0 0.00017768
19610.0 0.00017619
19630.0 0.00017468
19650.0 0.00017321
19670.0 0.00017177
19690.0 0.00017028
19710.0 0.0001688
19730.0 0.00016737
19750.0 0.00016592
19770.0 0.00016443
19790.0 0.00016301
19810.0 0.0001616
19830.0 0.00016015
19850.0 0.00015871
19870.0 0.0001573
19890.0 0.00015583
19910.0 0.00015429
19930.0 0.0001527
19950.0 0.00015101
19970.0 0.00014907
19990.0 0.00014691
20010.0 0.00014749
20030.0 0.00014478
20050.0 0.00014177
20070.0 0.00013863
20090.0 0.00013538
20110.0 0.00013183
20130.0 0.00012835
20150.0 0.00012498
20170.0 0.00012157
20190.0 0.0001182
20210.0 0.00011507
20230.0 0.00011207
20250.0 0.00010911
20270.0 0.00010638
20290.0 0.00010392
20310.0 0.0001016
20330.0 9.945e-05
20350.0 9.7667e-05
20370.0 9.6097e-05
20390.0 9.4737e-05
20410.0 9.3652e-05
20430.0 9.2829e-05
20450.0 9.2212e-05
20470.0 9.1839e-05
20490.0 9.169e-05
20510.0 9.1739e-05
20530.0 9.1992e-05
20550.0 9.241e-05
20570.0 9.2952e-05
20590.0 9.3655e-05
20610.0 9.4479e-05
20630.0 9.5363e-05
20650.0 9.6336e-05
20670.0 9.7437e-05
20690.0 9.8535e-05
20710.0 9.9649e-05
20730.0 0.00010083
20750.0 0.00010205
20770.0 0.00010321
20790.0 0.00010442
20810.0 0.00010568
20830.0 0.0001069
20850.0 0.00010811
20870.0 0.0001094
20890.0 0.00011071
20910.0 0.00011195
20930.0 0.00011325
20950.0 0.00011459
20970.0 0.0001159
20990.0 0.00011719
21010.0 0.00011857
21030.0 0.00011992
21050.0 0.00012121
21070.0 0.00012251
21090.0 0.00012383
21110.0 0.00012505
21130.0 0.0001262
21150.0 0.00012734
21170.0 0.00012839
21190.0 0.00012932
21210.0 0.0001302
21230.0 0.000131
21250.0 0.00013164
21270.0 0.00013216
21290.0 0.00013257
21310.0 0.00013282
21330.0 0.00013289
21350.0 0.00013281
21370.0 0.00013255
21390.0 0.0001321
21410.0 0.00013146
21430.0 0.00013057
21450.0 0.00012949
21470.0 0.00012824
21490.0 0.00012675
21510.0 0.00012505
21530.0 0.00012323
21550.0 0.00012126
21570.0 0.00011908
21590.0 0.00011684
21610.0 0.00011459
21630.0 0.00011224
21650.0 0.00010983
21670.0 0.00010763
21690.0 0.00010548
21710.0 0.0001034
21730.0 0.00010152
21750.0 9.9884e-05
21770.0 9.8378e-05
21790.0 9.7137e-05
21810.0 9.6193e-05
21830.0 9.5502e-05
21850.0 9.5079e-05
21870.0 9.4948e-05
21890.0 9.5076e-05
21910.0 9.5475e-05
21930.0 9.6134e-05
21950.0 9.6997e-05
21970.0 9.8088e-05
21990.0 9.9453e-05
22010.0 0.00010094
22030.0 0.00010255
22050.0 0.00010436
22070.0 0.00010628
22090.0 0.00010821
22110.0 0.00011024
22130.0 0.00011237
22150.0 0.00011445
22170.0 0.00011649
22190.0 0.00011859
22210.0 0.00012062
22230.0 0.00012245
22250.0 0.00012423
22270.0 0.0001259
22290.0 0.00012736
22310.0 0.00012863
22330.0 0.00012977
22350.0 0.00013066
22370.0 0.00013131
22390.0 0.00013173
22410.0 0.0001319
22430.0 0.0001318
22450.0 0.00013145
22470.0 0.00013082
22490.0 0.00012994
22510.0 0.00012883
22530.0 0.00012742
22550.0 0.00012572
22570.0 0.00012385
22590.0 0.00012175
22610.0 0.00011936
22630.0 0.00011678
22650.0 0.00011413
22670.0 0.0001112
22690.0 0.00010809
22710.0 0.00010495
22730.0 0.00010171
22750.0 9.8199e-05
22770.0 9.4762e-05
22790.0 9.1401e-05
22810.0 8.7945e-05
22830.0 8.4494e-05
22850.0 8.1263e-05
22870.0 7.8098e-05
22890.0 7.4957e-05
22910.0 7.2077e-05
22930.0 6.9457e-05
22950.0 6.6989e-05
22970.0 6.4743e-05
22990.0 6.2927e-05
23010.0 6.1371e-05
23030.0 6.0104e-05
23050.0 5.9208e-05
