#lamb flux
1010.0 1.4406e-07
1030.0 1.5825e-07
1050.0 1.7458e-07
1070.0 1.9296e-07
1090.0 2.1383e-07
1110.0 2.3525e-07
1130.0 2.568e-07
1150.0 2.7937e-07
1170.0 3.0266e-07
1190.0 3.2474e-07
1210.0 3.4711e-07
1230.0 3.7024e-07
1250.0 3.9289e-07
1270.0 4.1489e-07
1290.0 4.3814e-07
1310.0 4.6137e-07
1330.0 4.8365e-07
1350.0 5.0617e-07
1370.0 5.2943e-07
1390.0 5.521e-07
1410.0 5.741e-07
1430.0 5.9709e-07
1450.0 6.2008e-07
1470.0 6.423e-07
1490.0 6.6475e-07
1510.0 6.8846e-07
1530.0 7.1093e-07
1550.0 7.3308e-07
1570.0 7.56e-07
1590.0 7.7893e-07
1610.0 8.0083e-07
1630.0 8.234e-07
1650.0 8.4655e-07
1670.0 8.6893e-07
1690.0 8.91e-07
1710.0 9.1391e-07
1730.0 9.3693e-07
1750.0 9.5853e-07
1770.0 9.8075e-07
1790.0 1.0034e-06
1810.0 1.0252e-06
1830.0 1.0466e-06
1850.0 1.0693e-06
1870.0 1.0913e-06
1890.0 1.1125e-06
1910.0 1.134e-06
1930.0 1.156e-06
1950.0 1.1767e-06
1970.0 1.1971e-06
1990.0 1.2181e-06
2010.0 1.2386e-06
2030.0 1.2581e-06
2050.0 1.2779e-06
2070.0 1.2981e-06
2090.0 1.3167e-06
2110.0 1.3349e-06
2130.0 1.3535e-06
2150.0 1.3712e-06
2170.0 1.3876e-06
2190.0 1.4043e-06
2210.0 1.4206e-06
2230.0 1.4356e-06
2250.0 1.45e-06
2270.0 1.4647e-06
2290.0 1.4781e-06
2310.0 1.49e-06
2330.0 1.5019e-06
2350.0 1.5132e-06
2370.0 1.5231e-06
2390.0 1.5327e-06
2410.0 1.5429e-06
2430.0 1.5524e-06
2450.0 1.562e-06
2470.0 1.5737e-06
2490.0 1.5889e-06
2510.0 1.608e-06
2530.0 1.6384e-06
2550.0 1.6911e-06
2570.0 1.7762e-06
2590.0 1.9055e-06
2610.0 2.1121e-06
2630.0 2.3997e-06
2650.0 2.7483e-06
2670.0 3.1584e-06
2690.0 3.6105e-06
2710.0 4.038e-06
2730.0 4.4114e-06
2750.0 4.738e-06
2770.0 4.9864e-06
2790.0 5.1576e-06
2810.0 5.2797e-06
2830.0 5.3726e-06
2850.0 5.4341e-06
2870.0 5.4839e-06
2890.0 5.5332e-06
2910.0 5.58e-06
2930.0 5.6199e-06
2950.0 5.6634e-06
2970.0 5.7085e-06
2990.0 5.748e-06
3010.0 5.7224e-05
3030.0 5.7621e-05
3050.0 5.7989e-05
3070.0 5.8243e-05
3090.0 5.8444e-05
3110.0 5.8508e-05
3130.0 5.8328e-05
3150.0 5.7872e-05
3170.0 5.7085e-05
3190.0 5.5986e-05
3210.0 5.4718e-05
3230.0 5.3413e-05
3250.0 5.2153e-05
3270.0 5.1497e-05
3290.0 5.114e-05
3310.0 5.1817e-05
3330.0 5.2946e-05
3350.0 5.4544e-05
3370.0 5.6656e-05
3390.0 5.9191e-05
3410.0 6.1834e-05
3430.0 6.4679e-05
3450.0 6.7785e-05
3470.0 7.0976e-05
3490.0 7.4177e-05
3510.0 7.7572e-05
3530.0 8.1048e-05
3550.0 8.4697e-05
3570.0 8.8646e-05
3590.0 9.2782e-05
3610.0 9.7428e-05
3630.0 0.00010157
3650.0 0.00010572
3670.0 0.00010905
3690.0 0.00011146
3710.0 0.00011287
3730.0 0.00011278
3750.0 0.00011277
3770.0 0.00011339
3790.0 0.00011672
3810.0 0.00012368
3830.0 0.00013302
3850.0 0.00014638
3870.0 0.00016423
3890.0 0.00018437
3910.0 0.00020487
3930.0 0.00022159
3950.0 0.00023201
3970.0 0.00020681
3990.0 0.00016071
4010.0 0.00015502
4030.0 0.00018814
4050.0 0.00021858
4070.0 0.00019296
4090.0 0.00013373
4110.0 0.00013918
4130.0 0.00017576
4150.0 0.00019361
4170.0 0.00017193
4190.0 0.00015399
4210.0 0.00018548
4230.0 0.00020131
4250.0 0.00019687
4270.0 0.00020037
4290.0 0.00018794
4310.0 0.0002025
4330.0 0.00023159
4350.0 0.00027179
4370.0 0.00028173
4390.0 0.00026922
4410.0 0.00023167
4430.0 0.00018927
4450.0 0.00014778
4470.0 0.00015085
4490.0 0.00016844
4510.0 0.00021877
4530.0 0.00023175
4550.0 0.00023436
4570.0 0.00027033
4590.0 0.00034726
4610.0 0.00047784
4630.0 0.0005749
4650.0 0.00057313
4670.0 0.00058789
4690.0 0.00064444
4710.0 0.00063516
4730.0 0.00050823
4750.0 0.00036605
4770.0 0.00030538
4790.0 0.00028116
4810.0 0.00026015
4830.0 0.00027459
4850.0 0.00031914
4870.0 0.00039602
4890.0 0.00041895
4910.0 0.00036129
4930.0 0.0003621
4950.0 0.00044735
4970.0 0.0005808
4990.0 0.00067881
5010.0 0.00067871
5030.0 0.00055909
5050.0 0.00039149
5070.0 0.00028806
5090.0 0.00025104
5110.0 0.0002559
5130.0 0.0002801
5150.0 0.00027024
5170.0 0.00027046
5190.0 0.00026683
5210.0 0.00026751
5230.0 0.00028549
5250.0 0.00029608
5270.0 0.00033174
5290.0 0.00039733
5310.0 0.00043634
5330.0 0.00045496
5350.0 0.00047629
5370.0 0.00051602
5390.0 0.00053025
5410.0 0.00048129
5430.0 0.00043052
5450.0 0.00043284
5470.0 0.0005202
5490.0 0.00067413
5510.0 0.00081287
5530.0 0.00086206
5550.0 0.00083208
5570.0 0.00077541
5590.0 0.00071659
5610.0 0.00068612
5630.0 0.00069495
5650.0 0.00071242
5670.0 0.00069205
5690.0 0.00065772
5710.0 0.00063638
5730.0 0.00055751
5750.0 0.00043062
5770.0 0.00039102
5790.0 0.00044139
5810.0 0.00050068
5830.0 0.00056069
5850.0 0.0005853
5870.0 0.00057257
5890.0 0.00053084
5910.0 0.00050007
5930.0 0.00050815
5950.0 0.00054023
5970.0 0.00054946
5990.0 0.00049042
6010.0 0.00039789
6030.0 0.00031966
6050.0 0.00029047
6070.0 0.00031244
6090.0 0.00035239
6110.0 0.00035596
6130.0 0.00032872
6150.0 0.00032378
6170.0 0.00036146
6190.0 0.0004305
6210.0 0.00051876
6230.0 0.00057925
6250.0 0.00055722
6270.0 0.00048959
6290.0 0.00040462
6310.0 0.00031923
6330.0 0.00026734
6350.0 0.00026186
6370.0 0.00028857
6390.0 0.0003208
6410.0 0.00037267
6430.0 0.00045135
6450.0 0.0005553
6470.0 0.00066796
6490.0 0.00076911
6510.0 0.00081015
6530.0 0.00077525
6550.0 0.00074448
6570.0 0.00074614
6590.0 0.00073426
6610.0 0.00068828
6630.0 0.00064569
6650.0 0.0006085
6670.0 0.00060771
6690.0 0.00059266
6710.0 0.00053449
6730.0 0.00046543
6750.0 0.0004202
6770.0 0.0004382
6790.0 0.00046813
6810.0 0.00050113
6830.0 0.00051072
6850.0 0.00048552
6870.0 0.00046658
6890.0 0.00045585
6910.0 0.00043159
6930.0 0.0004128
6950.0 0.00041807
6970.0 0.00043112
6990.0 0.00046251
7010.0 0.00049613
7030.0 0.00048265
7050.0 0.00043807
7070.0 0.00038595
7090.0 0.00032637
7110.0 0.00029552
7130.0 0.00031348
7150.0 0.00033793
7170.0 0.00033973
7190.0 0.00032999
7210.0 0.00032867
7230.0 0.00037132
7250.0 0.00042965
7270.0 0.00047021
7290.0 0.00047786
7310.0 0.00044779
7330.0 0.00040659
7350.0 0.00037476
7370.0 0.00036121
7390.0 0.00036298
7410.0 0.00038573
7430.0 0.00043796
7450.0 0.00049022
7470.0 0.00055177
7490.0 0.00061535
7510.0 0.00057099
7530.0 0.00050015
7550.0 0.00042587
7570.0 0.00035682
7590.0 0.00029175
7610.0 0.00028071
7630.0 0.00030039
7650.0 0.00033653
7670.0 0.00038496
7690.0 0.00042464
7710.0 0.00047637
7730.0 0.0005042
7750.0 0.00052315
7770.0 0.0005415
7790.0 0.00054163
7810.0 0.00053975
7830.0 0.0005204
7850.0 0.0005048
7870.0 0.00048421
7890.0 0.00044283
7910.0 0.00040082
7930.0 0.00035917
7950.0 0.00031578
7970.0 0.0003022
7990.0 0.00031477
8010.0 0.00035298
8030.0 0.00035618
8050.0 0.00036673
8070.0 0.00036224
8090.0 0.00036208
8110.0 0.00035199
8130.0 0.00033048
8150.0 0.00030866
8170.0 0.00030608
8190.0 0.00031083
8210.0 0.00031437
8230.0 0.00030058
8250.0 0.00028504
8270.0 0.00025119
8290.0 0.00020399
8310.0 0.00015685
8330.0 0.00010971
8350.0 8.1036e-05
8370.0 7.7384e-05
8390.0 8.8912e-05
8410.0 0.00010796
8430.0 0.00013418
8450.0 0.00014819
8470.0 0.00015798
8490.0 0.00017059
8510.0 0.00018186
8530.0 0.00020145
8550.0 0.00023756
8570.0 0.00027449
8590.0 0.00030602
8610.0 0.0003544
8630.0 0.00041078
8650.0 0.00043669
8670.0 0.00044151
8690.0 0.00043511
8710.0 0.00041792
8730.0 0.00040093
8750.0 0.0003793
8770.0 0.00037153
8790.0 0.00035831
8810.0 0.00033203
8830.0 0.00030973
8850.0 0.000268
8870.0 0.00024277
8890.0 0.00022494
8910.0 0.0002437
8930.0 0.00023386
8950.0 0.00023877
8970.0 0.0002427
8990.0 0.00024275
9010.0 0.00024579
9030.0 0.00023887
9050.0 0.0002384
9070.0 0.00023862
9090.0 0.00023885
9110.0 0.00023912
9130.0 0.00023938
9150.0 0.00023965
9170.0 0.00023966
9190.0 0.00023933
9210.0 0.0002414
9230.0 0.00024133
9250.0 0.00024151
9270.0 0.00024176
9290.0 0.00024207
9310.0 0.00024243
9330.0 0.00024282
9350.0 0.00024324
9370.0 0.00024368
9390.0 0.00024414
9410.0 0.00024462
9430.0 0.00024512
9450.0 0.00024563
9470.0 0.00024616
9490.0 0.0002467
9510.0 0.00024726
9530.0 0.00024784
9550.0 0.00024844
9570.0 0.00024905
9590.0 0.00024967
9610.0 0.00025032
9630.0 0.00025098
9650.0 0.00025165
9670.0 0.00025234
9690.0 0.00025305
9710.0 0.00025377
9730.0 0.0002545
9750.0 0.00025525
9770.0 0.00025602
9790.0 0.0002568
9810.0 0.00025758
9830.0 0.00025839
9850.0 0.0002592
9870.0 0.00026002
9890.0 0.00026085
9910.0 0.0002617
9930.0 0.00026255
9950.0 0.00026328
9970.0 0.00026419
9990.0 0.00026511
10010.0 0.00026592
10030.0 0.00026682
10050.0 0.00026764
10070.0 0.00026801
10090.0 0.00026909
10110.0 0.00027015
10130.0 0.00027115
10150.0 0.00027214
10170.0 0.00027308
10190.0 0.00027397
10210.0 0.00027488
10230.0 0.00027579
10250.0 0.00027666
10270.0 0.00027753
10290.0 0.00027841
10310.0 0.00027927
10330.0 0.00028009
10350.0 0.00028094
10370.0 0.00028177
10390.0 0.00028257
10410.0 0.00028336
10430.0 0.00028417
10450.0 0.00028493
10470.0 0.00028567
10490.0 0.00028641
10510.0 0.00028714
10530.0 0.0002878
10550.0 0.00028847
10570.0 0.00028914
10590.0 0.00028977
10610.0 0.00029036
10630.0 0.00029095
10650.0 0.00029152
10670.0 0.00029203
10690.0 0.00029254
10710.0 0.00029303
10730.0 0.00029348
10750.0 0.00029387
10770.0 0.00029428
10790.0 0.00029466
10810.0 0.00029497
10830.0 0.00029526
10850.0 0.00029551
10870.0 0.00029563
10890.0 0.00029559
10910.0 0.00029531
10930.0 0.00029463
10950.0 0.00029325
10970.0 0.00029108
10990.0 0.00028803
11010.0 0.00028539
11030.0 0.00027943
11050.0 0.00027261
11070.0 0.00026481
11090.0 0.0002558
11110.0 0.00024684
11130.0 0.00023788
11150.0 0.00022869
11170.0 0.00021976
11190.0 0.00021166
11210.0 0.00020389
11230.0 0.00019659
11250.0 0.00019024
11270.0 0.00018469
11290.0 0.00017965
11310.0 0.00017533
11330.0 0.00017183
11350.0 0.00016871
11370.0 0.00016589
11390.0 0.00016339
11410.0 0.00016102
11430.0 0.00015849
11450.0 0.00015586
11470.0 0.0001531
11490.0 0.00015001
11510.0 0.00014652
11530.0 0.00014289
11550.0 0.00013904
11570.0 0.00013484
11590.0 0.00013053
11610.0 0.0001263
11630.0 0.00012192
11650.0 0.00011752
11670.0 0.00011345
11690.0 0.00010958
11710.0 0.00010582
11730.0 0.00010236
11750.0 9.9283e-05
11770.0 9.6343e-05
11790.0 9.3613e-05
11810.0 9.1174e-05
11830.0 8.8907e-05
11850.0 8.6674e-05
11870.0 8.4601e-05
11890.0 8.2641e-05
11910.0 8.0647e-05
11930.0 7.8622e-05
11950.0 7.6637e-05
11970.0 7.4594e-05
11990.0 7.2421e-05
12010.0 7.0254e-05
12030.0 6.8101e-05
12050.0 6.5884e-05
12070.0 6.3651e-05
12090.0 6.1606e-05
12110.0 5.9639e-05
12130.0 5.7778e-05
12150.0 5.6154e-05
12170.0 5.4798e-05
12190.0 5.3658e-05
12210.0 5.2855e-05
12230.0 5.2404e-05
12250.0 5.229e-05
12270.0 5.2549e-05
12290.0 5.3149e-05
12310.0 5.4032e-05
12330.0 5.5262e-05
12350.0 5.6756e-05
12370.0 5.8391e-05
12390.0 6.0199e-05
12410.0 6.2217e-05
12430.0 6.414e-05
12450.0 6.6004e-05
12470.0 6.7852e-05
12490.0 6.9552e-05
12510.0 7.099e-05
12530.0 7.2271e-05
12550.0 7.3344e-05
12570.0 7.4113e-05
12590.0 7.4619e-05
12610.0 7.4891e-05
12630.0 7.4892e-05
12650.0 7.4641e-05
12670.0 7.4176e-05
12690.0 7.35e-05
12710.0 7.2656e-05
12730.0 7.1673e-05
12750.0 7.0517e-05
12770.0 6.9268e-05
12790.0 6.7962e-05
12810.0 6.6565e-05
12830.0 6.5078e-05
12850.0 6.3598e-05
12870.0 6.2083e-05
12890.0 6.0478e-05
12910.0 5.8846e-05
12930.0 5.7215e-05
12950.0 5.5482e-05
12970.0 5.3665e-05
12990.0 5.1879e-05
13010.0 5.0055e-05
13030.0 4.8153e-05
13050.0 4.6272e-05
13070.0 4.4468e-05
13090.0 4.2641e-05
13110.0 4.087e-05
13130.0 3.9249e-05
13150.0 3.7747e-05
13170.0 3.6333e-05
13190.0 3.5138e-05
13210.0 3.4152e-05
13230.0 3.333e-05
13250.0 3.2707e-05
13270.0 3.2291e-05
13290.0 3.2048e-05
13310.0 3.1978e-05
13330.0 3.206e-05
13350.0 3.226e-05
13370.0 3.2573e-05
13390.0 3.2975e-05
13410.0 3.3391e-05
13430.0 3.384e-05
13450.0 3.4307e-05
13470.0 3.4742e-05
13490.0 3.5132e-05
13510.0 3.5512e-05
13530.0 3.5835e-05
13550.0 3.6092e-05
13570.0 3.6308e-05
13590.0 3.649e-05
13610.0 3.6624e-05
13630.0 3.6722e-05
13650.0 3.6805e-05
13670.0 3.6866e-05
13690.0 3.6905e-05
13710.0 3.6933e-05
13730.0 3.6954e-05
13750.0 3.6952e-05
13770.0 3.6932e-05
13790.0 3.6894e-05
13810.0 3.6829e-05
13830.0 3.6731e-05
13850.0 3.6599e-05
13870.0 3.6425e-05
13890.0 3.621e-05
13910.0 3.5955e-05
13930.0 3.565e-05
13950.0 3.5307e-05
13970.0 3.4948e-05
13990.0 3.456e-05
14010.0 3.4154e-05
14030.0 3.3757e-05
14050.0 3.3372e-05
14070.0 3.2987e-05
14090.0 3.2638e-05
14110.0 3.2328e-05
14130.0 3.2047e-05
14150.0 3.1803e-05
14170.0 3.1606e-05
14190.0 3.1448e-05
14210.0 3.1328e-05
14230.0 3.125e-05
14250.0 3.1212e-05
14270.0 3.1218e-05
14290.0 3.1271e-05
14310.0 3.1363e-05
14330.0 3.1498e-05
14350.0 3.1683e-05
14370.0 3.1905e-05
14390.0 3.2154e-05
14410.0 3.2448e-05
14430.0 3.2773e-05
14450.0 3.311e-05
14470.0 3.3469e-05
14490.0 3.3869e-05
14510.0 3.4274e-05
14530.0 3.469e-05
14550.0 3.5153e-05
14570.0 3.5661e-05
14590.0 3.6196e-05
14610.0 3.6801e-05
14630.0 3.7508e-05
14650.0 3.8277e-05
14670.0 3.9121e-05
14690.0 4.0091e-05
14710.0 4.1176e-05
14730.0 4.2283e-05
14750.0 4.349e-05
14770.0 4.4794e-05
14790.0 4.6105e-05
14810.0 4.7402e-05
14830.0 4.8776e-05
14850.0 5.0089e-05
14870.0 5.1289e-05
14890.0 5.2421e-05
14910.0 5.3461e-05
14930.0 5.4328e-05
14950.0 5.5033e-05
14970.0 5.5609e-05
14990.0 5.6018e-05
15010.0 5.6274e-05
15030.0 5.6411e-05
15050.0 5.6447e-05
15070.0 5.6406e-05
15090.0 5.6318e-05
15110.0 5.6196e-05
15130.0 5.6056e-05
15150.0 5.5915e-05
15170.0 5.5764e-05
15190.0 5.561e-05
15210.0 5.5462e-05
15230.0 5.5315e-05
15250.0 5.5163e-05
15270.0 5.5013e-05
15290.0 5.4873e-05
15310.0 5.4728e-05
15330.0 5.4581e-05
15350.0 5.4442e-05
15370.0 5.4304e-05
15390.0 5.4157e-05
15410.0 5.4016e-05
15430.0 5.3881e-05
15450.0 5.3742e-05
15470.0 5.36e-05
15490.0 5.3466e-05
15510.0 5.3333e-05
15530.0 5.3194e-05
15550.0 5.3059e-05
15570.0 5.2929e-05
15590.0 5.2793e-05
15610.0 5.2654e-05
15630.0 5.2524e-05
15650.0 5.2393e-05
15670.0 5.2257e-05
15690.0 5.2126e-05
15710.0 5.1999e-05
15730.0 5.1865e-05
15750.0 5.1731e-05
15770.0 5.1603e-05
15790.0 5.1473e-05
15810.0 5.1336e-05
15830.0 5.1205e-05
15850.0 5.1079e-05
15870.0 5.0946e-05
15890.0 5.0813e-05
15910.0 5.0687e-05
15930.0 5.0556e-05
15950.0 5.042e-05
15970.0 5.0289e-05
15990.0 5.0161e-05
16010.0 5.0027e-05
16030.0 4.989e-05
16050.0 4.9764e-05
16070.0 4.9632e-05
16090.0 4.9496e-05
16110.0 4.9365e-05
16130.0 4.9236e-05
16150.0 4.9096e-05
16170.0 4.896e-05
16190.0 4.8829e-05
16210.0 4.8694e-05
16230.0 4.8554e-05
16250.0 4.8421e-05
16270.0 4.8289e-05
16290.0 4.8148e-05
16310.0 4.801e-05
16330.0 4.7876e-05
16350.0 4.7737e-05
16370.0 4.759e-05
16390.0 4.7454e-05
16410.0 4.7317e-05
16430.0 4.7173e-05
16450.0 4.703e-05
16470.0 4.6894e-05
16490.0 4.675e-05
16510.0 4.6602e-05
16530.0 4.646e-05
16550.0 4.6318e-05
16570.0 4.6168e-05
16590.0 4.6019e-05
16610.0 4.5878e-05
16630.0 4.573e-05
16650.0 4.5579e-05
16670.0 4.5433e-05
16690.0 4.5286e-05
16710.0 4.5129e-05
16730.0 4.4978e-05
16750.0 4.4829e-05
16770.0 4.4675e-05
16790.0 4.4517e-05
16810.0 4.4367e-05
16830.0 4.4215e-05
16850.0 4.4055e-05
16870.0 4.3899e-05
16890.0 4.3746e-05
16910.0 4.3585e-05
16930.0 4.3421e-05
16950.0 4.3265e-05
16970.0 4.3106e-05
16990.0 4.2941e-05
17010.0 4.278e-05
17030.0 4.2622e-05
17050.0 4.2456e-05
17070.0 4.2289e-05
17090.0 4.2127e-05
17110.0 4.1963e-05
17130.0 4.179e-05
17150.0 4.1623e-05
17170.0 4.146e-05
17190.0 4.1289e-05
17210.0 4.1117e-05
17230.0 4.0952e-05
17250.0 4.0781e-05
17270.0 4.0604e-05
17290.0 4.0433e-05
17310.0 4.0263e-05
17330.0 4.0086e-05
17350.0 3.9908e-05
17370.0 3.9738e-05
17390.0 3.9563e-05
17410.0 3.9383e-05
17430.0 3.9208e-05
17450.0 3.9035e-05
17470.0 3.885e-05
17490.0 3.8669e-05
17510.0 3.8493e-05
17530.0 3.8313e-05
17550.0 3.8127e-05
17570.0 3.7949e-05
17590.0 3.7771e-05
17610.0 3.7584e-05
17630.0 3.74e-05
17650.0 3.722e-05
17670.0 3.7035e-05
17690.0 3.6843e-05
17710.0 3.6661e-05
17730.0 3.6478e-05
17750.0 3.6289e-05
17770.0 3.6101e-05
17790.0 3.592e-05
17810.0 3.5729e-05
17830.0 3.5537e-05
17850.0 3.5351e-05
17870.0 3.5164e-05
17890.0 3.497e-05
17910.0 3.4778e-05
17930.0 3.4593e-05
17950.0 3.4401e-05
17970.0 3.4207e-05
17990.0 3.402e-05
18010.0 3.3831e-05
18030.0 3.3631e-05
18050.0 3.3439e-05
18070.0 3.325e-05
18090.0 3.3055e-05
18110.0 3.2858e-05
18130.0 3.2668e-05
18150.0 3.2477e-05
18170.0 3.2279e-05
18190.0 3.2085e-05
18210.0 3.1895e-05
18230.0 3.1696e-05
18250.0 3.1496e-05
18270.0 3.1305e-05
18290.0 3.1111e-05
18310.0 3.0912e-05
18330.0 3.0718e-05
18350.0 3.0527e-05
18370.0 3.0328e-05
18390.0 3.0129e-05
18410.0 2.9936e-05
18430.0 2.9741e-05
18450.0 2.9538e-05
18470.0 2.9343e-05
18490.0 2.9151e-05
18510.0 2.8952e-05
18530.0 2.8754e-05
18550.0 2.8562e-05
18570.0 2.8365e-05
18590.0 2.8163e-05
18610.0 2.7968e-05
18630.0 2.7774e-05
18650.0 2.7575e-05
18670.0 2.7375e-05
18690.0 2.7184e-05
18710.0 2.6988e-05
18730.0 2.6788e-05
18750.0 2.6594e-05
18770.0 2.6402e-05
18790.0 2.6199e-05
18810.0 2.6002e-05
18830.0 2.581e-05
18850.0 2.5614e-05
18870.0 2.5414e-05
18890.0 2.5222e-05
18910.0 2.503e-05
18930.0 2.4831e-05
18950.0 2.4635e-05
18970.0 2.4444e-05
18990.0 2.4249e-05
19010.0 2.4047e-05
19030.0 2.3857e-05
19050.0 2.3665e-05
19070.0 2.3468e-05
19090.0 2.3274e-05
19110.0 2.3087e-05
19130.0 2.289e-05
19150.0 2.2694e-05
19170.0 2.2504e-05
19190.0 2.2313e-05
19210.0 2.2116e-05
19230.0 2.1923e-05
19250.0 2.1737e-05
19270.0 2.1544e-05
19290.0 2.1351e-05
19310.0 2.1163e-05
19330.0 2.0975e-05
19350.0 2.0778e-05
19370.0 2.0589e-05
19390.0 2.0402e-05
19410.0 2.0211e-05
19430.0 2.0019e-05
19450.0 1.9835e-05
19470.0 1.9648e-05
19490.0 1.9456e-05
19510.0 1.9269e-05
19530.0 1.9086e-05
19550.0 1.8895e-05
19570.0 1.8704e-05
19590.0 1.8522e-05
19610.0 1.8337e-05
19630.0 1.8148e-05
19650.0 1.7965e-05
19670.0 1.7784e-05
19690.0 1.7596e-05
19710.0 1.741e-05
19730.0 1.7229e-05
19750.0 1.7046e-05
19770.0 1.6857e-05
19790.0 1.6676e-05
19810.0 1.6498e-05
19830.0 1.6313e-05
19850.0 1.6129e-05
19870.0 1.5949e-05
19890.0 1.5759e-05
19910.0 1.5558e-05
19930.0 1.5351e-05
19950.0 1.5128e-05
19970.0 1.4871e-05
19990.0 1.4584e-05
20010.0 1.428e-05
20030.0 1.3936e-05
20050.0 1.3561e-05
20070.0 1.3184e-05
20090.0 1.2806e-05
20110.0 1.2412e-05
20130.0 1.2048e-05
20150.0 1.1717e-05
20170.0 1.1406e-05
20190.0 1.112e-05
20210.0 1.0877e-05
20230.0 1.0664e-05
20250.0 1.0474e-05
20270.0 1.0318e-05
20290.0 1.0193e-05
20310.0 1.0091e-05
20330.0 1.0013e-05
20350.0 9.9639e-06
20370.0 9.9353e-06
20390.0 9.9279e-06
20410.0 9.9413e-06
20430.0 9.9725e-06
20450.0 1.0026e-05
20470.0 1.01e-05
20490.0 1.0189e-05
20510.0 1.0297e-05
20530.0 1.0429e-05
20550.0 1.0574e-05
20570.0 1.0729e-05
20590.0 1.0905e-05
20610.0 1.1093e-05
20630.0 1.1284e-05
20650.0 1.1482e-05
20670.0 1.1696e-05
20690.0 1.1899e-05
20710.0 1.2097e-05
20730.0 1.2297e-05
20750.0 1.2491e-05
20770.0 1.2668e-05
20790.0 1.2842e-05
20810.0 1.3015e-05
20830.0 1.3178e-05
20850.0 1.3334e-05
20870.0 1.3497e-05
20890.0 1.3662e-05
20910.0 1.3823e-05
20930.0 1.3992e-05
20950.0 1.4172e-05
20970.0 1.4353e-05
20990.0 1.4535e-05
21010.0 1.473e-05
21030.0 1.4921e-05
21050.0 1.5103e-05
21070.0 1.5281e-05
21090.0 1.5452e-05
21110.0 1.5599e-05
21130.0 1.5726e-05
21150.0 1.5836e-05
21170.0 1.5921e-05
21190.0 1.5977e-05
21210.0 1.6011e-05
21230.0 1.6018e-05
21250.0 1.5997e-05
21270.0 1.5952e-05
21290.0 1.5881e-05
21310.0 1.5787e-05
21330.0 1.5676e-05
21350.0 1.5543e-05
21370.0 1.5389e-05
21390.0 1.5224e-05
21410.0 1.5048e-05
21430.0 1.4849e-05
21450.0 1.4649e-05
21470.0 1.4448e-05
21490.0 1.4239e-05
21510.0 1.4027e-05
21530.0 1.3825e-05
21550.0 1.3628e-05
21570.0 1.3431e-05
21590.0 1.325e-05
21610.0 1.3086e-05
21630.0 1.2933e-05
21650.0 1.2796e-05
21670.0 1.2687e-05
21690.0 1.2597e-05
21710.0 1.2529e-05
21730.0 1.2486e-05
21750.0 1.2467e-05
21770.0 1.2474e-05
21790.0 1.2506e-05
21810.0 1.2561e-05
21830.0 1.2639e-05
21850.0 1.2745e-05
21870.0 1.2869e-05
21890.0 1.3007e-05
21910.0 1.317e-05
21930.0 1.335e-05
21950.0 1.3536e-05
21970.0 1.3738e-05
21990.0 1.3961e-05
22010.0 1.4181e-05
22030.0 1.4403e-05
22050.0 1.4635e-05
22070.0 1.4869e-05
22090.0 1.509e-05
22110.0 1.5313e-05
22130.0 1.5535e-05
22150.0 1.574e-05
22170.0 1.593e-05
22190.0 1.6114e-05
22210.0 1.6278e-05
22230.0 1.6415e-05
22250.0 1.6533e-05
22270.0 1.6627e-05
22290.0 1.6692e-05
22310.0 1.6729e-05
22330.0 1.6736e-05
22350.0 1.6711e-05
22370.0 1.6655e-05
22390.0 1.6565e-05
22410.0 1.6438e-05
22430.0 1.6285e-05
22450.0 1.6103e-05
22470.0 1.5885e-05
22490.0 1.564e-05
22510.0 1.538e-05
22530.0 1.5085e-05
22550.0 1.4762e-05
22570.0 1.4435e-05
22590.0 1.4094e-05
22610.0 1.3728e-05
