#lamb flux
1010.0 2.2506e-11
1030.0 2.8308e-11
1050.0 3.498e-11
1070.0 4.2491e-11
1090.0 5.1022e-11
1110.0 5.9772e-11
1130.0 6.8579e-11
1150.0 7.7805e-11
1170.0 8.7321e-11
1190.0 9.6344e-11
1210.0 1.0549e-10
1230.0 1.1494e-10
1250.0 1.242e-10
1270.0 1.3319e-10
1290.0 1.4269e-10
1310.0 1.5219e-10
1330.0 1.6129e-10
1350.0 1.705e-10
1370.0 1.8001e-10
1390.0 1.8928e-10
1410.0 1.9827e-10
1430.0 2.0768e-10
1450.0 2.1708e-10
1470.0 2.2617e-10
1490.0 2.3536e-10
1510.0 2.4506e-10
1530.0 2.5426e-10
1550.0 2.6334e-10
1570.0 2.7273e-10
1590.0 2.8214e-10
1610.0 2.9113e-10
1630.0 3.004e-10
1650.0 3.0992e-10
1670.0 3.1914e-10
1690.0 3.2824e-10
1710.0 3.3771e-10
1730.0 3.4724e-10
1750.0 3.5622e-10
1770.0 3.6547e-10
1790.0 3.7492e-10
1810.0 3.8409e-10
1830.0 3.9312e-10
1850.0 4.0272e-10
1870.0 4.1209e-10
1890.0 4.2118e-10
1910.0 4.3047e-10
1930.0 4.4002e-10
1950.0 4.4917e-10
1970.0 4.5824e-10
1990.0 4.6769e-10
2010.0 4.7702e-10
2030.0 4.8607e-10
2050.0 4.9543e-10
2070.0 5.0506e-10
2090.0 5.1421e-10
2110.0 5.2337e-10
2130.0 5.3286e-10
2150.0 5.4223e-10
2170.0 5.5126e-10
2190.0 5.6068e-10
2210.0 5.7021e-10
2230.0 5.7945e-10
2250.0 5.8872e-10
2270.0 5.9845e-10
2290.0 6.0797e-10
2310.0 6.172e-10
2330.0 6.2677e-10
2350.0 6.3648e-10
2370.0 6.4587e-10
2390.0 6.554e-10
2410.0 6.6541e-10
2430.0 6.7531e-10
2450.0 6.8537e-10
2470.0 6.9654e-10
2490.0 7.0954e-10
2510.0 7.2454e-10
2530.0 7.4397e-10
2550.0 7.7087e-10
2570.0 8.0703e-10
2590.0 8.5487e-10
2610.0 9.2327e-10
2630.0 1.014e-09
2650.0 1.1249e-09
2670.0 1.2618e-09
2690.0 1.4277e-09
2710.0 1.6094e-09
2730.0 1.8006e-09
2750.0 2.0075e-09
2770.0 2.2128e-09
2790.0 2.4038e-09
2810.0 2.5832e-09
2830.0 2.7512e-09
2850.0 2.8924e-09
2870.0 3.0173e-09
2890.0 3.1336e-09
2910.0 3.2424e-09
2930.0 3.3455e-09
2950.0 3.4515e-09
2970.0 3.5616e-09
2990.0 3.6741e-09
3010.0 3.7912e-09
3030.0 3.9164e-09
3050.0 4.0474e-09
3070.0 4.1808e-09
3090.0 4.322e-09
3110.0 4.4724e-09
3130.0 4.6337e-09
3150.0 4.8171e-09
3170.0 5.0509e-09
3190.0 5.3555e-09
3210.0 5.7542e-09
3230.0 6.2848e-09
3250.0 6.9588e-09
3270.0 7.6003e-09
3290.0 8.618e-09
3310.0 1.0703e-08
3330.0 1.1396e-08
3350.0 1.1736e-08
3370.0 1.2064e-08
3390.0 1.2397e-08
3410.0 1.2733e-08
3430.0 1.3073e-08
3450.0 1.3412e-08
3470.0 1.3745e-08
3490.0 1.4066e-08
3510.0 1.4357e-08
3530.0 1.4229e-08
3550.0 1.3836e-08
3570.0 1.404e-08
3590.0 1.4926e-08
3610.0 1.6267e-08
3630.0 1.6801e-08
3650.0 1.6138e-08
3670.0 1.4821e-08
3690.0 1.4056e-08
3710.0 1.4233e-08
3730.0 1.4702e-08
3750.0 1.4954e-08
3770.0 1.5457e-08
3790.0 1.602e-08
3810.0 1.5793e-08
3830.0 1.4718e-08
3850.0 1.3757e-08
3870.0 1.33e-08
3890.0 1.3148e-08
3910.0 1.2854e-08
3930.0 1.2705e-08
3950.0 1.3063e-08
3970.0 1.3482e-08
3990.0 1.3604e-08
4010.0 1.3104e-08
4030.0 1.2391e-08
4050.0 1.1933e-08
4070.0 1.1545e-08
4090.0 1.1231e-08
4110.0 1.082e-08
4130.0 1.0174e-08
4150.0 9.5227e-09
4170.0 9.1366e-09
4190.0 8.5197e-09
4210.0 7.7127e-09
4230.0 6.896e-09
4250.0 6.1206e-09
4270.0 5.5415e-09
4290.0 5.1135e-09
4310.0 4.8868e-09
4330.0 4.8788e-09
4350.0 4.9028e-09
4370.0 4.9497e-09
4390.0 5.1326e-09
4410.0 5.259e-09
4430.0 5.0769e-09
4450.0 4.6096e-09
4470.0 4.2011e-09
4490.0 3.9791e-09
4510.0 3.8364e-09
4530.0 3.765e-09
4550.0 3.7038e-09
4570.0 3.6882e-09
4590.0 3.7389e-09
4610.0 3.8536e-09
4630.0 3.9221e-09
4650.0 3.9558e-09
4670.0 3.8597e-09
4690.0 3.63e-09
4710.0 3.4012e-09
4730.0 3.253e-09
4750.0 3.162e-09
4770.0 3.1734e-09
4790.0 3.161e-09
4810.0 3.0932e-09
4830.0 3.0994e-09
4850.0 3.1961e-09
4870.0 3.2279e-09
4890.0 3.1699e-09
4910.0 3.0963e-09
4930.0 2.92e-09
4950.0 2.6657e-09
4970.0 2.4915e-09
4990.0 2.3486e-09
5010.0 2.318e-09
5030.0 2.396e-09
5050.0 2.4575e-09
5070.0 2.5493e-09
5090.0 2.7034e-09
5110.0 2.7446e-09
5130.0 2.7685e-09
5150.0 2.8196e-09
5170.0 2.8433e-09
5190.0 2.9179e-09
5210.0 2.933e-09
5230.0 2.9028e-09
5250.0 2.9262e-09
5270.0 2.967e-09
5290.0 2.975e-09
5310.0 2.9528e-09
5330.0 2.8967e-09
5350.0 2.8573e-09
5370.0 2.8269e-09
5390.0 2.7894e-09
5410.0 2.7585e-09
5430.0 2.7575e-09
5450.0 2.7979e-09
5470.0 2.8499e-09
5490.0 2.9308e-09
5510.0 3.0195e-09
5530.0 3.0567e-09
5550.0 3.1023e-09
5570.0 3.1089e-09
5590.0 3.0446e-09
5610.0 3.0225e-09
5630.0 3.0453e-09
5650.0 3.0084e-09
5670.0 2.9418e-09
5690.0 2.8537e-09
5710.0 2.8461e-09
5730.0 2.8762e-09
5750.0 2.7537e-09
5770.0 2.6124e-09
5790.0 2.4017e-09
5810.0 2.1009e-09
5830.0 2.2647e-09
5850.0 2.5071e-09
5870.0 2.5614e-09
5890.0 2.5752e-09
5910.0 2.5962e-09
5930.0 2.5907e-09
5950.0 2.5479e-09
5970.0 2.5174e-09
5990.0 2.4812e-09
6010.0 2.4056e-09
6030.0 2.3232e-09
6050.0 2.2869e-09
6070.0 2.2766e-09
6090.0 2.242e-09
6110.0 2.1673e-09
6130.0 2.0936e-09
6150.0 2.0096e-09
6170.0 1.9256e-09
6190.0 1.8392e-09
6210.0 1.7743e-09
6230.0 1.7486e-09
6250.0 1.7115e-09
6270.0 1.6758e-09
6290.0 1.6628e-09
6310.0 1.652e-09
6330.0 1.6157e-09
6350.0 1.5632e-09
6370.0 1.5333e-09
6390.0 1.5031e-09
6410.0 1.4612e-09
6430.0 1.4215e-09
6450.0 1.3903e-09
6470.0 1.3605e-09
6490.0 1.3398e-09
6510.0 1.3166e-09
6530.0 1.2832e-09
6550.0 1.2548e-09
6570.0 1.2354e-09
6590.0 1.2334e-09
6610.0 1.2257e-09
6630.0 1.1847e-09
6650.0 1.1512e-09
6670.0 1.1392e-09
6690.0 1.1213e-09
6710.0 1.0944e-09
6730.0 1.0847e-09
6750.0 1.0931e-09
6770.0 1.1581e-09
6790.0 1.2942e-09
6810.0 1.229e-09
6830.0 1.0796e-09
6850.0 1.0369e-09
6870.0 1.021e-09
6890.0 1.0212e-09
6910.0 1.0233e-09
6930.0 1.0257e-09
6950.0 1.0225e-09
6970.0 9.9655e-10
6990.0 9.8756e-10
7010.0 1.0023e-09
7030.0 1.007e-09
7050.0 9.9236e-10
7070.0 9.8231e-10
7090.0 9.8867e-10
7110.0 1.0117e-09
7130.0 1.015e-09
7150.0 1.0188e-09
7170.0 1.0242e-09
7190.0 1.0384e-09
7210.0 1.0496e-09
7230.0 1.0609e-09
7250.0 1.075e-09
7270.0 1.0851e-09
7290.0 1.1023e-09
7310.0 1.1226e-09
7330.0 1.1139e-09
7350.0 1.0905e-09
7370.0 1.0757e-09
7390.0 1.0731e-09
7410.0 1.0775e-09
7430.0 1.0909e-09
7450.0 1.0977e-09
7470.0 1.1133e-09
7490.0 1.1069e-09
7510.0 1.0948e-09
7530.0 1.1077e-09
7550.0 1.142e-09
7570.0 1.1391e-09
7590.0 1.0803e-09
7610.0 1.0714e-09
7630.0 1.132e-09
7650.0 1.1547e-09
7670.0 1.1625e-09
7690.0 1.2142e-09
7710.0 1.2535e-09
7730.0 1.2655e-09
7750.0 1.3315e-09
7770.0 1.2975e-09
7790.0 1.2667e-09
7810.0 1.3419e-09
7830.0 1.3934e-09
7850.0 1.4283e-09
7870.0 1.4564e-09
7890.0 1.4676e-09
7910.0 1.4568e-09
7930.0 1.4668e-09
7950.0 1.533e-09
7970.0 1.5327e-09
7990.0 1.4276e-09
8010.0 1.3695e-09
8030.0 1.397e-09
8050.0 1.4269e-09
8070.0 1.2908e-09
8090.0 8.4437e-10
8110.0 8.8173e-10
8130.0 1.2592e-09
8150.0 1.3561e-09
8170.0 1.41e-09
8190.0 1.4406e-09
8210.0 1.4224e-09
8230.0 1.5421e-09
8250.0 1.5758e-09
8270.0 1.4901e-09
8290.0 1.4313e-09
8310.0 1.4104e-09
8330.0 1.4874e-09
8350.0 1.5578e-09
8370.0 1.5284e-09
8390.0 1.4575e-09
8410.0 1.4561e-09
8430.0 1.3643e-09
8450.0 1.3942e-09
8470.0 1.5235e-09
8490.0 1.5281e-09
8510.0 1.417e-09
8530.0 1.328e-09
8550.0 1.273e-09
8570.0 1.1997e-09
8590.0 1.234e-09
8610.0 1.3095e-09
8630.0 1.3445e-09
8650.0 1.3678e-09
8670.0 1.3302e-09
8690.0 1.2992e-09
8710.0 1.2084e-09
8730.0 1.165e-09
8750.0 1.2126e-09
8770.0 1.2316e-09
8790.0 1.2278e-09
8810.0 1.2219e-09
8830.0 1.248e-09
8850.0 1.3105e-09
8870.0 1.2237e-09
8890.0 1.1542e-09
8910.0 1.1372e-09
8930.0 1.0689e-09
8950.0 1.0298e-09
8970.0 1.0293e-09
8990.0 9.8532e-10
9010.0 9.25e-10
9030.0 9.04e-10
9050.0 8.9647e-10
9070.0 8.8976e-10
9090.0 8.83e-10
9110.0 8.7622e-10
9130.0 8.6938e-10
9150.0 8.6253e-10
9170.0 8.5565e-10
9190.0 8.4876e-10
9210.0 8.4186e-10
9230.0 8.3496e-10
9250.0 8.2805e-10
9270.0 8.2116e-10
9290.0 8.1426e-10
9310.0 8.074e-10
9330.0 8.0054e-10
9350.0 7.9372e-10
9370.0 7.8692e-10
9390.0 7.8015e-10
9410.0 7.7342e-10
9430.0 7.6672e-10
9450.0 7.6007e-10
9470.0 7.5346e-10
9490.0 7.4689e-10
9510.0 7.4038e-10
9530.0 7.3392e-10
9550.0 7.275e-10
9570.0 7.2115e-10
9590.0 7.1485e-10
9610.0 7.086e-10
9630.0 7.0242e-10
9650.0 6.9629e-10
9670.0 6.9023e-10
9690.0 6.8423e-10
9710.0 6.7829e-10
9730.0 6.7242e-10
9750.0 6.6661e-10
9770.0 6.6087e-10
9790.0 6.5519e-10
9810.0 6.4957e-10
9830.0 6.4403e-10
9850.0 6.3854e-10
9870.0 6.3313e-10
9890.0 6.2778e-10
9910.0 6.2249e-10
9930.0 6.1727e-10
9950.0 6.1211e-10
9970.0 6.0702e-10
9990.0 6.02e-10
10010.0 5.9703e-10
10030.0 5.9214e-10
10050.0 5.873e-10
10070.0 5.8252e-10
10090.0 5.7781e-10
10110.0 5.7316e-10
10130.0 5.6857e-10
10150.0 5.6404e-10
10170.0 5.5957e-10
10190.0 5.5516e-10
10210.0 5.508e-10
10230.0 5.465e-10
10250.0 5.4226e-10
10270.0 5.3807e-10
10290.0 5.3394e-10
10310.0 5.2986e-10
10330.0 5.2584e-10
10350.0 5.2186e-10
10370.0 5.1794e-10
10390.0 5.14e-10
10410.0 5.0938e-10
10430.0 5.0456e-10
10450.0 5.0171e-10
10470.0 4.9842e-10
10490.0 4.9509e-10
10510.0 4.917e-10
10530.0 4.8817e-10
10550.0 4.8469e-10
10570.0 4.8131e-10
10590.0 4.7789e-10
10610.0 4.7448e-10
10630.0 4.7118e-10
10650.0 4.6792e-10
10670.0 4.646e-10
10690.0 4.6137e-10
10710.0 4.5823e-10
10730.0 4.5506e-10
10750.0 4.5187e-10
10770.0 4.4884e-10
10790.0 4.4582e-10
10810.0 4.4277e-10
10830.0 4.3978e-10
10850.0 4.369e-10
10870.0 4.3392e-10
10890.0 4.3097e-10
10910.0 4.2812e-10
10930.0 4.2526e-10
10950.0 4.2233e-10
10970.0 4.1943e-10
10990.0 4.1658e-10
11010.0 4.136e-10
11030.0 4.1058e-10
11050.0 4.076e-10
11070.0 4.0456e-10
11090.0 4.0134e-10
11110.0 3.9821e-10
11130.0 3.9509e-10
11150.0 3.9184e-10
11170.0 3.8856e-10
11190.0 3.8538e-10
11210.0 3.8213e-10
11230.0 3.788e-10
11250.0 3.7557e-10
11270.0 3.7243e-10
11290.0 3.6925e-10
11310.0 3.6615e-10
11330.0 3.633e-10
11350.0 3.605e-10
11370.0 3.5779e-10
11390.0 3.5527e-10
11410.0 3.529e-10
11430.0 3.5054e-10
11450.0 3.4832e-10
11470.0 3.4624e-10
11490.0 3.4418e-10
11510.0 3.4212e-10
11530.0 3.4015e-10
11550.0 3.382e-10
11570.0 3.3617e-10
11590.0 3.3414e-10
11610.0 3.3213e-10
11630.0 3.3002e-10
11650.0 3.2782e-10
11670.0 3.2566e-10
11690.0 3.2346e-10
11710.0 3.2115e-10
11730.0 3.1882e-10
11750.0 3.1656e-10
11770.0 3.1421e-10
11790.0 3.1181e-10
11810.0 3.095e-10
11830.0 3.0721e-10
11850.0 3.0483e-10
11870.0 3.0257e-10
11890.0 3.0043e-10
11910.0 2.9829e-10
11930.0 2.9621e-10
11950.0 2.943e-10
11970.0 2.9246e-10
11990.0 2.9066e-10
12010.0 2.8901e-10
12030.0 2.875e-10
12050.0 2.8606e-10
12070.0 2.8471e-10
12090.0 2.8354e-10
12110.0 2.8244e-10
12130.0 2.8141e-10
12150.0 2.8049e-10
12170.0 2.7965e-10
12190.0 2.7882e-10
12210.0 2.7803e-10
12230.0 2.7728e-10
12250.0 2.7651e-10
12270.0 2.7569e-10
12290.0 2.7484e-10
12310.0 2.7394e-10
12330.0 2.7292e-10
12350.0 2.7179e-10
12370.0 2.7059e-10
12390.0 2.6925e-10
12410.0 2.677e-10
12430.0 2.6611e-10
12450.0 2.6441e-10
12470.0 2.6253e-10
12490.0 2.6055e-10
12510.0 2.5855e-10
12530.0 2.5641e-10
12550.0 2.5414e-10
12570.0 2.5188e-10
12590.0 2.496e-10
12610.0 2.4719e-10
12630.0 2.4477e-10
12650.0 2.4246e-10
12670.0 2.4011e-10
12690.0 2.3774e-10
12710.0 2.3548e-10
12730.0 2.333e-10
12750.0 2.3106e-10
12770.0 2.2895e-10
12790.0 2.2699e-10
12810.0 2.2508e-10
12830.0 2.2323e-10
12850.0 2.2157e-10
12870.0 2.2002e-10
12890.0 2.1854e-10
12910.0 2.172e-10
12930.0 2.1602e-10
12950.0 2.1493e-10
12970.0 2.1396e-10
12990.0 2.1317e-10
13010.0 2.125e-10
13030.0 2.1195e-10
13050.0 2.1153e-10
13070.0 2.1123e-10
13090.0 2.1101e-10
13110.0 2.1087e-10
13130.0 2.1079e-10
13150.0 2.1074e-10
13170.0 2.107e-10
13190.0 2.1063e-10
13210.0 2.1051e-10
13230.0 2.1032e-10
13250.0 2.1004e-10
13270.0 2.0966e-10
13290.0 2.0916e-10
13310.0 2.0851e-10
13330.0 2.0775e-10
13350.0 2.0687e-10
13370.0 2.0585e-10
13390.0 2.0467e-10
13410.0 2.0345e-10
13430.0 2.021e-10
13450.0 2.0061e-10
13470.0 1.9907e-10
13490.0 1.9749e-10
13510.0 1.9573e-10
13530.0 1.9392e-10
13550.0 1.9212e-10
13570.0 1.9024e-10
13590.0 1.8827e-10
13610.0 1.8632e-10
13630.0 1.844e-10
13650.0 1.8237e-10
13670.0 1.8034e-10
13690.0 1.7837e-10
13710.0 1.7637e-10
13730.0 1.7428e-10
13750.0 1.7233e-10
13770.0 1.7042e-10
13790.0 1.6847e-10
13810.0 1.6657e-10
13830.0 1.648e-10
13850.0 1.6302e-10
13870.0 1.6126e-10
13890.0 1.5961e-10
13910.0 1.5804e-10
13930.0 1.5646e-10
13950.0 1.5496e-10
13970.0 1.5358e-10
13990.0 1.5222e-10
14010.0 1.5089e-10
14030.0 1.4966e-10
14050.0 1.485e-10
14070.0 1.4732e-10
14090.0 1.4623e-10
14110.0 1.4522e-10
14130.0 1.4424e-10
14150.0 1.4329e-10
14170.0 1.4242e-10
14190.0 1.416e-10
14210.0 1.4078e-10
14230.0 1.4001e-10
14250.0 1.393e-10
14270.0 1.3858e-10
14290.0 1.3787e-10
14310.0 1.3721e-10
14330.0 1.3656e-10
14350.0 1.3591e-10
14370.0 1.3528e-10
14390.0 1.3468e-10
14410.0 1.3407e-10
14430.0 1.3346e-10
14450.0 1.3288e-10
14470.0 1.323e-10
14490.0 1.3171e-10
14510.0 1.3114e-10
14530.0 1.3058e-10
14550.0 1.3001e-10
14570.0 1.2943e-10
14590.0 1.2888e-10
14610.0 1.2831e-10
14630.0 1.2771e-10
14650.0 1.2713e-10
14670.0 1.2655e-10
14690.0 1.2594e-10
14710.0 1.2532e-10
14730.0 1.2472e-10
14750.0 1.241e-10
14770.0 1.2346e-10
14790.0 1.2282e-10
14810.0 1.2219e-10
14830.0 1.215e-10
14850.0 1.2082e-10
14870.0 1.2014e-10
14890.0 1.1946e-10
14910.0 1.1875e-10
14930.0 1.1808e-10
14950.0 1.1745e-10
14970.0 1.1683e-10
14990.0 1.1626e-10
15010.0 1.1577e-10
15030.0 1.1532e-10
15050.0 1.149e-10
15070.0 1.1456e-10
15090.0 1.1424e-10
15110.0 1.1393e-10
15130.0 1.1364e-10
15150.0 1.1337e-10
15170.0 1.1309e-10
15190.0 1.128e-10
15210.0 1.1253e-10
15230.0 1.1226e-10
15250.0 1.1198e-10
15270.0 1.117e-10
15290.0 1.1143e-10
15310.0 1.1115e-10
15330.0 1.1087e-10
15350.0 1.106e-10
15370.0 1.1033e-10
15390.0 1.1005e-10
15410.0 1.0977e-10
15430.0 1.095e-10
15450.0 1.0922e-10
15470.0 1.0894e-10
15490.0 1.0867e-10
15510.0 1.084e-10
15530.0 1.0812e-10
15550.0 1.0784e-10
15570.0 1.0757e-10
15590.0 1.0729e-10
15610.0 1.0701e-10
15630.0 1.0674e-10
15650.0 1.0647e-10
15670.0 1.0619e-10
15690.0 1.0591e-10
15710.0 1.0564e-10
15730.0 1.0537e-10
15750.0 1.0509e-10
15770.0 1.0481e-10
15790.0 1.0454e-10
15810.0 1.0426e-10
15830.0 1.0398e-10
15850.0 1.0371e-10
15870.0 1.0343e-10
15890.0 1.0316e-10
15910.0 1.0289e-10
15930.0 1.0261e-10
15950.0 1.0233e-10
15970.0 1.0206e-10
15990.0 1.0179e-10
16010.0 1.0151e-10
16030.0 1.0122e-10
16050.0 1.0096e-10
16070.0 1.0068e-10
16090.0 1.004e-10
16110.0 1.0013e-10
16130.0 9.9861e-11
16150.0 9.9576e-11
16170.0 9.9297e-11
16190.0 9.9027e-11
16210.0 9.8752e-11
16230.0 9.847e-11
16250.0 9.8198e-11
16270.0 9.793e-11
16290.0 9.7649e-11
16310.0 9.7371e-11
16330.0 9.7102e-11
16350.0 9.6827e-11
16370.0 9.6539e-11
16390.0 9.6269e-11
16410.0 9.5999e-11
16430.0 9.5719e-11
16450.0 9.5442e-11
16470.0 9.5176e-11
16490.0 9.4897e-11
16510.0 9.4616e-11
16530.0 9.4344e-11
16550.0 9.4072e-11
16570.0 9.379e-11
16590.0 9.351e-11
16610.0 9.3244e-11
16630.0 9.2967e-11
16650.0 9.2687e-11
16670.0 9.2417e-11
16690.0 9.2147e-11
16710.0 9.1861e-11
16730.0 9.1585e-11
16750.0 9.1316e-11
16770.0 9.1038e-11
16790.0 9.0756e-11
16810.0 9.0487e-11
16830.0 9.0216e-11
16850.0 8.9935e-11
16870.0 8.966e-11
16890.0 8.9392e-11
16910.0 8.9111e-11
16930.0 8.8828e-11
16950.0 8.8558e-11
16970.0 8.8285e-11
16990.0 8.8004e-11
17010.0 8.773e-11
17030.0 8.7463e-11
17050.0 8.7183e-11
17070.0 8.6903e-11
17090.0 8.6633e-11
17110.0 8.636e-11
17130.0 8.6074e-11
17150.0 8.58e-11
17170.0 8.5531e-11
17190.0 8.5253e-11
17210.0 8.4975e-11
17230.0 8.4707e-11
17250.0 8.4432e-11
17270.0 8.4148e-11
17290.0 8.3875e-11
17310.0 8.3604e-11
17330.0 8.3324e-11
17350.0 8.3043e-11
17370.0 8.2776e-11
17390.0 8.2502e-11
17410.0 8.2221e-11
17430.0 8.1949e-11
17450.0 8.1681e-11
17470.0 8.1395e-11
17490.0 8.1117e-11
17510.0 8.0848e-11
17530.0 8.0572e-11
17550.0 8.029e-11
17570.0 8.0019e-11
17590.0 7.975e-11
17610.0 7.9469e-11
17630.0 7.9192e-11
17650.0 7.8923e-11
17670.0 7.8647e-11
17690.0 7.8359e-11
17710.0 7.809e-11
17730.0 7.7819e-11
17750.0 7.7539e-11
17770.0 7.7263e-11
17790.0 7.6997e-11
17810.0 7.6717e-11
17830.0 7.6436e-11
17850.0 7.6164e-11
17870.0 7.5893e-11
17890.0 7.561e-11
17910.0 7.5331e-11
17930.0 7.5065e-11
17950.0 7.4788e-11
17970.0 7.4508e-11
17990.0 7.4239e-11
18010.0 7.3968e-11
18030.0 7.3682e-11
18050.0 7.3406e-11
18070.0 7.3137e-11
18090.0 7.2859e-11
18110.0 7.2577e-11
18130.0 7.2308e-11
18150.0 7.2037e-11
18170.0 7.1755e-11
18190.0 7.1481e-11
18210.0 7.1212e-11
18230.0 7.0931e-11
18250.0 7.0648e-11
18270.0 7.0379e-11
18290.0 7.0106e-11
18310.0 6.9825e-11
18330.0 6.9551e-11
18350.0 6.9284e-11
18370.0 6.9003e-11
18390.0 6.8724e-11
18410.0 6.8454e-11
18430.0 6.818e-11
18450.0 6.7895e-11
18470.0 6.7621e-11
18490.0 6.7353e-11
18510.0 6.7074e-11
18530.0 6.6796e-11
18550.0 6.6529e-11
18570.0 6.6253e-11
18590.0 6.5969e-11
18610.0 6.5696e-11
18630.0 6.5425e-11
18650.0 6.5145e-11
18670.0 6.4864e-11
18690.0 6.4598e-11
18710.0 6.4323e-11
18730.0 6.4042e-11
18750.0 6.377e-11
18770.0 6.3502e-11
18790.0 6.3216e-11
18810.0 6.2938e-11
18830.0 6.2669e-11
18850.0 6.2393e-11
18870.0 6.2111e-11
18890.0 6.1841e-11
18910.0 6.1571e-11
18930.0 6.129e-11
18950.0 6.1013e-11
18970.0 6.0744e-11
18990.0 6.0467e-11
19010.0 6.018e-11
19030.0 5.9911e-11
19050.0 5.964e-11
19070.0 5.936e-11
19090.0 5.9084e-11
19110.0 5.8818e-11
19130.0 5.8538e-11
19150.0 5.8257e-11
19170.0 5.7986e-11
19190.0 5.7713e-11
19210.0 5.743e-11
19230.0 5.7153e-11
19250.0 5.6886e-11
19270.0 5.6609e-11
19290.0 5.633e-11
19310.0 5.606e-11
19330.0 5.5788e-11
19350.0 5.5502e-11
19370.0 5.5227e-11
19390.0 5.4958e-11
19410.0 5.4679e-11
19430.0 5.4398e-11
19450.0 5.413e-11
19470.0 5.3858e-11
19490.0 5.3576e-11
19510.0 5.3302e-11
19530.0 5.3033e-11
19550.0 5.2752e-11
19570.0 5.2469e-11
19590.0 5.2201e-11
19610.0 5.1927e-11
19630.0 5.1646e-11
19650.0 5.1373e-11
19670.0 5.1106e-11
19690.0 5.0824e-11
19710.0 5.0545e-11
19730.0 5.0276e-11
19750.0 5.0001e-11
19770.0 4.9715e-11
19790.0 4.9443e-11
19810.0 4.9174e-11
19830.0 4.8896e-11
19850.0 4.8619e-11
19870.0 4.8354e-11
19890.0 4.8083e-11
19910.0 4.781e-11
19930.0 4.7557e-11
19950.0 4.7318e-11
19970.0 4.7089e-11
19990.0 4.6886e-11
20010.0 4.6718e-11
20030.0 4.6572e-11
20050.0 4.6451e-11
20070.0 4.6356e-11
20090.0 4.6279e-11
20110.0 4.6211e-11
20130.0 4.6154e-11
20150.0 4.6103e-11
20170.0 4.6052e-11
20190.0 4.6e-11
20210.0 4.5949e-11
20230.0 4.5895e-11
20250.0 4.5837e-11
20270.0 4.5777e-11
20290.0 4.5715e-11
20310.0 4.5648e-11
20330.0 4.5575e-11
20350.0 4.5502e-11
20370.0 4.5426e-11
20390.0 4.5343e-11
20410.0 4.5258e-11
20430.0 4.5174e-11
20450.0 4.5082e-11
20470.0 4.4989e-11
20490.0 4.4898e-11
20510.0 4.4806e-11
20530.0 4.4711e-11
20550.0 4.462e-11
20570.0 4.4533e-11
20590.0 4.4444e-11
20610.0 4.4358e-11
20630.0 4.4276e-11
20650.0 4.4195e-11
20670.0 4.4111e-11
20690.0 4.4032e-11
20710.0 4.3953e-11
20730.0 4.387e-11
20750.0 4.3784e-11
20770.0 4.3699e-11
20790.0 4.3607e-11
20810.0 4.3506e-11
20830.0 4.3401e-11
20850.0 4.329e-11
20870.0 4.3167e-11
20890.0 4.3035e-11
20910.0 4.2902e-11
20930.0 4.2758e-11
20950.0 4.2605e-11
20970.0 4.245e-11
20990.0 4.2294e-11
21010.0 4.2126e-11
21030.0 4.1957e-11
21050.0 4.1793e-11
21070.0 4.1625e-11
21090.0 4.1452e-11
21110.0 4.1289e-11
21130.0 4.1128e-11
21150.0 4.0964e-11
21170.0 4.0803e-11
21190.0 4.0649e-11
21210.0 4.049e-11
21230.0 4.0328e-11
21250.0 4.0172e-11
21270.0 4.0017e-11
21290.0 3.9853e-11
21310.0 3.9689e-11
21330.0 3.9529e-11
21350.0 3.936e-11
21370.0 3.9184e-11
21390.0 3.9009e-11
21410.0 3.8831e-11
21430.0 3.8638e-11
21450.0 3.8446e-11
21470.0 3.8256e-11
21490.0 3.8056e-11
21510.0 3.7849e-11
21530.0 3.7648e-11
21550.0 3.7442e-11
21570.0 3.7225e-11
21590.0 3.7012e-11
21610.0 3.6802e-11
21630.0 3.6585e-11
21650.0 3.6361e-11
21670.0 3.6152e-11
21690.0 3.594e-11
21710.0 3.5721e-11
21730.0 3.5508e-11
21750.0 3.5302e-11
21770.0 3.5085e-11
21790.0 3.4869e-11
21810.0 3.4662e-11
21830.0 3.4452e-11
21850.0 3.4236e-11
21870.0 3.4025e-11
21890.0 3.3822e-11
21910.0 3.361e-11
21930.0 3.3399e-11
21950.0 3.3197e-11
21970.0 3.2994e-11
21990.0 3.2783e-11
22010.0 3.2586e-11
22030.0 3.2395e-11
22050.0 3.2202e-11
22070.0 3.2016e-11
22090.0 3.1843e-11
22110.0 3.1673e-11
22130.0 3.1506e-11
22150.0 3.1352e-11
22170.0 3.1206e-11
22190.0 3.1062e-11
22210.0 3.0926e-11
22230.0 3.0804e-11
22250.0 3.0684e-11
22270.0 3.0568e-11
22290.0 3.046e-11
22310.0 3.0358e-11
22330.0 3.0253e-11
22350.0 3.0153e-11
22370.0 3.0058e-11
22390.0 2.9961e-11
22410.0 2.9862e-11
22430.0 2.9768e-11
22450.0 2.9673e-11
22470.0 2.9574e-11
22490.0 2.9475e-11
22510.0 2.9379e-11
22530.0 2.9277e-11
22550.0 2.9173e-11
22570.0 2.9073e-11
22590.0 2.8972e-11
22610.0 2.8869e-11
22630.0 2.8768e-11
