#lamb flux
1010.0 3.3086e-10
1030.0 4.2985e-10
1050.0 5.5389e-10
1070.0 7.0674e-10
1090.0 8.9627e-10
1110.0 1.114e-09
1130.0 1.3591e-09
1150.0 1.6403e-09
1170.0 1.9564e-09
1190.0 2.2889e-09
1210.0 2.6469e-09
1230.0 3.0309e-09
1250.0 3.4217e-09
1270.0 3.8078e-09
1290.0 4.201e-09
1310.0 4.577e-09
1330.0 4.9134e-09
1350.0 5.2147e-09
1370.0 5.4781e-09
1390.0 5.681e-09
1410.0 5.8185e-09
1430.0 5.9088e-09
1450.0 5.9406e-09
1470.0 5.9096e-09
1490.0 5.8326e-09
1510.0 5.7256e-09
1530.0 5.5723e-09
1550.0 5.3918e-09
1570.0 5.2019e-09
1590.0 5.0025e-09
1610.0 4.794e-09
1630.0 4.5943e-09
1650.0 4.4064e-09
1670.0 4.2262e-09
1690.0 4.0599e-09
1710.0 3.9147e-09
1730.0 3.7875e-09
1750.0 3.6727e-09
1770.0 3.5793e-09
1790.0 3.5055e-09
1810.0 3.4463e-09
1830.0 3.4026e-09
1850.0 3.4458e-09
1870.0 3.555e-09
1890.0 3.6571e-09
1910.0 3.7564e-09
1930.0 3.8537e-09
1950.0 3.9365e-09
1970.0 4.0146e-09
1990.0 4.0967e-09
2010.0 4.1784e-09
2030.0 4.2581e-09
2050.0 4.3412e-09
2070.0 4.4162e-09
2090.0 4.4824e-09
2110.0 4.546e-09
2130.0 4.6097e-09
2150.0 4.6699e-09
2170.0 4.725e-09
2190.0 4.7812e-09
2210.0 4.8847e-09
2230.0 5.045e-09
2250.0 5.21e-09
2270.0 5.3831e-09
2290.0 5.5576e-09
2310.0 5.7319e-09
2330.0 5.9112e-09
2350.0 6.0929e-09
2370.0 6.2718e-09
2390.0 6.4515e-09
2410.0 6.6346e-09
2430.0 6.814e-09
2450.0 6.9911e-09
2470.0 7.1731e-09
2490.0 7.365e-09
2510.0 7.5668e-09
2530.0 7.8007e-09
2550.0 8.0956e-09
2570.0 8.4721e-09
2590.0 8.9585e-09
2610.0 9.6478e-09
2630.0 1.0571e-08
2650.0 1.1718e-08
2670.0 1.3161e-08
2690.0 1.4944e-08
2710.0 1.6936e-08
2730.0 1.9062e-08
2750.0 2.1391e-08
2770.0 2.3712e-08
2790.0 2.5852e-08
2810.0 2.7831e-08
2830.0 2.9644e-08
2850.0 3.1088e-08
2870.0 3.2292e-08
2890.0 3.3355e-08
2910.0 3.4284e-08
2930.0 3.5098e-08
2950.0 3.5909e-08
2970.0 3.6731e-08
2990.0 3.7537e-08
3010.0 3.836e-08
3030.0 3.9249e-08
3050.0 4.0179e-08
3070.0 4.1108e-08
3090.0 4.211e-08
3110.0 4.3198e-08
3130.0 4.4383e-08
3150.0 4.5384e-08
3170.0 4.6912e-08
3190.0 4.9007e-08
3210.0 5.1928e-08
3230.0 5.616e-08
3250.0 6.2476e-08
3270.0 6.9779e-08
3290.0 7.9235e-08
3310.0 9.433e-08
3330.0 9.9915e-08
3350.0 1.0304e-07
3370.0 1.0613e-07
3390.0 1.0924e-07
3410.0 1.1221e-07
3430.0 1.1506e-07
3450.0 1.1787e-07
3470.0 1.207e-07
3490.0 1.2318e-07
3510.0 1.2434e-07
3530.0 1.2204e-07
3550.0 1.1891e-07
3570.0 1.2241e-07
3590.0 1.3475e-07
3610.0 1.4859e-07
3630.0 1.5957e-07
3650.0 1.5517e-07
3670.0 1.4022e-07
3690.0 1.2898e-07
3710.0 1.2765e-07
3730.0 1.3184e-07
3750.0 1.3443e-07
3770.0 1.3896e-07
3790.0 1.4392e-07
3810.0 1.441e-07
3830.0 1.3394e-07
3850.0 1.2329e-07
3870.0 1.1798e-07
3890.0 1.1859e-07
3910.0 1.1751e-07
3930.0 1.1627e-07
3950.0 1.202e-07
3970.0 1.2474e-07
3990.0 1.2516e-07
4010.0 1.2187e-07
4030.0 1.1523e-07
4050.0 1.1053e-07
4070.0 1.0656e-07
4090.0 1.0402e-07
4110.0 1.011e-07
4130.0 9.543e-08
4150.0 8.9224e-08
4170.0 8.5509e-08
4190.0 8.0589e-08
4210.0 7.2704e-08
4230.0 6.4933e-08
4250.0 5.7163e-08
4270.0 5.0884e-08
4290.0 4.7305e-08
4310.0 4.5189e-08
4330.0 4.5041e-08
4350.0 4.6838e-08
4370.0 4.7259e-08
4390.0 4.9976e-08
4410.0 5.1779e-08
4430.0 5.1021e-08
4450.0 4.5919e-08
4470.0 4.0977e-08
4490.0 3.8761e-08
4510.0 3.7035e-08
4530.0 3.6071e-08
4550.0 3.5139e-08
4570.0 3.4888e-08
4590.0 3.5389e-08
4610.0 3.556e-08
4630.0 3.5649e-08
4650.0 3.5317e-08
4670.0 3.4482e-08
4690.0 3.1982e-08
4710.0 2.9737e-08
4730.0 2.7912e-08
4750.0 2.6863e-08
4770.0 2.7247e-08
4790.0 2.7113e-08
4810.0 2.6556e-08
4830.0 2.7058e-08
4850.0 2.7712e-08
4870.0 2.8121e-08
4890.0 2.7685e-08
4910.0 2.6638e-08
4930.0 2.5021e-08
4950.0 2.3269e-08
4970.0 2.1683e-08
4990.0 2.038e-08
5010.0 2.0196e-08
5030.0 2.0851e-08
5050.0 2.1323e-08
5070.0 2.2148e-08
5090.0 2.3472e-08
5110.0 2.3772e-08
5130.0 2.4012e-08
5150.0 2.4352e-08
5170.0 2.4758e-08
5190.0 2.5383e-08
5210.0 2.5467e-08
5230.0 2.5262e-08
5250.0 2.531e-08
5270.0 2.5543e-08
5290.0 2.5556e-08
5310.0 2.5407e-08
5330.0 2.4877e-08
5350.0 2.4751e-08
5370.0 2.4437e-08
5390.0 2.399e-08
5410.0 2.3771e-08
5430.0 2.3615e-08
5450.0 2.4142e-08
5470.0 2.4597e-08
5490.0 2.5928e-08
5510.0 2.6646e-08
5530.0 2.7014e-08
5550.0 2.7196e-08
5570.0 2.7685e-08
5590.0 2.7712e-08
5610.0 2.7566e-08
5630.0 2.7533e-08
5650.0 2.7289e-08
5670.0 2.6707e-08
5690.0 2.616e-08
5710.0 2.5676e-08
5730.0 2.6162e-08
5750.0 2.5141e-08
5770.0 2.3774e-08
5790.0 2.2536e-08
5810.0 2.0343e-08
5830.0 2.1468e-08
5850.0 2.2798e-08
5870.0 2.2873e-08
5890.0 2.2954e-08
5910.0 2.36e-08
5930.0 2.3381e-08
5950.0 2.3219e-08
5970.0 2.2992e-08
5990.0 2.2929e-08
6010.0 2.2149e-08
6030.0 2.1557e-08
6050.0 2.1183e-08
6070.0 2.0692e-08
6090.0 2.065e-08
6110.0 2.0152e-08
6130.0 1.9311e-08
6150.0 1.8638e-08
6170.0 1.803e-08
6190.0 1.6617e-08
6210.0 1.6149e-08
6230.0 1.6135e-08
6250.0 1.579e-08
6270.0 1.5467e-08
6290.0 1.5618e-08
6310.0 1.5863e-08
6330.0 1.5607e-08
6350.0 1.5072e-08
6370.0 1.4932e-08
6390.0 1.4292e-08
6410.0 1.4069e-08
6430.0 1.3543e-08
6450.0 1.3374e-08
6470.0 1.3227e-08
6490.0 1.3118e-08
6510.0 1.2576e-08
6530.0 1.2368e-08
6550.0 1.2105e-08
6570.0 1.1738e-08
6590.0 1.193e-08
6610.0 1.1886e-08
6630.0 1.1568e-08
6650.0 1.1093e-08
6670.0 1.0878e-08
6690.0 1.0655e-08
6710.0 1.033e-08
6730.0 1.0172e-08
6750.0 1.025e-08
6770.0 1.0572e-08
6790.0 1.092e-08
6810.0 1.0556e-08
6830.0 9.918e-09
6850.0 9.3503e-09
6870.0 9.217e-09
6890.0 9.1881e-09
6910.0 9.1913e-09
6930.0 9.1303e-09
6950.0 9.2493e-09
6970.0 9.0039e-09
6990.0 8.9245e-09
7010.0 9.0276e-09
7030.0 9.2009e-09
7050.0 9.0805e-09
7070.0 8.6306e-09
7090.0 8.3572e-09
7110.0 8.59e-09
7130.0 8.6091e-09
7150.0 8.7137e-09
7170.0 8.7516e-09
7190.0 8.8406e-09
7210.0 9.0848e-09
7230.0 9.4713e-09
7250.0 9.56e-09
7270.0 9.6889e-09
7290.0 9.9692e-09
7310.0 9.8988e-09
7330.0 9.7663e-09
7350.0 9.513e-09
7370.0 9.615e-09
7390.0 9.8762e-09
7410.0 9.492e-09
7430.0 9.6731e-09
7450.0 9.7076e-09
7470.0 1.01e-08
7490.0 1.0113e-08
7510.0 9.8024e-09
7530.0 1.0069e-08
7550.0 9.7823e-09
7570.0 9.8089e-09
7590.0 9.4098e-09
7610.0 9.7011e-09
7630.0 9.9848e-09
7650.0 1.039e-08
7670.0 9.9582e-09
7690.0 1.0516e-08
7710.0 1.0789e-08
7730.0 1.1012e-08
7750.0 1.1464e-08
7770.0 1.1411e-08
7790.0 1.1362e-08
7810.0 1.169e-08
7830.0 1.2389e-08
7850.0 1.2263e-08
7870.0 1.2847e-08
7890.0 1.2716e-08
7910.0 1.264e-08
7930.0 1.2609e-08
7950.0 1.3286e-08
7970.0 1.3204e-08
7990.0 1.2345e-08
8010.0 7.529e-09
8030.0 8.0622e-09
8050.0 8.4471e-09
8070.0 7.2247e-09
8090.0 2.9984e-09
8110.0 3.6173e-09
8130.0 6.8912e-09
8150.0 7.397e-09
8170.0 7.6417e-09
8190.0 7.5219e-09
8210.0 7.751e-09
8230.0 8.9448e-09
8250.0 9.3755e-09
8270.0 8.3147e-09
8290.0 7.7138e-09
8310.0 7.8819e-09
8330.0 9.0396e-09
8350.0 9.4916e-09
8370.0 9.0194e-09
8390.0 8.5277e-09
8410.0 8.5752e-09
8430.0 7.9096e-09
8450.0 8.493e-09
8470.0 9.2373e-09
8490.0 9.2644e-09
8510.0 8.6303e-09
8530.0 7.578e-09
8550.0 7.0907e-09
8570.0 6.9424e-09
8590.0 7.1258e-09
8610.0 7.9389e-09
8630.0 7.9201e-09
8650.0 8.0973e-09
8670.0 7.6013e-09
8690.0 7.4447e-09
8710.0 6.5649e-09
8730.0 6.4679e-09
8750.0 7.11e-09
8770.0 7.3774e-09
8790.0 6.8743e-09
8810.0 7.311e-09
8830.0 7.7191e-09
8850.0 7.94e-09
8870.0 7.3694e-09
8890.0 7.1655e-09
8910.0 7.0201e-09
8930.0 6.0687e-09
8950.0 6.2027e-09
8970.0 6.381e-09
8990.0 6.0485e-09
9010.0 5.7173e-09
9030.0 5.5698e-09
9050.0 5.5099e-09
9070.0 5.4557e-09
9090.0 5.4012e-09
9110.0 5.3462e-09
9130.0 5.2911e-09
9150.0 5.2362e-09
9170.0 5.1811e-09
9190.0 5.126e-09
9210.0 5.0708e-09
9230.0 5.0157e-09
9250.0 4.9606e-09
9270.0 4.9058e-09
9290.0 4.851e-09
9310.0 4.793e-09
9330.0 4.7298e-09
9350.0 4.6668e-09
9370.0 4.6044e-09
9390.0 4.5426e-09
9410.0 4.4811e-09
9430.0 4.4201e-09
9450.0 4.3599e-09
9470.0 4.2986e-09
9490.0 4.2387e-09
9510.0 4.1811e-09
9530.0 4.1242e-09
9550.0 4.0673e-09
9570.0 4.011e-09
9590.0 3.9554e-09
9610.0 3.8942e-09
9630.0 3.8328e-09
9650.0 3.7724e-09
9670.0 3.7134e-09
9690.0 3.6548e-09
9710.0 3.597e-09
9730.0 3.5404e-09
9750.0 3.4846e-09
9770.0 3.4291e-09
9790.0 3.375e-09
9810.0 3.322e-09
9830.0 3.2695e-09
9850.0 3.22e-09
9870.0 3.1737e-09
9890.0 3.1213e-09
9910.0 3.0707e-09
9930.0 3.0227e-09
9950.0 2.9751e-09
9970.0 2.928e-09
9990.0 2.882e-09
10010.0 2.8371e-09
10030.0 2.7931e-09
10050.0 2.7499e-09
10070.0 2.7076e-09
10090.0 2.6662e-09
10110.0 2.6254e-09
10130.0 2.5854e-09
10150.0 2.5462e-09
10170.0 2.5077e-09
10190.0 2.4699e-09
10210.0 2.4328e-09
10230.0 2.3965e-09
10250.0 2.3608e-09
10270.0 2.3258e-09
10290.0 2.2916e-09
10310.0 2.2579e-09
10330.0 2.2248e-09
10350.0 2.1923e-09
10370.0 2.1606e-09
10390.0 2.1289e-09
10410.0 2.0926e-09
10430.0 2.0552e-09
10450.0 2.0319e-09
10470.0 2.0057e-09
10490.0 1.9795e-09
10510.0 1.953e-09
10530.0 1.9257e-09
10550.0 1.899e-09
10570.0 1.8731e-09
10590.0 1.8472e-09
10610.0 1.8214e-09
10630.0 1.7967e-09
10650.0 1.7724e-09
10670.0 1.7477e-09
10690.0 1.7239e-09
10710.0 1.7008e-09
10730.0 1.6777e-09
10750.0 1.6544e-09
10770.0 1.6326e-09
10790.0 1.6109e-09
10810.0 1.589e-09
10830.0 1.5678e-09
10850.0 1.5474e-09
10870.0 1.5265e-09
10890.0 1.506e-09
10910.0 1.4865e-09
10930.0 1.4675e-09
10950.0 1.4487e-09
10970.0 1.4311e-09
10990.0 1.4149e-09
11010.0 4.1822e-09
11030.0 4.1523e-09
11050.0 4.1215e-09
11070.0 4.0891e-09
11090.0 4.0542e-09
11110.0 4.0196e-09
11130.0 3.9847e-09
11150.0 3.9484e-09
11170.0 3.9116e-09
11190.0 3.8757e-09
11210.0 3.839e-09
11230.0 3.8016e-09
11250.0 3.7652e-09
11270.0 3.7297e-09
11290.0 3.6937e-09
11310.0 3.6585e-09
11330.0 3.6258e-09
11350.0 3.5936e-09
11370.0 3.5623e-09
11390.0 3.5329e-09
11410.0 3.5051e-09
11430.0 3.4775e-09
11450.0 3.4513e-09
11470.0 3.4265e-09
11490.0 3.4021e-09
11510.0 3.3776e-09
11530.0 3.3542e-09
11550.0 3.3311e-09
11570.0 3.3073e-09
11590.0 3.2836e-09
11610.0 3.2601e-09
11630.0 3.2358e-09
11650.0 3.2105e-09
11670.0 3.1858e-09
11690.0 3.1606e-09
11710.0 3.1345e-09
11730.0 3.1082e-09
11750.0 3.0825e-09
11770.0 3.0559e-09
11790.0 3.0289e-09
11810.0 3.0027e-09
11830.0 2.9766e-09
11850.0 2.9498e-09
11870.0 2.924e-09
11890.0 2.8994e-09
11910.0 2.8749e-09
11930.0 2.851e-09
11950.0 2.8287e-09
11970.0 2.8073e-09
11990.0 2.7863e-09
12010.0 2.7669e-09
12030.0 2.749e-09
12050.0 2.732e-09
12070.0 2.7159e-09
12090.0 2.7017e-09
12110.0 2.6885e-09
12130.0 2.6761e-09
12150.0 2.6649e-09
12170.0 2.6547e-09
12190.0 2.6448e-09
12210.0 2.6355e-09
12230.0 2.6267e-09
12250.0 2.6179e-09
12270.0 2.6088e-09
12290.0 2.5996e-09
12310.0 2.5899e-09
12330.0 2.5793e-09
12350.0 2.5678e-09
12370.0 2.5556e-09
12390.0 2.5422e-09
12410.0 2.5271e-09
12430.0 2.5113e-09
12450.0 2.4946e-09
12470.0 2.4762e-09
12490.0 2.4568e-09
12510.0 2.4371e-09
12530.0 2.4161e-09
12550.0 2.3938e-09
12570.0 2.3714e-09
12590.0 2.3487e-09
12610.0 2.3246e-09
12630.0 2.3003e-09
12650.0 2.277e-09
12670.0 2.2531e-09
12690.0 2.2289e-09
12710.0 2.2056e-09
12730.0 2.1829e-09
12750.0 2.1595e-09
12770.0 2.1373e-09
12790.0 2.1164e-09
12810.0 2.0958e-09
12830.0 2.0756e-09
12850.0 2.0572e-09
12870.0 2.0399e-09
12890.0 2.0231e-09
12910.0 2.0077e-09
12930.0 1.9939e-09
12950.0 1.9808e-09
12970.0 1.9689e-09
12990.0 1.9589e-09
13010.0 1.9501e-09
13030.0 1.9425e-09
13050.0 1.9363e-09
13070.0 1.9315e-09
13090.0 1.9276e-09
13110.0 1.9247e-09
13130.0 1.9226e-09
13150.0 1.921e-09
13170.0 1.9198e-09
13190.0 1.9185e-09
13210.0 1.9172e-09
13230.0 1.9154e-09
13250.0 1.9131e-09
13270.0 1.9101e-09
13290.0 1.9062e-09
13310.0 1.9013e-09
13330.0 1.8955e-09
13350.0 1.8888e-09
13370.0 1.8809e-09
13390.0 1.8718e-09
13410.0 1.8622e-09
13430.0 1.8516e-09
13450.0 1.8397e-09
13470.0 1.8272e-09
13490.0 1.8142e-09
13510.0 1.7997e-09
13530.0 1.7847e-09
13550.0 1.7696e-09
13570.0 1.7539e-09
13590.0 1.7372e-09
13610.0 1.7207e-09
13630.0 1.7043e-09
13650.0 1.687e-09
13670.0 1.6696e-09
13690.0 1.6527e-09
13710.0 1.6355e-09
13730.0 1.6174e-09
13750.0 1.6004e-09
13770.0 1.5836e-09
13790.0 1.5664e-09
13810.0 1.5495e-09
13830.0 1.5336e-09
13850.0 1.5175e-09
13870.0 1.5014e-09
13890.0 1.4863e-09
13910.0 1.4717e-09
13930.0 1.457e-09
13950.0 1.4428e-09
13970.0 1.4299e-09
13990.0 1.417e-09
14010.0 1.4045e-09
14030.0 1.3929e-09
14050.0 1.3819e-09
14070.0 1.3708e-09
14090.0 1.3606e-09
14110.0 1.3512e-09
14130.0 1.3421e-09
14150.0 1.3333e-09
14170.0 1.3255e-09
14190.0 1.318e-09
14210.0 1.3106e-09
14230.0 1.3037e-09
14250.0 1.2973e-09
14270.0 1.2909e-09
14290.0 1.2846e-09
14310.0 1.2789e-09
14330.0 1.2732e-09
14350.0 1.2676e-09
14370.0 1.2622e-09
14390.0 1.2572e-09
14410.0 1.252e-09
14430.0 1.247e-09
14450.0 1.2423e-09
14470.0 1.2377e-09
14490.0 1.2329e-09
14510.0 1.2284e-09
14530.0 1.2241e-09
14550.0 1.2197e-09
14570.0 1.2152e-09
14590.0 1.211e-09
14610.0 1.2066e-09
14630.0 1.202e-09
14650.0 1.1975e-09
14670.0 1.1931e-09
14690.0 1.1884e-09
14710.0 1.1835e-09
14730.0 1.1789e-09
14750.0 1.1741e-09
14770.0 1.169e-09
14790.0 1.164e-09
14810.0 1.159e-09
14830.0 1.1534e-09
14850.0 1.1479e-09
14870.0 1.1424e-09
14890.0 1.1368e-09
14910.0 1.1309e-09
14930.0 1.1254e-09
14950.0 1.1203e-09
14970.0 1.1152e-09
14990.0 1.1107e-09
15010.0 1.1068e-09
15030.0 1.1034e-09
15050.0 1.1003e-09
15070.0 1.0979e-09
15090.0 1.0957e-09
15110.0 1.0936e-09
15130.0 1.0917e-09
15150.0 1.09e-09
15170.0 1.0881e-09
15190.0 1.0863e-09
15210.0 1.0845e-09
15230.0 1.0827e-09
15250.0 1.0808e-09
15270.0 1.0789e-09
15290.0 1.0771e-09
15310.0 1.0752e-09
15330.0 1.0733e-09
15350.0 1.0714e-09
15370.0 1.0696e-09
15390.0 1.0675e-09
15410.0 1.0656e-09
15430.0 1.0637e-09
15450.0 1.0617e-09
15470.0 1.0596e-09
15490.0 1.0576e-09
15510.0 1.0557e-09
15530.0 1.0536e-09
15550.0 1.0515e-09
15570.0 1.0495e-09
15590.0 1.0474e-09
15610.0 1.0452e-09
15630.0 1.0431e-09
15650.0 1.041e-09
15670.0 1.0387e-09
15690.0 1.0366e-09
15710.0 1.0344e-09
15730.0 1.0322e-09
15750.0 1.0299e-09
15770.0 1.0277e-09
15790.0 1.0254e-09
15810.0 1.023e-09
15830.0 1.0207e-09
15850.0 1.0185e-09
15870.0 1.0161e-09
15890.0 1.0137e-09
15910.0 1.0114e-09
15930.0 1.009e-09
15950.0 1.0065e-09
15970.0 1.0041e-09
15990.0 1.0017e-09
16010.0 9.9918e-10
16030.0 9.9663e-10
16050.0 9.9421e-10
16070.0 9.917e-10
16090.0 9.8911e-10
16110.0 9.8658e-10
16130.0 9.8409e-10
16150.0 9.814e-10
16170.0 9.7876e-10
16190.0 9.762e-10
16210.0 9.7357e-10
16230.0 9.7085e-10
16250.0 9.6821e-10
16270.0 9.656e-10
16290.0 9.6285e-10
16310.0 9.6011e-10
16330.0 9.5745e-10
16350.0 9.5471e-10
16370.0 9.5183e-10
16390.0 9.4911e-10
16410.0 9.4637e-10
16430.0 9.4353e-10
16450.0 9.407e-10
16470.0 9.3797e-10
16490.0 9.3511e-10
16510.0 9.322e-10
16530.0 9.2937e-10
16550.0 9.2653e-10
16570.0 9.2358e-10
16590.0 9.2064e-10
16610.0 9.1782e-10
16630.0 9.149e-10
16650.0 9.1192e-10
16670.0 9.0904e-10
16690.0 9.0614e-10
16710.0 9.0308e-10
16730.0 9.001e-10
16750.0 8.9719e-10
16770.0 8.9418e-10
16790.0 8.9112e-10
16810.0 8.8818e-10
16830.0 8.8521e-10
16850.0 8.8213e-10
16870.0 8.7911e-10
16890.0 8.7615e-10
16910.0 8.7306e-10
16930.0 8.6993e-10
16950.0 8.6694e-10
16970.0 8.639e-10
16990.0 8.6078e-10
17010.0 8.5772e-10
17030.0 8.5473e-10
17050.0 8.516e-10
17070.0 8.4847e-10
17090.0 8.4543e-10
17110.0 8.4236e-10
17130.0 8.3916e-10
17150.0 8.3607e-10
17170.0 8.3303e-10
17190.0 8.2989e-10
17210.0 8.2674e-10
17230.0 8.237e-10
17250.0 8.2059e-10
17270.0 8.1739e-10
17290.0 8.1428e-10
17310.0 8.112e-10
17330.0 8.0803e-10
17350.0 8.0484e-10
17370.0 8.018e-10
17390.0 7.9868e-10
17410.0 7.9549e-10
17430.0 7.9239e-10
17450.0 7.8933e-10
17470.0 7.8609e-10
17490.0 7.8293e-10
17510.0 7.7985e-10
17530.0 7.7672e-10
17550.0 7.7352e-10
17570.0 7.7043e-10
17590.0 7.6736e-10
17610.0 7.6417e-10
17630.0 7.6103e-10
17650.0 7.5796e-10
17670.0 7.5483e-10
17690.0 7.5158e-10
17710.0 7.4852e-10
17730.0 7.4544e-10
17750.0 7.4227e-10
17770.0 7.3914e-10
17790.0 7.3612e-10
17810.0 7.3297e-10
17830.0 7.298e-10
17850.0 7.2673e-10
17870.0 7.2365e-10
17890.0 7.2048e-10
17910.0 7.1735e-10
17930.0 7.1434e-10
17950.0 7.1123e-10
17970.0 7.081e-10
17990.0 7.0507e-10
18010.0 7.0203e-10
18030.0 6.9885e-10
18050.0 6.9577e-10
18070.0 6.9276e-10
18090.0 6.8967e-10
18110.0 6.8654e-10
18130.0 6.8355e-10
18150.0 6.8053e-10
18170.0 6.7742e-10
18190.0 6.7438e-10
18210.0 6.7141e-10
18230.0 6.6832e-10
18250.0 6.6521e-10
18270.0 6.6225e-10
18290.0 6.5924e-10
18310.0 6.5617e-10
18330.0 6.5318e-10
18350.0 6.5024e-10
18370.0 6.4719e-10
18390.0 6.4416e-10
18410.0 6.4121e-10
18430.0 6.3824e-10
18450.0 6.3516e-10
18470.0 6.322e-10
18490.0 6.2929e-10
18510.0 6.2629e-10
18530.0 6.2331e-10
18550.0 6.2043e-10
18570.0 6.1747e-10
18590.0 6.1445e-10
18610.0 6.1153e-10
18630.0 6.0864e-10
18650.0 6.0566e-10
18670.0 6.0269e-10
18690.0 5.9985e-10
18710.0 5.9694e-10
18730.0 5.9399e-10
18750.0 5.9112e-10
18770.0 5.8828e-10
18790.0 5.853e-10
18810.0 5.8239e-10
18830.0 5.7957e-10
18850.0 5.7669e-10
18870.0 5.7376e-10
18890.0 5.7094e-10
18910.0 5.6814e-10
18930.0 5.6523e-10
18950.0 5.6237e-10
18970.0 5.5959e-10
18990.0 5.5674e-10
19010.0 5.538e-10
19030.0 5.5104e-10
19050.0 5.4826e-10
19070.0 5.454e-10
19090.0 5.4259e-10
19110.0 5.3987e-10
19130.0 5.3703e-10
19150.0 5.3418e-10
19170.0 5.3144e-10
19190.0 5.2868e-10
19210.0 5.2583e-10
19230.0 5.2304e-10
19250.0 5.2036e-10
19270.0 5.1758e-10
19290.0 5.1479e-10
19310.0 5.1209e-10
19330.0 5.0938e-10
19350.0 5.0654e-10
19370.0 5.038e-10
19390.0 5.0112e-10
19410.0 4.9837e-10
19430.0 4.956e-10
19450.0 4.9295e-10
19470.0 4.9026e-10
19490.0 4.8749e-10
19510.0 4.848e-10
19530.0 4.8216e-10
19550.0 4.7941e-10
19570.0 4.7666e-10
19590.0 4.7403e-10
19610.0 4.7137e-10
19630.0 4.6863e-10
19650.0 4.6598e-10
19670.0 4.6338e-10
19690.0 4.6066e-10
19710.0 4.5797e-10
19730.0 4.5536e-10
19750.0 4.5271e-10
19770.0 4.4997e-10
19790.0 4.4735e-10
19810.0 4.4476e-10
19830.0 4.4209e-10
19850.0 4.3944e-10
19870.0 4.369e-10
19890.0 4.3431e-10
19910.0 4.317e-10
19930.0 4.2926e-10
19950.0 4.2696e-10
19970.0 4.2475e-10
19990.0 4.2277e-10
20010.0 4.2111e-10
20030.0 4.1964e-10
20050.0 4.184e-10
20070.0 4.1741e-10
20090.0 4.1659e-10
20110.0 4.1586e-10
20130.0 4.1526e-10
20150.0 4.1472e-10
20170.0 4.142e-10
20190.0 4.137e-10
20210.0 4.1321e-10
20230.0 4.1272e-10
20250.0 4.1221e-10
20270.0 4.1168e-10
20290.0 4.1115e-10
20310.0 4.1057e-10
20330.0 4.0995e-10
20350.0 4.0933e-10
20370.0 4.0868e-10
20390.0 4.0797e-10
20410.0 4.0724e-10
20430.0 4.0651e-10
20450.0 4.0571e-10
20470.0 4.049e-10
20490.0 4.0409e-10
20510.0 4.0328e-10
20530.0 4.0244e-10
20550.0 4.0162e-10
20570.0 4.0084e-10
20590.0 4.0005e-10
20610.0 3.9927e-10
20630.0 3.9853e-10
20650.0 3.978e-10
20670.0 3.9705e-10
20690.0 3.9633e-10
20710.0 3.9561e-10
20730.0 3.9487e-10
20750.0 3.9409e-10
20770.0 3.9331e-10
20790.0 3.9247e-10
20810.0 3.9155e-10
20830.0 3.9059e-10
20850.0 3.8957e-10
20870.0 3.8844e-10
20890.0 3.8722e-10
20910.0 3.8598e-10
20930.0 3.8465e-10
20950.0 3.8321e-10
20970.0 3.8176e-10
20990.0 3.8028e-10
21010.0 3.7869e-10
21030.0 3.7708e-10
21050.0 3.755e-10
21070.0 3.7388e-10
21090.0 3.7221e-10
21110.0 3.7061e-10
21130.0 3.6902e-10
21150.0 3.674e-10
21170.0 3.6579e-10
21190.0 3.6424e-10
21210.0 3.6264e-10
21230.0 3.61e-10
21250.0 3.5941e-10
21270.0 3.5781e-10
21290.0 3.5613e-10
21310.0 3.5443e-10
21330.0 3.5276e-10
21350.0 3.51e-10
21370.0 3.4917e-10
21390.0 3.4781e-10
21410.0 3.4643e-10
21430.0 3.4493e-10
21450.0 3.4344e-10
21470.0 3.4197e-10
21490.0 3.4042e-10
21510.0 3.3882e-10
21530.0 3.3726e-10
21550.0 3.3568e-10
21570.0 3.3401e-10
21590.0 3.3237e-10
21610.0 3.3076e-10
21630.0 3.291e-10
21650.0 3.2738e-10
21670.0 3.2579e-10
21690.0 3.2418e-10
21710.0 3.2252e-10
21730.0 3.2091e-10
21750.0 3.1937e-10
21770.0 3.1773e-10
21790.0 3.1612e-10
21810.0 3.1457e-10
21830.0 3.1302e-10
21850.0 3.1141e-10
21870.0 3.0985e-10
21890.0 3.0836e-10
21910.0 3.068e-10
21930.0 3.0525e-10
21950.0 3.0378e-10
21970.0 3.0231e-10
21990.0 3.0077e-10
22010.0 2.9935e-10
22030.0 2.9799e-10
22050.0 2.9662e-10
22070.0 2.9517e-10
22090.0 2.9361e-10
22110.0 2.9207e-10
22130.0 2.9055e-10
22150.0 2.8915e-10
22170.0 2.8782e-10
22190.0 2.8651e-10
22210.0 2.8527e-10
22230.0 2.8414e-10
22250.0 2.8304e-10
22270.0 2.8197e-10
22290.0 2.8097e-10
22310.0 2.8002e-10
22330.0 2.7906e-10
22350.0 2.7813e-10
22370.0 2.7724e-10
22390.0 2.7634e-10
22410.0 2.7542e-10
22430.0 2.7454e-10
22450.0 2.7365e-10
22470.0 2.7273e-10
22490.0 2.7181e-10
22510.0 2.7091e-10
22530.0 2.6996e-10
22550.0 2.6899e-10
22570.0 2.6806e-10
22590.0 2.6712e-10
22610.0 2.6615e-10
22630.0 2.6521e-10
