#lamb flux
1010.0 8.4288e-05
1030.0 9.4878e-05
1050.0 0.00010584
1070.0 0.00011823
1090.0 0.00013273
1110.0 0.00014766
1130.0 0.00016276
1150.0 0.00017871
1170.0 0.00019535
1190.0 0.00021146
1210.0 0.00022813
1230.0 0.00024576
1250.0 0.00026349
1270.0 0.00028135
1290.0 0.00030071
1310.0 0.00032074
1330.0 0.00034076
1350.0 0.00036161
1370.0 0.00038364
1390.0 0.00040582
1410.0 0.00042798
1430.0 0.00045134
1450.0 0.00047504
1470.0 0.00049839
1490.0 0.00052208
1510.0 0.00054686
1530.0 0.0005706
1550.0 0.00059396
1570.0 0.00061772
1590.0 0.00064118
1610.0 0.00066334
1630.0 0.00068541
1650.0 0.00070737
1670.0 0.00072798
1690.0 0.00074756
1710.0 0.00076701
1730.0 0.00078565
1750.0 0.00080215
1770.0 0.0008182
1790.0 0.00083362
1810.0 0.0008474
1830.0 0.00085987
1850.0 0.00087249
1870.0 0.00088367
1890.0 0.00089336
1910.0 0.00090258
1930.0 0.00091146
1950.0 0.00091878
1970.0 0.00092524
1990.0 0.00093169
2010.0 0.0009372
2030.0 0.00094148
2050.0 0.0009456
2070.0 0.00094943
2090.0 0.00095153
2110.0 0.00095279
2130.0 0.00095361
2150.0 0.00095314
2170.0 0.00095098
2190.0 0.00094825
2210.0 0.00094441
2230.0 0.00093875
2250.0 0.00093177
2270.0 0.0009241
2290.0 0.00091469
2310.0 0.00090347
2330.0 0.00089141
2350.0 0.00087821
2370.0 0.00086331
2390.0 0.00084736
2410.0 0.00083066
2430.0 0.00081229
2450.0 0.00079228
2470.0 0.00077096
2490.0 0.00074812
2510.0 0.00072392
2530.0 0.00070002
2550.0 0.00067885
2570.0 0.00066344
2590.0 0.00065697
2610.0 0.00066599
2630.0 0.0006923
2650.0 0.00073246
2670.0 0.00078629
2690.0 0.00084979
2710.0 0.00090886
2730.0 0.00095581
2750.0 0.00098916
2770.0 0.00099872
2790.0 0.000982
2810.0 0.00094144
2830.0 0.00087682
2850.0 0.00079431
2870.0 0.00069875
2890.0 0.00059119
2910.0 0.00047663
2930.0 0.00036098
2950.0 0.00023989
2970.0 0.00011501
2990.0 5.7498e-05
3010.0 0.0001269
3030.0 0.0001269
3050.0 0.0001269
3070.0 0.0001269
3090.0 0.0001269
3110.0 0.0001269
3130.0 0.0001269
3150.0 0.0001269
3170.0 0.0001269
3190.0 0.0001269
3210.0 0.0001269
3230.0 0.0034558
3250.0 0.0068698
3270.0 0.0068735
3290.0 0.0074064
3310.0 0.005832
3330.0 0.0058264
3350.0 0.0064664
3370.0 0.0073842
3390.0 0.0084197
3410.0 0.0095284
3430.0 0.010943
3450.0 0.012378
3470.0 0.013877
3490.0 0.014701
3510.0 0.014298
3530.0 0.014482
3550.0 0.015266
3570.0 0.015375
3590.0 0.016393
3610.0 0.015685
3630.0 0.019417
3650.0 0.021784
3670.0 0.023269
3690.0 0.02198
3710.0 0.018086
3730.0 0.016977
3750.0 0.015312
3770.0 0.014144
3790.0 0.012833
3810.0 0.012398
3830.0 0.014252
3850.0 0.0062626
3870.0 0.011516
3890.0 0.013606
3910.0 0.015321
3930.0 0.019061
3950.0 0.020721
3970.0 0.024163
3990.0 0.029621
4010.0 0.022267
4030.0 0.018449
4050.0 0.014001
4070.0 0.0144
4090.0 0.022602
4110.0 0.021447
4130.0 0.023122
4150.0 0.021779
4170.0 0.020737
4190.0 0.018864
4210.0 0.027392
4230.0 0.028557
4250.0 0.031058
4270.0 0.029155
4290.0 0.029439
4310.0 0.033034
4330.0 0.038876
4350.0 0.039022
4370.0 0.037998
4390.0 0.033985
4410.0 0.031637
4430.0 0.024851
4450.0 0.020795
4470.0 0.023171
4490.0 0.027619
4510.0 0.028604
4530.0 0.029467
4550.0 0.030578
4570.0 0.043293
4590.0 0.064012
4610.0 0.075247
4630.0 0.075461
4650.0 0.079019
4670.0 0.090491
4690.0 0.098875
4710.0 0.081449
4730.0 0.062061
4750.0 0.049276
4770.0 0.04352
4790.0 0.040793
4810.0 0.0389
4830.0 0.042978
4850.0 0.049799
4870.0 0.054347
4890.0 0.056699
4910.0 0.052235
4930.0 0.055604
4950.0 0.068601
4970.0 0.081754
4990.0 0.085398
5010.0 0.078783
5030.0 0.065479
5050.0 0.049914
5070.0 0.039456
5090.0 0.035391
5110.0 0.034617
5130.0 0.035329
5150.0 0.035214
5170.0 0.033697
5190.0 0.031839
5210.0 0.031037
5230.0 0.034601
5250.0 0.039869
5270.0 0.047228
5290.0 0.054195
5310.0 0.056987
5330.0 0.061455
5350.0 0.067893
5370.0 0.071216
5390.0 0.064478
5410.0 0.056874
5430.0 0.054777
5450.0 0.063151
5470.0 0.078106
5490.0 0.091303
5510.0 0.096972
5530.0 0.095011
5550.0 0.089993
5570.0 0.086643
5590.0 0.08323
5610.0 0.081667
5630.0 0.0806
5650.0 0.080029
5670.0 0.078878
5690.0 0.071993
5710.0 0.060083
5730.0 0.052906
5750.0 0.049651
5770.0 0.050165
5790.0 0.051462
5810.0 0.053271
5830.0 0.053812
5850.0 0.050757
5870.0 0.047033
5890.0 0.044516
5910.0 0.045299
5930.0 0.047005
5950.0 0.043804
5970.0 0.038329
5990.0 0.031545
6010.0 0.025341
6030.0 0.023017
6050.0 0.024647
6070.0 0.026443
6090.0 0.025747
6110.0 0.022728
6130.0 0.022949
6150.0 0.026555
6170.0 0.030833
6190.0 0.034342
6210.0 0.034803
6230.0 0.034077
6250.0 0.031212
6270.0 0.026308
6290.0 0.021811
6310.0 0.019203
6330.0 0.01862
6350.0 0.019064
6370.0 0.019176
6390.0 0.0211
6410.0 0.026078
6430.0 0.032705
6450.0 0.03754
6470.0 0.039
6490.0 0.03845
6510.0 0.039301
6530.0 0.040797
6550.0 0.040444
6570.0 0.041932
6590.0 0.042765
6610.0 0.043526
6630.0 0.043274
6650.0 0.040837
6670.0 0.037345
6690.0 0.033544
6710.0 0.031383
6730.0 0.031301
6750.0 0.032348
6770.0 0.033317
6790.0 0.034248
6810.0 0.034856
6830.0 0.034148
6850.0 0.0327
6870.0 0.030678
6890.0 0.029956
6910.0 0.028726
6930.0 0.029614
6950.0 0.031625
6970.0 0.032546
6990.0 0.033307
7010.0 0.032503
7030.0 0.029984
7050.0 0.026466
7070.0 0.02322
7090.0 0.021252
7110.0 0.020977
7130.0 0.020924
7150.0 0.019025
7170.0 0.017925
7190.0 0.019245
7210.0 0.021955
7230.0 0.025433
7250.0 0.02723
7270.0 0.027164
7290.0 0.024999
7310.0 0.022917
7330.0 0.021767
7350.0 0.021754
7370.0 0.022217
7390.0 0.023194
7410.0 0.025532
7430.0 0.029615
7450.0 0.033732
7470.0 0.035994
7490.0 0.035628
7510.0 0.033621
7530.0 0.028872
7550.0 0.026123
7570.0 0.023249
7590.0 0.021935
7610.0 0.022917
7630.0 0.025334
7650.0 0.028491
7670.0 0.031571
7690.0 0.033715
7710.0 0.036133
7730.0 0.038738
7750.0 0.04106
7770.0 0.040967
7790.0 0.041438
7810.0 0.042654
7830.0 0.043244
7850.0 0.042217
7870.0 0.04093
7890.0 0.041009
7910.0 0.039627
7930.0 0.039304
7950.0 0.037478
7970.0 0.036803
7990.0 0.03585
8010.0 0.037098
8030.0 0.037601
8050.0 0.03817
8070.0 0.03797
8090.0 0.037966
8110.0 0.036667
8130.0 0.036739
8150.0 0.036358
8170.0 0.035559
8190.0 0.035041
8210.0 0.035221
8230.0 0.034388
8250.0 0.03358
8270.0 0.030255
8290.0 0.024626
8310.0 0.018438
8330.0 0.014125
8350.0 0.01315
8370.0 0.015792
8390.0 0.019324
8410.0 0.021126
8430.0 0.021939
8450.0 0.023125
8470.0 0.024738
8490.0 0.027783
8510.0 0.031846
8530.0 0.036953
8550.0 0.042068
8570.0 0.046502
8590.0 0.050018
8610.0 0.052272
8630.0 0.05288
8650.0 0.052733
8670.0 0.052922
8690.0 0.055563
8710.0 0.058938
8730.0 0.061464
8750.0 0.061379
8770.0 0.062347
8790.0 0.062178
8810.0 0.058439
8830.0 0.055559
8850.0 0.051526
8870.0 0.048258
8890.0 0.047137
8910.0 0.047516
8930.0 0.045105
8950.0 0.04248
8970.0 0.041471
8990.0 0.041135
9010.0 0.0396
9030.0 0.038705
9050.0 0.038399
9070.0 0.038258
9090.0 0.038134
9110.0 0.038014
9130.0 0.037893
9150.0 0.037773
9170.0 0.037633
9190.0 0.037521
9210.0 0.037592
9230.0 0.037401
9250.0 0.037244
9270.0 0.037105
9290.0 0.036979
9310.0 0.036856
9330.0 0.036737
9350.0 0.036627
9370.0 0.036517
9390.0 0.036404
9410.0 0.036295
9430.0 0.036184
9450.0 0.036032
9470.0 0.035894
9490.0 0.035827
9510.0 0.035739
9530.0 0.035645
9550.0 0.035548
9570.0 0.035449
9590.0 0.035347
9610.0 0.035245
9630.0 0.035144
9650.0 0.035043
9670.0 0.03494
9690.0 0.034839
9710.0 0.034739
9730.0 0.034637
9750.0 0.034536
9770.0 0.034436
9790.0 0.034335
9810.0 0.034234
9830.0 0.034133
9850.0 0.034033
9870.0 0.033931
9890.0 0.033828
9910.0 0.033726
9930.0 0.033619
9950.0 0.033242
9970.0 0.033219
9990.0 0.03318
10010.0 0.033131
10030.0 0.033059
10050.0 0.032968
10070.0 0.032872
10090.0 0.032777
10110.0 0.032664
10130.0 0.032558
10150.0 0.03245
10170.0 0.032334
10190.0 0.032206
10210.0 0.03209
10230.0 0.031977
10250.0 0.031852
10270.0 0.031727
10290.0 0.03161
10310.0 0.031481
10330.0 0.031343
10350.0 0.031215
10370.0 0.031086
10390.0 0.030945
10410.0 0.030804
10430.0 0.030672
10450.0 0.030528
10470.0 0.030377
10490.0 0.030232
10510.0 0.030086
10530.0 0.029921
10550.0 0.029761
10570.0 0.029608
10590.0 0.029444
10610.0 0.029271
10630.0 0.029108
10650.0 0.02894
10670.0 0.028756
10690.0 0.028575
10710.0 0.028398
10730.0 0.028209
10750.0 0.028007
10770.0 0.027822
10790.0 0.027629
10810.0 0.027422
10830.0 0.027217
10850.0 0.02702
10870.0 0.026798
10890.0 0.026572
10910.0 0.026353
10930.0 0.026122
10950.0 0.025869
10970.0 0.025612
10990.0 0.025355
11010.0 0.026166
11030.0 0.02585
11050.0 0.025542
11070.0 0.02523
11090.0 0.024898
11110.0 0.024594
11130.0 0.024304
11150.0 0.02401
11170.0 0.023724
11190.0 0.02346
11210.0 0.023194
11230.0 0.022922
11250.0 0.022664
11270.0 0.022414
11290.0 0.022152
11310.0 0.021891
11330.0 0.021647
11350.0 0.021395
11370.0 0.021133
11390.0 0.020878
11410.0 0.020621
11430.0 0.02034
11450.0 0.020053
11470.0 0.019765
11490.0 0.019456
11510.0 0.019121
11530.0 0.018786
11550.0 0.01844
11570.0 0.018066
11590.0 0.017682
11610.0 0.017302
11630.0 0.0169
11650.0 0.016482
11670.0 0.016082
11690.0 0.015683
11710.0 0.015275
11730.0 0.014879
11750.0 0.014507
11770.0 0.014132
11790.0 0.013764
11810.0 0.013421
11830.0 0.013093
11850.0 0.012761
11870.0 0.012453
11890.0 0.012167
11910.0 0.011885
11930.0 0.011611
11950.0 0.011359
11970.0 0.011114
11990.0 0.010869
12010.0 0.010641
12030.0 0.010427
12050.0 0.010217
12070.0 0.010015
12090.0 0.009836
12110.0 0.0096668
12130.0 0.0095073
12150.0 0.0093664
12170.0 0.0092446
12190.0 0.0091338
12210.0 0.0090431
12230.0 0.0089738
12250.0 0.0089226
12270.0 0.0088907
12290.0 0.0088793
12310.0 0.0088862
12330.0 0.0089133
12350.0 0.0089596
12370.0 0.0090212
12390.0 0.0091004
12410.0 0.0092023
12430.0 0.0093127
12450.0 0.0094342
12470.0 0.0095718
12490.0 0.0097186
12510.0 0.009864
12530.0 0.010018
12550.0 0.010176
12570.0 0.010324
12590.0 0.010464
12610.0 0.010598
12630.0 0.010716
12650.0 0.010809
12670.0 0.010884
12690.0 0.010936
12710.0 0.01096
12730.0 0.010959
12750.0 0.010933
12770.0 0.010879
12790.0 0.010804
12810.0 0.010706
12830.0 0.010588
12850.0 0.010459
12870.0 0.010319
12890.0 0.010168
12910.0 0.010013
12930.0 0.0098617
12950.0 0.0097061
12970.0 0.0095508
12990.0 0.0094061
13010.0 0.0092661
13030.0 0.0091276
13050.0 0.0089962
13070.0 0.0088733
13090.0 0.0087501
13110.0 0.0086293
13130.0 0.0085143
13150.0 0.0084008
13170.0 0.0082841
13190.0 0.0081717
13210.0 0.0080637
13230.0 0.0079549
13250.0 0.0078484
13270.0 0.0077497
13290.0 0.0076555
13310.0 0.0075659
13330.0 0.0074876
13350.0 0.0074206
13370.0 0.0073634
13390.0 0.007318
13410.0 0.0072857
13430.0 0.0072631
13450.0 0.0072493
13470.0 0.007242
13490.0 0.0072378
13510.0 0.0072346
13530.0 0.0072283
13550.0 0.0072156
13570.0 0.0071945
13590.0 0.0071619
13610.0 0.0071178
13630.0 0.0070627
13650.0 0.0069937
13670.0 0.0069135
13690.0 0.0068267
13710.0 0.0067318
13730.0 0.0066278
13750.0 0.0065272
13770.0 0.0064279
13790.0 0.0063288
13810.0 0.0062351
13830.0 0.0061512
13850.0 0.0060722
13870.0 0.0060001
13890.0 0.0059383
13910.0 0.0058846
13930.0 0.0058366
13950.0 0.0057956
13970.0 0.0057616
13990.0 0.005731
14010.0 0.0057033
14030.0 0.0056783
14050.0 0.0056544
14070.0 0.0056294
14090.0 0.0056038
14110.0 0.0055768
14130.0 0.0055467
14150.0 0.0055127
14170.0 0.0054766
14190.0 0.0054374
14210.0 0.0053937
14230.0 0.0053479
14250.0 0.0053015
14270.0 0.0052523
14290.0 0.0052023
14310.0 0.0051558
14330.0 0.0051113
14350.0 0.0050688
14370.0 0.0050314
14390.0 0.0049997
14410.0 0.004972
14430.0 0.0049497
14450.0 0.0049332
14470.0 0.0049214
14490.0 0.0049139
14510.0 0.0049106
14530.0 0.0049107
14550.0 0.0049139
14570.0 0.00492
14590.0 0.0049287
14610.0 0.0049404
14630.0 0.0049561
14650.0 0.0049752
14670.0 0.0049979
14690.0 0.0050262
14710.0 0.0050602
14730.0 0.0050974
14750.0 0.0051407
14770.0 0.0051911
14790.0 0.0052462
14810.0 0.0053059
14830.0 0.0053765
14850.0 0.0054533
14870.0 0.0055343
14890.0 0.0056232
14910.0 0.0057199
14930.0 0.0058158
14950.0 0.0059085
14970.0 0.0059997
14990.0 0.0060798
15010.0 0.0061448
15030.0 0.0061968
15050.0 0.0062359
15070.0 0.0062607
15090.0 0.0062768
15110.0 0.0062869
15130.0 0.006293
15150.0 0.0062969
15170.0 0.0062998
15190.0 0.0063023
15210.0 0.0063047
15230.0 0.0063071
15250.0 0.0063096
15270.0 0.0063121
15290.0 0.0063149
15310.0 0.0063177
15330.0 0.0063206
15350.0 0.0063237
15370.0 0.0063269
15390.0 0.00633
15410.0 0.0063333
15430.0 0.0063367
15450.0 0.0063402
15470.0 0.0063437
15490.0 0.0063474
15510.0 0.0063512
15530.0 0.006355
15550.0 0.0063588
15570.0 0.0063628
15590.0 0.0063668
15610.0 0.0063708
15630.0 0.006375
15650.0 0.0063792
15670.0 0.0063833
15690.0 0.0063876
15710.0 0.006392
15730.0 0.0063963
15750.0 0.0064006
15770.0 0.0064051
15790.0 0.0064096
15810.0 0.006414
15830.0 0.0064185
15850.0 0.006423
15870.0 0.0064275
15890.0 0.0064321
15910.0 0.0064367
15930.0 0.0064412
15950.0 0.0064457
15970.0 0.0064503
15990.0 0.0064548
16010.0 0.0064593
16030.0 0.0064638
16050.0 0.0064684
16070.0 0.0064728
16090.0 0.0064772
16110.0 0.0064817
16130.0 0.0064861
16150.0 0.0064904
16170.0 0.0064946
16190.0 0.0064989
16210.0 0.0065031
16230.0 0.0065072
16250.0 0.0065113
16270.0 0.0065154
16290.0 0.0065193
16310.0 0.0065231
16330.0 0.006527
16350.0 0.0065307
16370.0 0.0065342
16390.0 0.0065378
16410.0 0.0065413
16430.0 0.0065446
16450.0 0.0065479
16470.0 0.0065511
16490.0 0.0065541
16510.0 0.006557
16530.0 0.0065599
16550.0 0.0065626
16570.0 0.0065651
16590.0 0.0065675
16610.0 0.0065699
16630.0 0.006572
16650.0 0.006574
16670.0 0.0065759
16690.0 0.0065777
16710.0 0.0065791
16730.0 0.0065806
16750.0 0.0065819
16770.0 0.0065829
16790.0 0.0065838
16810.0 0.0065846
16830.0 0.0065852
16850.0 0.0065855
16870.0 0.0065857
16890.0 0.0065858
16910.0 0.0065855
16930.0 0.0065851
16950.0 0.0065845
16970.0 0.0065838
16990.0 0.0065828
17010.0 0.0065816
17030.0 0.0065802
17050.0 0.0065786
17070.0 0.0065767
17090.0 0.0065747
17110.0 0.0065724
17130.0 0.0065698
17150.0 0.0065671
17170.0 0.0065642
17190.0 0.0065609
17210.0 0.0065575
17230.0 0.0065539
17250.0 0.0065499
17270.0 0.0065457
17290.0 0.0065413
17310.0 0.0065367
17330.0 0.0065317
17350.0 0.0065265
17370.0 0.0065212
17390.0 0.0065155
17410.0 0.0065096
17430.0 0.0065034
17450.0 0.0064971
17470.0 0.0064903
17490.0 0.0064833
17510.0 0.0064761
17530.0 0.0064687
17550.0 0.0064609
17570.0 0.0064529
17590.0 0.0064447
17610.0 0.0064362
17630.0 0.0064274
17650.0 0.0064184
17670.0 0.0064091
17690.0 0.0063994
17710.0 0.0063896
17730.0 0.0063796
17750.0 0.0063692
17770.0 0.0063586
17790.0 0.0063478
17810.0 0.0063366
17830.0 0.0063252
17850.0 0.0063136
17870.0 0.0063018
17890.0 0.0062895
17910.0 0.0062771
17930.0 0.0062646
17950.0 0.0062517
17970.0 0.0062385
17990.0 0.0062252
18010.0 0.0062116
18030.0 0.0061976
18050.0 0.0061835
18070.0 0.0061692
18090.0 0.0061547
18110.0 0.0061398
18130.0 0.0061249
18150.0 0.0061096
18170.0 0.0060941
18190.0 0.0060785
18210.0 0.0060626
18230.0 0.0060465
18250.0 0.0060301
18270.0 0.0060136
18290.0 0.0059969
18310.0 0.0059799
18330.0 0.0059628
18350.0 0.0059456
18370.0 0.005928
18390.0 0.0059103
18410.0 0.0058925
18430.0 0.0058744
18450.0 0.0058561
18470.0 0.0058378
18490.0 0.0058193
18510.0 0.0058005
18530.0 0.0057816
18550.0 0.0057627
18570.0 0.0057435
18590.0 0.0057241
18610.0 0.0057047
18630.0 0.0056851
18650.0 0.0056653
18670.0 0.0056454
18690.0 0.0056255
18710.0 0.0056054
18730.0 0.0055851
18750.0 0.0055648
18770.0 0.0055444
18790.0 0.0055238
18810.0 0.0055031
18830.0 0.0054825
18850.0 0.0054616
18870.0 0.0054407
18890.0 0.0054197
18910.0 0.0053987
18930.0 0.0053775
18950.0 0.0053562
18970.0 0.005335
18990.0 0.0053136
19010.0 0.0052921
19030.0 0.0052707
19050.0 0.0052492
19070.0 0.0052277
19090.0 0.0052061
19110.0 0.0051845
19130.0 0.0051628
19150.0 0.0051411
19170.0 0.0051194
19190.0 0.0050977
19210.0 0.0050758
19230.0 0.0050541
19250.0 0.0050323
19270.0 0.0050105
19290.0 0.0049887
19310.0 0.004967
19330.0 0.0049452
19350.0 0.0049233
19370.0 0.0049016
19390.0 0.0048799
19410.0 0.0048581
19430.0 0.0048363
19450.0 0.0048147
19470.0 0.004793
19490.0 0.0047714
19510.0 0.0047498
19530.0 0.0047283
19550.0 0.0047067
19570.0 0.0046851
19590.0 0.0046638
19610.0 0.0046424
19630.0 0.004621
19650.0 0.0045997
19670.0 0.0045785
19690.0 0.0045573
19710.0 0.0045362
19730.0 0.0045152
19750.0 0.0044942
19770.0 0.0044732
19790.0 0.0044523
19810.0 0.0044315
19830.0 0.0044107
19850.0 0.0043897
19870.0 0.0043685
19890.0 0.0043464
19910.0 0.0043227
19930.0 0.0042965
19950.0 0.0042667
19970.0 0.0042309
19990.0 0.0041881
20010.0 0.0041393
20030.0 0.0040818
20050.0 0.0040161
20070.0 0.0039461
20090.0 0.0038724
20110.0 0.0037924
20130.0 0.0037133
20150.0 0.0036364
20170.0 0.0035591
20190.0 0.0034825
20210.0 0.0034108
20230.0 0.0033413
20250.0 0.0032723
20270.0 0.0032073
20290.0 0.0031463
20310.0 0.0030866
20330.0 0.0030282
20350.0 0.0029754
20370.0 0.0029244
20390.0 0.0028748
20410.0 0.0028282
20430.0 0.002785
20450.0 0.0027424
20470.0 0.0027023
20490.0 0.0026655
20510.0 0.0026309
20530.0 0.0025979
20550.0 0.0025679
20570.0 0.002541
20590.0 0.0025158
20610.0 0.0024931
20630.0 0.0024732
20650.0 0.0024554
20670.0 0.0024397
20690.0 0.0024263
20710.0 0.0024149
20730.0 0.0024053
20750.0 0.0023974
20770.0 0.0023907
20790.0 0.0023853
20810.0 0.002381
20830.0 0.0023773
20850.0 0.0023739
20870.0 0.0023711
20890.0 0.0023683
20910.0 0.0023649
20930.0 0.0023611
20950.0 0.0023568
20970.0 0.0023514
20990.0 0.0023449
21010.0 0.0023373
21030.0 0.0023284
21050.0 0.0023181
21070.0 0.0023063
21090.0 0.002293
21110.0 0.0022784
21130.0 0.0022625
21150.0 0.0022451
21170.0 0.0022265
21190.0 0.0022073
21210.0 0.0021866
21230.0 0.0021647
21250.0 0.0021426
21270.0 0.00212
21290.0 0.0020964
21310.0 0.0020726
21330.0 0.0020493
21350.0 0.0020255
21370.0 0.0020015
21390.0 0.0019784
21410.0 0.0019558
21430.0 0.0019329
21450.0 0.0019115
21470.0 0.0018914
21490.0 0.001872
21510.0 0.0018539
21530.0 0.0018376
21550.0 0.0018228
21570.0 0.0018093
21590.0 0.0017978
21610.0 0.0017881
21630.0 0.0017801
21650.0 0.0017739
21670.0 0.0017695
21690.0 0.0017667
21710.0 0.0017656
21730.0 0.0017657
21750.0 0.0017669
21770.0 0.0017695
21790.0 0.001773
21810.0 0.0017768
21830.0 0.0017812
21850.0 0.0017861
21870.0 0.0017907
21890.0 0.0017949
21910.0 0.0017991
21930.0 0.0018027
21950.0 0.0018054
21970.0 0.0018076
21990.0 0.0018092
22010.0 0.0018096
22030.0 0.0018091
22050.0 0.0018079
22070.0 0.0018057
22090.0 0.0018027
22110.0 0.0017989
22130.0 0.0017944
22150.0 0.0017893
22170.0 0.0017836
22190.0 0.0017773
22210.0 0.0017704
22230.0 0.0017631
22250.0 0.0017554
22270.0 0.001747
22290.0 0.0017383
22310.0 0.0017291
22330.0 0.0017191
22350.0 0.0017085
22370.0 0.0016974
22390.0 0.0016854
22410.0 0.0016722
22430.0 0.0016585
22450.0 0.0016439
22470.0 0.001628
22490.0 0.001611
22510.0 0.0015935
22530.0 0.0015744
22550.0 0.0015541
22570.0 0.0015335
22590.0 0.0015122
22610.0 0.0014896
22630.0 0.0014668
22650.0 0.0014445
22670.0 0.0014215
22690.0 0.0013983
22710.0 0.001376
22730.0 0.0013543
22750.0 0.0013322
22770.0 0.0013116
22790.0 0.0012923
22810.0 0.0012737
22830.0 0.0012559
22850.0 0.0012399
22870.0 0.0012249
22890.0 0.0012105
22910.0 0.0011976
22930.0 0.0011859
22950.0 0.0011749
22970.0 0.0011646
22990.0 0.0011555
23010.0 0.0011468
23030.0 0.0011385
23050.0 0.0011308
23070.0 0.0011234
23090.0 0.0011159
23110.0 0.0011084
23130.0 0.001101
23150.0 0.0010934
23170.0 0.0010854
23190.0 0.0010774
23210.0 0.0010693
23230.0 0.0010607
23250.0 0.0010521
23270.0 0.0010435
23290.0 0.0010349
23310.0 0.001026
23330.0 0.0010176
23350.0 0.0010094
23370.0 0.0010013
23390.0 0.00099355
23410.0 0.0009863
23430.0 0.00097919
23450.0 0.00097223
23470.0 0.00096566
23490.0 0.00095933
23510.0 0.00095296
23530.0 0.00094675
23550.0 0.00094082
23570.0 0.00093484
23590.0 0.00092883
23610.0 0.00092301
23630.0 0.00091728
23650.0 0.00091145
23670.0 0.00090584
23690.0 0.00090052
23710.0 0.00089539
23730.0 0.00089056
23750.0 0.00088633
23770.0 0.00088267
23790.0 0.00087968
23810.0 0.00087758
23830.0 0.00087643
23850.0 0.00087646
23870.0 0.00087787
23890.0 0.00088052
23910.0 0.00088458
23930.0 0.00089039
23950.0 0.0008976
23970.0 0.00090584
23990.0 0.00091582
24010.0 0.00092716
24030.0 0.00093911
24050.0 0.00095194
24070.0 0.00096636
24090.0 0.00098068
24110.0 0.00099494
24130.0 0.0010099
24150.0 0.0010252
