#lamb flux
1010.0 1.2296e-06
1030.0 1.2296e-06
1050.0 1.2296e-06
1070.0 1.2296e-06
1090.0 1.2296e-06
1110.0 1.2296e-06
1130.0 1.2296e-06
1150.0 1.2296e-06
1170.0 1.2296e-06
1190.0 1.2296e-06
1210.0 1.2296e-06
1230.0 1.2296e-06
1250.0 1.2296e-06
1270.0 1.2296e-06
1290.0 1.2296e-06
1310.0 1.2296e-06
1330.0 1.2296e-06
1350.0 1.2296e-06
1370.0 1.2296e-06
1390.0 1.2296e-06
1410.0 1.2296e-06
1430.0 1.2296e-06
1450.0 1.3635e-06
1470.0 1.5496e-06
1490.0 1.7592e-06
1510.0 1.9961e-06
1530.0 2.2537e-06
1550.0 2.5355e-06
1570.0 2.8472e-06
1590.0 3.1886e-06
1610.0 3.5554e-06
1630.0 3.9519e-06
1650.0 4.3874e-06
1670.0 4.8567e-06
1690.0 5.3637e-06
1710.0 5.9176e-06
1730.0 6.516e-06
1750.0 7.1477e-06
1770.0 7.8271e-06
1790.0 8.5531e-06
1810.0 9.3133e-06
1830.0 1.0107e-05
1850.0 1.0947e-05
1870.0 1.1811e-05
1890.0 1.2688e-05
1910.0 1.3585e-05
1930.0 1.4498e-05
1950.0 1.5397e-05
1970.0 1.6282e-05
1990.0 1.716e-05
2010.0 1.8005e-05
2030.0 1.8802e-05
2050.0 1.9565e-05
2070.0 2.0284e-05
2090.0 2.0925e-05
2110.0 2.1501e-05
2130.0 2.202e-05
2150.0 2.246e-05
2170.0 2.2813e-05
2190.0 2.3106e-05
2210.0 2.3329e-05
2230.0 2.3469e-05
2250.0 2.354e-05
2270.0 2.3564e-05
2290.0 2.3519e-05
2310.0 2.3407e-05
2330.0 2.3259e-05
2350.0 2.3072e-05
2370.0 2.2837e-05
2390.0 2.2579e-05
2410.0 2.2314e-05
2430.0 2.2028e-05
2450.0 2.173e-05
2470.0 2.1446e-05
2490.0 2.1185e-05
2510.0 2.0941e-05
2530.0 2.0775e-05
2550.0 2.0769e-05
2570.0 2.0993e-05
2590.0 2.1538e-05
2610.0 2.265e-05
2630.0 2.4382e-05
2650.0 2.6633e-05
2670.0 2.9479e-05
2690.0 3.2889e-05
2710.0 3.6467e-05
2730.0 4.0063e-05
2750.0 4.3872e-05
2770.0 4.765e-05
2790.0 5.1297e-05
2810.0 5.5063e-05
2830.0 5.9166e-05
2850.0 6.3213e-05
2870.0 6.7426e-05
2890.0 7.2009e-05
2910.0 7.6823e-05
2930.0 8.169e-05
2950.0 8.6966e-05
2970.0 9.2611e-05
2990.0 9.838e-05
3010.0 0.00010439
3030.0 0.00011084
3050.0 0.00011754
3070.0 0.0001241
3090.0 0.00013078
3110.0 0.00013719
3130.0 0.00014281
3150.0 0.00014742
3170.0 0.00015069
3190.0 0.00015219
3210.0 0.00015162
3230.0 0.00014962
3250.0 0.00014887
3270.0 0.0001509
3290.0 0.00015488
3310.0 0.00015983
3330.0 0.00016594
3350.0 0.00017282
3370.0 0.00018058
3390.0 0.00018963
3410.0 0.00019823
3430.0 0.00021163
3450.0 0.00022232
3470.0 0.00023353
3490.0 0.00024303
3510.0 0.00025455
3530.0 0.0002927
3550.0 0.00034601
3570.0 0.00037855
3590.0 0.00039278
3610.0 0.00039424
3630.0 0.00038215
3650.0 0.00041299
3670.0 0.0004912
3690.0 0.0005531
3710.0 0.00058598
3730.0 0.00061338
3750.0 0.00064349
3770.0 0.00063821
3790.0 0.00060457
3810.0 0.00056609
3830.0 0.00052736
3850.0 0.00052368
3870.0 0.00056688
3890.0 0.00061176
3910.0 0.00064273
3930.0 0.00066234
3950.0 0.00072057
3970.0 0.00077479
3990.0 0.00074042
4010.0 0.0006514
4030.0 0.00057059
4050.0 0.00054638
4070.0 0.00056018
4090.0 0.00056034
4110.0 0.00054797
4130.0 0.00053889
4150.0 0.00054448
4170.0 0.00059328
4190.0 0.00065151
4210.0 0.00064421
4230.0 0.00060939
4250.0 0.00059402
4270.0 0.00059363
4290.0 0.00061904
4310.0 0.00064621
4330.0 0.00061522
4350.0 0.00053374
4370.0 0.00046728
4390.0 0.00041995
4410.0 0.00037969
4430.0 0.00037745
4450.0 0.00040969
4470.0 0.0004381
4490.0 0.00047586
4510.0 0.00054445
4530.0 0.00068875
4550.0 0.00087515
4570.0 0.00098673
4590.0 0.0010519
4610.0 0.0011553
4630.0 0.0012296
4650.0 0.0011501
4670.0 0.00094295
4690.0 0.00077159
4710.0 0.00070149
4730.0 0.00068089
4750.0 0.00062772
4770.0 0.00058214
4790.0 0.00061163
4810.0 0.00066879
4830.0 0.00067537
4850.0 0.00063112
4870.0 0.00061238
4890.0 0.00065324
4910.0 0.0006949
4930.0 0.00070007
4950.0 0.00067597
4970.0 0.00063362
4990.0 0.0005728
5010.0 0.00051859
5030.0 0.00048705
5050.0 0.00047252
5070.0 0.00046086
5090.0 0.00044726
5110.0 0.00044334
5130.0 0.00044605
5150.0 0.00046694
5170.0 0.00051892
5190.0 0.00058508
5210.0 0.00066154
5230.0 0.00071366
5250.0 0.00074206
5270.0 0.00078589
5290.0 0.00083773
5310.0 0.00085969
5330.0 0.00083091
5350.0 0.00078766
5370.0 0.00078889
5390.0 0.00084825
5410.0 0.00092307
5430.0 0.00097098
5450.0 0.00098425
5470.0 0.00096629
5490.0 0.00093255
5510.0 0.00091098
5530.0 0.0009096
5550.0 0.00091926
5570.0 0.0009252
5590.0 0.00090661
5610.0 0.00086835
5630.0 0.00081406
5650.0 0.00075606
5670.0 0.00072112
5690.0 0.00070439
5710.0 0.00069659
5730.0 0.00070257
5750.0 0.00069897
5770.0 0.00068768
5790.0 0.00069285
5810.0 0.00070143
5830.0 0.00071268
5850.0 0.00072129
5870.0 0.00071051
5890.0 0.00068358
5910.0 0.00064608
5930.0 0.00058602
5950.0 0.00053648
5970.0 0.00052665
5990.0 0.00054735
6010.0 0.00056109
6030.0 0.00054239
6050.0 0.00052437
6070.0 0.00054415
6090.0 0.00058638
6110.0 0.00061108
6130.0 0.00059594
6150.0 0.00056147
6170.0 0.00053672
6190.0 0.00051375
6210.0 0.00048304
6230.0 0.00045097
6250.0 0.00043574
6270.0 0.00044538
6290.0 0.00046251
6310.0 0.00048982
6330.0 0.00052959
6350.0 0.00057197
6370.0 0.00059564
6390.0 0.00060149
6410.0 0.00060736
6430.0 0.00061329
6450.0 0.00061993
6470.0 0.00063215
6490.0 0.00064545
6510.0 0.00065473
6530.0 0.00065456
6550.0 0.00064426
6570.0 0.00062243
6590.0 0.00059353
6610.0 0.00057286
6630.0 0.000561
6650.0 0.00054348
6670.0 0.00051893
6690.0 0.00049798
6710.0 0.00048709
6730.0 0.00048208
6750.0 0.00047474
6770.0 0.00046575
6790.0 0.00045817
6810.0 0.00044868
6830.0 0.00044334
6850.0 0.00045106
6870.0 0.00045596
6890.0 0.00045133
6910.0 0.00044144
6930.0 0.00043218
6950.0 0.00042419
6970.0 0.00040981
6990.0 0.0003942
7010.0 0.00038736
7030.0 0.00038353
7050.0 0.00037223
7070.0 0.00035552
7090.0 0.00034839
7110.0 0.00035723
7130.0 0.00037907
7150.0 0.00040249
7170.0 0.00041763
7190.0 0.00041467
7210.0 0.00039846
7230.0 0.00038805
7250.0 0.00038722
7270.0 0.00038625
7290.0 0.00038308
7310.0 0.00038592
7330.0 0.00039743
7350.0 0.00041256
7370.0 0.00042183
7390.0 0.00042063
7410.0 0.00041153
7430.0 0.00039958
7450.0 0.00038566
7470.0 0.00036728
7490.0 0.00035459
7510.0 0.00034328
7530.0 0.0003361
7550.0 0.0003375
7570.0 0.00034067
7590.0 0.00034244
7610.0 0.00034035
7630.0 0.00033789
7650.0 0.00033971
7670.0 0.00034759
7690.0 0.00035768
7710.0 0.00036951
7730.0 0.00037842
7750.0 0.00038903
7770.0 0.00039653
7790.0 0.00040023
7810.0 0.00039962
7830.0 0.00039847
7850.0 0.00039048
7870.0 0.00037277
7890.0 0.00035454
7910.0 0.00034274
7930.0 0.000334
7950.0 0.00032559
7970.0 0.00032103
7990.0 0.00032216
8010.0 0.00030917
8030.0 0.00030522
8050.0 0.00030033
8070.0 0.00029445
8090.0 0.00028853
8110.0 0.00028769
8130.0 0.00028857
8150.0 0.00028677
8170.0 0.00028391
8190.0 0.00027592
8210.0 0.00025948
8230.0 0.00024172
8250.0 0.00023132
8270.0 0.00022322
8290.0 0.00021494
8310.0 0.00021079
8330.0 0.00020976
8350.0 0.00020401
8370.0 0.00020082
8390.0 0.00020691
8410.0 0.00021841
8430.0 0.00023334
8450.0 0.00024897
8470.0 0.00025772
8490.0 0.00026534
8510.0 0.00027048
8530.0 0.00027557
8550.0 0.00028065
8570.0 0.00028378
8590.0 0.00028654
8610.0 0.00029343
8630.0 0.00029585
8650.0 0.00028939
8670.0 0.00028895
8690.0 0.00029298
8710.0 0.00029666
8730.0 0.00029529
8750.0 0.00028754
8770.0 0.00028417
8790.0 0.0002822
8810.0 0.00027701
8830.0 0.00025836
8850.0 0.00023527
8870.0 0.00021867
8890.0 0.00021009
8910.0 0.00019853
8930.0 0.00018424
8950.0 0.00017494
8970.0 0.00017304
8990.0 0.00017433
9010.0 0.00017398
9030.0 0.00017269
9050.0 0.0001715
9070.0 0.0001705
9090.0 0.00016953
9110.0 0.00016858
9130.0 0.00016763
9150.0 0.00016668
9170.0 0.00016574
9190.0 0.0001648
9210.0 0.00016387
9230.0 0.00016294
9250.0 0.00016202
9270.0 0.00016111
9290.0 0.0001602
9310.0 0.0001593
9330.0 0.0001584
9350.0 0.00015751
9370.0 0.00015662
9390.0 0.00015574
9410.0 0.00015486
9430.0 0.00015397
9450.0 0.00015302
9470.0 0.00015211
9490.0 0.00015133
9510.0 0.00015051
9530.0 0.0001497
9550.0 0.00014887
9570.0 0.00014804
9590.0 0.00014721
9610.0 0.00014639
9630.0 0.00014557
9650.0 0.00014475
9670.0 0.00014395
9690.0 0.00014314
9710.0 0.00014234
9730.0 0.00014154
9750.0 0.00014075
9770.0 0.00013995
9790.0 0.00013917
9810.0 0.00013839
9830.0 0.0001376
9850.0 0.00013675
9870.0 0.000136
9890.0 0.00013525
9910.0 0.0001345
9930.0 0.00013374
9950.0 0.00013299
9970.0 0.00013222
9990.0 0.00013145
10010.0 0.0001306
10030.0 0.00012981
10050.0 0.0001291
10070.0 0.00012839
10090.0 0.00012767
10110.0 0.00012688
10130.0 0.00012586
10150.0 0.00012516
10170.0 0.00012451
10190.0 0.0001238
10210.0 0.0001231
10230.0 0.0001224
10250.0 0.00012164
10270.0 0.00012089
10290.0 0.00012016
10310.0 0.0001194
10330.0 0.0001186
10350.0 0.00011785
10370.0 0.0001171
10390.0 0.00011632
10410.0 0.00011553
10430.0 0.00011479
10450.0 0.00011401
10470.0 0.00011322
10490.0 0.00011245
10510.0 0.00011168
10530.0 0.00011085
10550.0 0.00011005
10570.0 0.00010928
10590.0 0.00010847
10610.0 0.00010765
10630.0 0.00010686
10650.0 0.00010606
10670.0 0.00010521
10690.0 0.00010438
10710.0 0.00010357
10730.0 0.00010273
10750.0 0.00010185
10770.0 0.00010103
10790.0 0.00010019
10810.0 9.932e-05
10830.0 9.8459e-05
10850.0 9.7625e-05
10870.0 9.6729e-05
10890.0 9.5832e-05
10910.0 9.4972e-05
10930.0 9.4104e-05
10950.0 9.3206e-05
10970.0 9.234e-05
10990.0 9.1519e-05
11010.0 8.8843e-05
11030.0 8.7987e-05
11050.0 8.7184e-05
11070.0 8.6394e-05
11090.0 8.5582e-05
11110.0 8.4836e-05
11130.0 8.4125e-05
11150.0 8.3419e-05
11170.0 8.2745e-05
11190.0 8.2139e-05
11210.0 8.1557e-05
11230.0 8.1004e-05
11250.0 8.0515e-05
11270.0 8.0076e-05
11290.0 7.9663e-05
11310.0 7.9292e-05
11330.0 7.8977e-05
11350.0 7.8683e-05
11370.0 7.8409e-05
11390.0 7.8161e-05
11410.0 7.7927e-05
11430.0 7.7686e-05
11450.0 7.7445e-05
11470.0 7.7202e-05
11490.0 7.6939e-05
11510.0 7.6645e-05
11530.0 7.6335e-05
11550.0 7.5998e-05
11570.0 7.5613e-05
11590.0 7.5192e-05
11610.0 7.4744e-05
11630.0 7.4236e-05
11650.0 7.3666e-05
11670.0 7.3072e-05
11690.0 7.243e-05
11710.0 7.1717e-05
11730.0 7.096e-05
11750.0 7.0185e-05
11770.0 6.9336e-05
11790.0 6.843e-05
11810.0 6.7511e-05
11830.0 6.656e-05
11850.0 6.5526e-05
11870.0 6.4497e-05
11890.0 6.3483e-05
11910.0 6.243e-05
11930.0 6.1364e-05
11950.0 6.0346e-05
11970.0 5.9334e-05
11990.0 5.8305e-05
12010.0 5.7331e-05
12030.0 5.6409e-05
12050.0 5.5497e-05
12070.0 5.4608e-05
12090.0 5.3811e-05
12110.0 5.3044e-05
12130.0 5.2302e-05
12150.0 5.1623e-05
12170.0 5.1009e-05
12190.0 5.0414e-05
12210.0 4.988e-05
12230.0 4.942e-05
12250.0 4.9011e-05
12270.0 4.8654e-05
12290.0 4.8365e-05
12310.0 4.8137e-05
12330.0 4.7958e-05
12350.0 4.7831e-05
12370.0 4.7751e-05
12390.0 4.7711e-05
12410.0 4.7708e-05
12430.0 4.773e-05
12450.0 4.777e-05
12470.0 4.7828e-05
12490.0 4.7895e-05
12510.0 4.7958e-05
12530.0 4.8022e-05
12550.0 4.808e-05
12570.0 4.812e-05
12590.0 4.8141e-05
12610.0 4.814e-05
12630.0 4.8108e-05
12650.0 4.804e-05
12670.0 4.7934e-05
12690.0 4.7785e-05
12710.0 4.7593e-05
12730.0 4.736e-05
12750.0 4.7071e-05
12770.0 4.6741e-05
12790.0 4.6378e-05
12810.0 4.5973e-05
12830.0 4.5525e-05
12850.0 4.5069e-05
12870.0 4.4597e-05
12890.0 4.4098e-05
12910.0 4.3597e-05
12930.0 4.3109e-05
12950.0 4.261e-05
12970.0 4.2109e-05
12990.0 4.164e-05
13010.0 4.1182e-05
13030.0 4.0727e-05
13050.0 4.0292e-05
13070.0 3.9885e-05
13090.0 3.9479e-05
13110.0 3.9086e-05
13130.0 3.8719e-05
13150.0 3.8366e-05
13170.0 3.8014e-05
13190.0 3.7689e-05
13210.0 3.7386e-05
13230.0 3.7092e-05
13250.0 3.6811e-05
13270.0 3.6554e-05
13290.0 3.6307e-05
13310.0 3.6065e-05
13330.0 3.5838e-05
13350.0 3.5621e-05
13370.0 3.5403e-05
13390.0 3.5183e-05
13410.0 3.4972e-05
13430.0 3.4752e-05
13450.0 3.4521e-05
13470.0 3.4284e-05
13490.0 3.4042e-05
13510.0 3.3775e-05
13530.0 3.3497e-05
13550.0 3.3215e-05
13570.0 3.2917e-05
13590.0 3.26e-05
13610.0 3.2282e-05
13630.0 3.1962e-05
13650.0 3.1625e-05
13670.0 3.1284e-05
13690.0 3.0952e-05
13710.0 3.0613e-05
13730.0 3.026e-05
13750.0 2.9926e-05
13770.0 2.9596e-05
13790.0 2.9259e-05
13810.0 2.8927e-05
13830.0 2.8612e-05
13850.0 2.8292e-05
13870.0 2.7972e-05
13890.0 2.7668e-05
13910.0 2.7374e-05
13930.0 2.7078e-05
13950.0 2.6793e-05
13970.0 2.6532e-05
13990.0 2.6273e-05
14010.0 2.6022e-05
14030.0 2.579e-05
14050.0 2.5569e-05
14070.0 2.5347e-05
14090.0 2.514e-05
14110.0 2.4947e-05
14130.0 2.4757e-05
14150.0 2.457e-05
14170.0 2.4397e-05
14190.0 2.4231e-05
14210.0 2.4063e-05
14230.0 2.3904e-05
14250.0 2.3753e-05
14270.0 2.3602e-05
14290.0 2.3453e-05
14310.0 2.3315e-05
14330.0 2.3181e-05
14350.0 2.3048e-05
14370.0 2.2921e-05
14390.0 2.2802e-05
14410.0 2.2683e-05
14430.0 2.2567e-05
14450.0 2.2458e-05
14470.0 2.2353e-05
14490.0 2.2246e-05
14510.0 2.2145e-05
14530.0 2.205e-05
14550.0 2.1952e-05
14570.0 2.1853e-05
14590.0 2.1758e-05
14610.0 2.1659e-05
14630.0 2.1552e-05
14650.0 2.1447e-05
14670.0 2.1342e-05
14690.0 2.1233e-05
14710.0 2.1124e-05
14730.0 2.103e-05
14750.0 2.0943e-05
14770.0 2.0871e-05
14790.0 2.0824e-05
14810.0 2.0805e-05
14830.0 2.0818e-05
14850.0 2.0872e-05
14870.0 2.0964e-05
14890.0 2.1097e-05
14910.0 2.1269e-05
14930.0 2.1464e-05
14950.0 2.167e-05
14970.0 2.1885e-05
14990.0 2.2084e-05
15010.0 2.2254e-05
15030.0 2.2396e-05
15050.0 2.2508e-05
15070.0 2.2588e-05
15090.0 2.2646e-05
15110.0 2.2689e-05
15130.0 2.2723e-05
15150.0 2.2752e-05
15170.0 2.2779e-05
15190.0 2.2805e-05
15210.0 2.2831e-05
15230.0 2.2858e-05
15250.0 2.2885e-05
15270.0 2.2913e-05
15290.0 2.2943e-05
15310.0 2.2973e-05
15330.0 2.3003e-05
15350.0 2.3034e-05
15370.0 2.3067e-05
15390.0 2.3099e-05
15410.0 2.3132e-05
15430.0 2.3167e-05
15450.0 2.3201e-05
15470.0 2.3236e-05
15490.0 2.3273e-05
15510.0 2.331e-05
15530.0 2.3347e-05
15550.0 2.3385e-05
15570.0 2.3424e-05
15590.0 2.3463e-05
15610.0 2.3503e-05
15630.0 2.3543e-05
15650.0 2.3585e-05
15670.0 2.3626e-05
15690.0 2.3668e-05
15710.0 2.3711e-05
15730.0 2.3754e-05
15750.0 2.3798e-05
15770.0 2.3842e-05
15790.0 2.3887e-05
15810.0 2.3932e-05
15830.0 2.3978e-05
15850.0 2.4024e-05
15870.0 2.4071e-05
15890.0 2.4118e-05
15910.0 2.4166e-05
15930.0 2.4214e-05
15950.0 2.4262e-05
15970.0 2.431e-05
15990.0 2.436e-05
16010.0 2.4409e-05
16030.0 2.4458e-05
16050.0 2.4509e-05
16070.0 2.4559e-05
16090.0 2.461e-05
16110.0 2.4661e-05
16130.0 2.4712e-05
16150.0 2.4763e-05
16170.0 2.4815e-05
16190.0 2.4867e-05
16210.0 2.4919e-05
16230.0 2.4971e-05
16250.0 2.5023e-05
16270.0 2.5076e-05
16290.0 2.5129e-05
16310.0 2.5182e-05
16330.0 2.5235e-05
16350.0 2.5288e-05
16370.0 2.5341e-05
16390.0 2.5394e-05
16410.0 2.5448e-05
16430.0 2.5501e-05
16450.0 2.5554e-05
16470.0 2.5607e-05
16490.0 2.5661e-05
16510.0 2.5713e-05
16530.0 2.5767e-05
16550.0 2.582e-05
16570.0 2.5873e-05
16590.0 2.5925e-05
16610.0 2.5978e-05
16630.0 2.6031e-05
16650.0 2.6083e-05
16670.0 2.6135e-05
16690.0 2.6188e-05
16710.0 2.6239e-05
16730.0 2.629e-05
16750.0 2.6342e-05
16770.0 2.6393e-05
16790.0 2.6443e-05
16810.0 2.6494e-05
16830.0 2.6544e-05
16850.0 2.6593e-05
16870.0 2.6643e-05
16890.0 2.6692e-05
16910.0 2.674e-05
16930.0 2.6788e-05
16950.0 2.6836e-05
16970.0 2.6883e-05
16990.0 2.6929e-05
17010.0 2.6976e-05
17030.0 2.7022e-05
17050.0 2.7067e-05
17070.0 2.7111e-05
17090.0 2.7155e-05
17110.0 2.7199e-05
17130.0 2.7241e-05
17150.0 2.7283e-05
17170.0 2.7325e-05
17190.0 2.7365e-05
17210.0 2.7405e-05
17230.0 2.7445e-05
17250.0 2.7484e-05
17270.0 2.7521e-05
17290.0 2.7558e-05
17310.0 2.7595e-05
17330.0 2.763e-05
17350.0 2.7665e-05
17370.0 2.7699e-05
17390.0 2.7732e-05
17410.0 2.7764e-05
17430.0 2.7796e-05
17450.0 2.7826e-05
17470.0 2.7855e-05
17490.0 2.7883e-05
17510.0 2.7911e-05
17530.0 2.7938e-05
17550.0 2.7963e-05
17570.0 2.7988e-05
17590.0 2.8012e-05
17610.0 2.8034e-05
17630.0 2.8055e-05
17650.0 2.8076e-05
17670.0 2.8095e-05
17690.0 2.8112e-05
17710.0 2.813e-05
17730.0 2.8146e-05
17750.0 2.816e-05
17770.0 2.8174e-05
17790.0 2.8187e-05
17810.0 2.8198e-05
17830.0 2.8207e-05
17850.0 2.8216e-05
17870.0 2.8224e-05
17890.0 2.823e-05
17910.0 2.8235e-05
17930.0 2.8239e-05
17950.0 2.8241e-05
17970.0 2.8242e-05
17990.0 2.8242e-05
18010.0 2.8241e-05
18030.0 2.8238e-05
18050.0 2.8234e-05
18070.0 2.8229e-05
18090.0 2.8222e-05
18110.0 2.8213e-05
18130.0 2.8204e-05
18150.0 2.8193e-05
18170.0 2.8181e-05
18190.0 2.8167e-05
18210.0 2.8152e-05
18230.0 2.8135e-05
18250.0 2.8117e-05
18270.0 2.8098e-05
18290.0 2.8077e-05
18310.0 2.8055e-05
18330.0 2.8031e-05
18350.0 2.8007e-05
18370.0 2.798e-05
18390.0 2.7952e-05
18410.0 2.7922e-05
18430.0 2.7892e-05
18450.0 2.7859e-05
18470.0 2.7825e-05
18490.0 2.779e-05
18510.0 2.7753e-05
18530.0 2.7715e-05
18550.0 2.7676e-05
18570.0 2.7635e-05
18590.0 2.7592e-05
18610.0 2.7548e-05
18630.0 2.7503e-05
18650.0 2.7455e-05
18670.0 2.7407e-05
18690.0 2.7357e-05
18710.0 2.7306e-05
18730.0 2.7253e-05
18750.0 2.7199e-05
18770.0 2.7144e-05
18790.0 2.7087e-05
18810.0 2.7028e-05
18830.0 2.6969e-05
18850.0 2.6908e-05
18870.0 2.6845e-05
18890.0 2.6781e-05
18910.0 2.6716e-05
18930.0 2.6649e-05
18950.0 2.6581e-05
18970.0 2.6512e-05
18990.0 2.6441e-05
19010.0 2.6368e-05
19030.0 2.6295e-05
19050.0 2.622e-05
19070.0 2.6144e-05
19090.0 2.6066e-05
19110.0 2.5988e-05
19130.0 2.5908e-05
19150.0 2.5827e-05
19170.0 2.5745e-05
19190.0 2.5661e-05
19210.0 2.5576e-05
19230.0 2.549e-05
19250.0 2.5403e-05
19270.0 2.5314e-05
19290.0 2.5224e-05
19310.0 2.5134e-05
19330.0 2.5042e-05
19350.0 2.4949e-05
19370.0 2.4855e-05
19390.0 2.476e-05
19410.0 2.4664e-05
19430.0 2.4566e-05
19450.0 2.4468e-05
19470.0 2.4369e-05
19490.0 2.4268e-05
19510.0 2.4167e-05
19530.0 2.4065e-05
19550.0 2.3962e-05
19570.0 2.3857e-05
19590.0 2.3752e-05
19610.0 2.3646e-05
19630.0 2.3539e-05
19650.0 2.3432e-05
19670.0 2.3324e-05
19690.0 2.3214e-05
19710.0 2.3104e-05
19730.0 2.2993e-05
19750.0 2.2881e-05
19770.0 2.2768e-05
19790.0 2.2655e-05
19810.0 2.2542e-05
19830.0 2.2427e-05
19850.0 2.231e-05
19870.0 2.2192e-05
19890.0 2.207e-05
19910.0 2.194e-05
19930.0 2.18e-05
19950.0 2.1646e-05
19970.0 2.1469e-05
19990.0 2.1265e-05
20010.0 2.1037e-05
20030.0 2.0776e-05
20050.0 2.0484e-05
20070.0 2.0174e-05
20090.0 1.985e-05
20110.0 1.9499e-05
20130.0 1.9149e-05
20150.0 1.8806e-05
20170.0 1.8458e-05
20190.0 1.8109e-05
20210.0 1.7776e-05
20230.0 1.745e-05
20250.0 1.7121e-05
20270.0 1.6807e-05
20290.0 1.6508e-05
20310.0 1.6214e-05
20330.0 1.5925e-05
20350.0 1.566e-05
20370.0 1.5406e-05
20390.0 1.5159e-05
20410.0 1.4928e-05
20430.0 1.4715e-05
20450.0 1.4508e-05
20470.0 1.4314e-05
20490.0 1.4138e-05
20510.0 1.3972e-05
20530.0 1.3817e-05
20550.0 1.3674e-05
20570.0 1.3544e-05
20590.0 1.3422e-05
20610.0 1.3309e-05
20630.0 1.3204e-05
20650.0 1.3107e-05
20670.0 1.3015e-05
20690.0 1.2928e-05
20710.0 1.2845e-05
20730.0 1.2765e-05
20750.0 1.2687e-05
20770.0 1.2609e-05
20790.0 1.253e-05
20810.0 1.245e-05
20830.0 1.2367e-05
20850.0 1.2281e-05
20870.0 1.2191e-05
20890.0 1.2096e-05
20910.0 1.1997e-05
20930.0 1.1892e-05
20950.0 1.1781e-05
20970.0 1.1665e-05
20990.0 1.1545e-05
21010.0 1.1417e-05
21030.0 1.1285e-05
21050.0 1.1149e-05
21070.0 1.1008e-05
21090.0 1.0862e-05
21110.0 1.0715e-05
21130.0 1.0566e-05
21150.0 1.0413e-05
21170.0 1.026e-05
21190.0 1.0108e-05
21210.0 9.953e-06
21230.0 9.7968e-06
21250.0 9.6448e-06
21270.0 9.4943e-06
21290.0 9.3429e-06
21310.0 9.1944e-06
21330.0 9.0516e-06
21350.0 8.9091e-06
21370.0 8.7688e-06
21390.0 8.634e-06
21410.0 8.5031e-06
21430.0 8.3723e-06
21450.0 8.2476e-06
21470.0 8.1285e-06
21490.0 8.0119e-06
21510.0 7.8987e-06
21530.0 7.7914e-06
21550.0 7.6876e-06
21570.0 7.5862e-06
21590.0 7.4894e-06
21610.0 7.3967e-06
21630.0 7.3063e-06
21650.0 7.2183e-06
21670.0 7.1346e-06
21690.0 7.0529e-06
21710.0 6.9726e-06
21730.0 6.8945e-06
21750.0 6.8184e-06
21770.0 6.7425e-06
21790.0 6.6675e-06
21810.0 6.5938e-06
21830.0 6.5204e-06
21850.0 6.4465e-06
21870.0 6.373e-06
21890.0 6.3e-06
21910.0 6.226e-06
21930.0 6.1515e-06
21950.0 6.0773e-06
21970.0 6.0023e-06
21990.0 5.9258e-06
22010.0 5.8497e-06
22030.0 5.7734e-06
22050.0 5.6958e-06
22070.0 5.6176e-06
22090.0 5.5401e-06
22110.0 5.4616e-06
22130.0 5.3819e-06
22150.0 5.3028e-06
22170.0 5.2238e-06
22190.0 5.1432e-06
22210.0 5.0624e-06
22230.0 4.9832e-06
22250.0 4.903e-06
22270.0 4.8221e-06
22290.0 4.7423e-06
22310.0 4.6631e-06
22330.0 4.5821e-06
22350.0 4.502e-06
22370.0 4.4231e-06
22390.0 4.3438e-06
22410.0 4.2635e-06
22430.0 4.1855e-06
22450.0 4.1082e-06
22470.0 4.0299e-06
22490.0 3.9526e-06
22510.0 3.8774e-06
22530.0 3.8012e-06
22550.0 3.7253e-06
22570.0 3.6519e-06
22590.0 3.5796e-06
22610.0 3.5072e-06
