#lamb flux
1010.0 1.7931e-07
1030.0 1.9871e-07
1050.0 2.2104e-07
1070.0 2.4618e-07
1090.0 2.7473e-07
1110.0 3.0401e-07
1130.0 3.3349e-07
1150.0 3.6437e-07
1170.0 3.9624e-07
1190.0 4.2645e-07
1210.0 4.5708e-07
1230.0 4.8874e-07
1250.0 5.1976e-07
1270.0 5.4989e-07
1290.0 5.8174e-07
1310.0 6.1357e-07
1330.0 6.441e-07
1350.0 6.7499e-07
1370.0 7.0687e-07
1390.0 7.3798e-07
1410.0 7.6816e-07
1430.0 7.9972e-07
1450.0 8.3129e-07
1470.0 8.618e-07
1490.0 8.9264e-07
1510.0 9.2522e-07
1530.0 9.561e-07
1550.0 9.8656e-07
1570.0 1.0181e-06
1590.0 1.0496e-06
1610.0 1.0797e-06
1630.0 1.1107e-06
1650.0 1.1426e-06
1670.0 1.1733e-06
1690.0 1.2037e-06
1710.0 1.2351e-06
1730.0 1.2668e-06
1750.0 1.2964e-06
1770.0 1.3269e-06
1790.0 1.3579e-06
1810.0 1.3878e-06
1830.0 1.417e-06
1850.0 1.448e-06
1870.0 1.478e-06
1890.0 1.5068e-06
1910.0 1.536e-06
1930.0 1.5658e-06
1950.0 1.5938e-06
1970.0 1.6213e-06
1990.0 1.6496e-06
2010.0 1.677e-06
2030.0 1.703e-06
2050.0 1.7295e-06
2070.0 1.7564e-06
2090.0 1.7809e-06
2110.0 1.8049e-06
2130.0 1.8292e-06
2150.0 1.8524e-06
2170.0 1.8736e-06
2190.0 1.8952e-06
2210.0 1.9162e-06
2230.0 1.9353e-06
2250.0 1.9535e-06
2270.0 1.972e-06
2290.0 1.9887e-06
2310.0 2.0033e-06
2330.0 2.0178e-06
2350.0 2.0316e-06
2370.0 2.0432e-06
2390.0 2.0544e-06
2410.0 2.0663e-06
2430.0 2.0773e-06
2450.0 2.0882e-06
2470.0 2.1017e-06
2490.0 2.1194e-06
2510.0 2.1417e-06
2530.0 2.1771e-06
2550.0 2.2392e-06
2570.0 2.3396e-06
2590.0 2.4927e-06
2610.0 2.7386e-06
2630.0 3.0822e-06
2650.0 3.4993e-06
2670.0 3.9904e-06
2690.0 4.5311e-06
2710.0 5.0403e-06
2730.0 5.4819e-06
2750.0 5.8642e-06
2770.0 6.1495e-06
2790.0 6.3396e-06
2810.0 6.4683e-06
2830.0 6.559e-06
2850.0 6.6109e-06
2870.0 6.6477e-06
2890.0 6.6826e-06
2910.0 6.7147e-06
2930.0 6.7403e-06
2950.0 6.7707e-06
2970.0 6.804e-06
2990.0 6.8334e-06
3010.0 8.9494e-05
3030.0 8.9666e-05
3050.0 8.982e-05
3070.0 8.9847e-05
3090.0 8.9809e-05
3110.0 8.9583e-05
3130.0 8.9011e-05
3150.0 8.8024e-05
3170.0 8.6485e-05
3190.0 8.4424e-05
3210.0 8.2033e-05
3230.0 7.9581e-05
3250.0 7.8705e-05
3270.0 7.7201e-05
3290.0 7.8693e-05
3310.0 7.8123e-05
3330.0 8.0093e-05
3350.0 8.3036e-05
3370.0 8.6854e-05
3390.0 9.1409e-05
3410.0 9.6206e-05
3430.0 0.00010146
3450.0 0.00010732
3470.0 0.00011348
3490.0 0.00011974
3510.0 0.00012698
3530.0 0.00013495
3550.0 0.00014165
3570.0 0.00014788
3590.0 0.00015677
3610.0 0.00016271
3630.0 0.00017255
3650.0 0.00018132
3670.0 0.00019018
3690.0 0.00019518
3710.0 0.00019643
3730.0 0.00019921
3750.0 0.00019925
3770.0 0.00018465
3790.0 0.00016943
3810.0 0.00015824
3830.0 0.00014324
3850.0 0.00012458
3870.0 0.0001236
3890.0 0.00016006
3910.0 0.00021426
3930.0 0.0002564
3950.0 0.00027163
3970.0 0.00026603
3990.0 0.00027117
4010.0 0.00030655
4030.0 0.00032865
4050.0 0.00031833
4070.0 0.0002818
4090.0 0.00024886
4110.0 0.00027925
4130.0 0.00030236
4150.0 0.00029687
4170.0 0.00029684
4190.0 0.0002955
4210.0 0.0003066
4230.0 0.00032627
4250.0 0.00035223
4270.0 0.00035878
4290.0 0.00035549
4310.0 0.0003743
4330.0 0.00041111
4350.0 0.00046655
4370.0 0.00052066
4390.0 0.00050178
4410.0 0.0004239
4430.0 0.00035288
4450.0 0.00029561
4470.0 0.00028971
4490.0 0.00031696
4510.0 0.00036604
4530.0 0.00039825
4550.0 0.00044747
4570.0 0.00053383
4590.0 0.00065656
4610.0 0.00084082
4630.0 0.0010119
4650.0 0.0010406
4670.0 0.0010377
4690.0 0.001098
4710.0 0.0011187
4730.0 0.00094271
4750.0 0.00069706
4770.0 0.00057039
4790.0 0.00053695
4810.0 0.00050907
4830.0 0.00049999
4850.0 0.00057523
4870.0 0.00070974
4890.0 0.0007891
4910.0 0.00069138
4930.0 0.00064644
4950.0 0.00074341
4970.0 0.00096542
4990.0 0.0011968
5010.0 0.0012305
5030.0 0.0010146
5050.0 0.00069337
5070.0 0.00049345
5090.0 0.00043081
5110.0 0.00044118
5130.0 0.00047485
5150.0 0.00049015
5170.0 0.00048654
5190.0 0.00048038
5210.0 0.00047203
5230.0 0.00048951
5250.0 0.00052539
5270.0 0.00060279
5290.0 0.00069578
5310.0 0.00076361
5330.0 0.00078962
5350.0 0.0008106
5370.0 0.00088171
5390.0 0.00092796
5410.0 0.00087908
5430.0 0.00077838
5450.0 0.00075068
5470.0 0.00086718
5490.0 0.0011014
5510.0 0.0013608
5530.0 0.0014776
5550.0 0.0014443
5570.0 0.0013377
5590.0 0.0012174
5610.0 0.0011414
5630.0 0.0011172
5650.0 0.0011403
5670.0 0.0011147
5690.0 0.001048
5710.0 0.00099535
5730.0 0.00088665
5750.0 0.00068709
5770.0 0.00060632
5790.0 0.00066967
5810.0 0.0007862
5830.0 0.00088135
5850.0 0.00093451
5870.0 0.00094189
5890.0 0.00089963
5910.0 0.00086058
5930.0 0.00086436
5950.0 0.00090758
5970.0 0.0009398
5990.0 0.00086971
6010.0 0.00073062
6030.0 0.00060658
6050.0 0.00053974
6070.0 0.0005477
6090.0 0.00060899
6110.0 0.000644
6130.0 0.00061289
6150.0 0.00058939
6170.0 0.00065377
6190.0 0.00077977
6210.0 0.00092947
6230.0 0.0010384
6250.0 0.0010231
6270.0 0.00091129
6290.0 0.0007575
6310.0 0.00060698
6330.0 0.00049585
6350.0 0.00046439
6370.0 0.00051046
6390.0 0.0005897
6410.0 0.00067886
6430.0 0.00079138
6450.0 0.00092911
6470.0 0.0011369
6490.0 0.0013719
6510.0 0.0014827
6530.0 0.0013969
6550.0 0.0013104
6570.0 0.0012956
6590.0 0.0012514
6610.0 0.0011546
6630.0 0.0010571
6650.0 0.00099068
6670.0 0.0010049
6690.0 0.00098734
6710.0 0.00088919
6730.0 0.00080489
6750.0 0.00072146
6770.0 0.00072034
6790.0 0.00076901
6810.0 0.00081179
6830.0 0.00082702
6850.0 0.00080137
6870.0 0.00077151
6890.0 0.00075268
6910.0 0.00071225
6930.0 0.00068348
6950.0 0.00068524
6970.0 0.00070485
6990.0 0.00077393
7010.0 0.00081576
7030.0 0.00075985
7050.0 0.00070126
7070.0 0.00064818
7090.0 0.00056943
7110.0 0.00052758
7130.0 0.00054183
7150.0 0.00056226
7170.0 0.00058798
7190.0 0.0005845
7210.0 0.00058664
7230.0 0.00063384
7250.0 0.00072885
7270.0 0.00083136
7290.0 0.00087979
7310.0 0.00084329
7330.0 0.00075469
7350.0 0.00068427
7370.0 0.00066911
7390.0 0.00068077
7410.0 0.00071733
7430.0 0.00079557
7450.0 0.00086691
7470.0 0.00095317
7490.0 0.0010215
7510.0 0.00091168
7530.0 0.00086949
7550.0 0.00075453
7570.0 0.00064359
7590.0 0.00053316
7610.0 0.00049505
7630.0 0.00052391
7650.0 0.0006035
7670.0 0.00067143
7690.0 0.00074926
7710.0 0.0008335
7730.0 0.0008786
7750.0 0.00089817
7770.0 0.00090394
7790.0 0.00090284
7810.0 0.0009251
7830.0 0.0008965
7850.0 0.00083047
7870.0 0.00076952
7890.0 0.00071504
7910.0 0.00064261
7930.0 0.00056322
7950.0 0.00051287
7970.0 0.00050318
7990.0 0.00052214
8010.0 0.00055699
8030.0 0.00056515
8050.0 0.00056705
8070.0 0.00055354
8090.0 0.00054928
8110.0 0.00052686
8130.0 0.0004976
8150.0 0.00046889
8170.0 0.00046362
8190.0 0.0004738
8210.0 0.00047264
8230.0 0.00047504
8250.0 0.00046881
8270.0 0.00041661
8290.0 0.00032233
8310.0 0.00022888
8330.0 0.00015459
8350.0 0.00011067
8370.0 0.00012322
8390.0 0.00013883
8410.0 0.00017483
8430.0 0.00021281
8450.0 0.00023288
8470.0 0.00024096
8490.0 0.00025331
8510.0 0.00026746
8530.0 0.00030103
8550.0 0.00033789
8570.0 0.0003927
8590.0 0.00046903
8610.0 0.00054463
8630.0 0.00063466
8650.0 0.0007058
8670.0 0.00069798
8690.0 0.00066057
8710.0 0.00062725
8730.0 0.00059575
8750.0 0.00057143
8770.0 0.00055669
8790.0 0.00053613
8810.0 0.0004969
8830.0 0.00045768
8850.0 0.00039831
8870.0 0.00034905
8890.0 0.00031555
8910.0 0.00032406
8930.0 0.00031605
8950.0 0.00033128
8970.0 0.00033759
8990.0 0.00034802
9010.0 0.00036132
9030.0 0.00036022
9050.0 0.00036037
9070.0 0.00036078
9090.0 0.00036112
9110.0 0.00036121
9130.0 0.00036153
9150.0 0.00036207
9170.0 0.00036246
9190.0 0.00036263
9210.0 0.0003644
9230.0 0.00036479
9250.0 0.00036539
9270.0 0.00036607
9290.0 0.00036682
9310.0 0.00036767
9330.0 0.00036857
9350.0 0.00036952
9370.0 0.00037052
9390.0 0.0003716
9410.0 0.00037271
9430.0 0.00037385
9450.0 0.00037507
9470.0 0.00037634
9490.0 0.00037763
9510.0 0.00037898
9530.0 0.00038039
9550.0 0.00038182
9570.0 0.00038328
9590.0 0.00038481
9610.0 0.00038638
9630.0 0.00038796
9650.0 0.00038959
9670.0 0.00039128
9690.0 0.00039298
9710.0 0.00039472
9730.0 0.0003965
9750.0 0.00039831
9770.0 0.00040012
9790.0 0.00040198
9810.0 0.00040388
9830.0 0.00040579
9850.0 0.00040771
9870.0 0.00040968
9890.0 0.00041166
9910.0 0.00041364
9930.0 0.00041565
9950.0 0.00041759
9970.0 0.00041964
9990.0 0.00042168
10010.0 0.00042012
10030.0 0.00042215
10050.0 0.00042411
10070.0 0.00042579
10090.0 0.00042796
10110.0 0.00043006
10130.0 0.00043214
10150.0 0.00043422
10170.0 0.00043624
10190.0 0.0004382
10210.0 0.00044019
10230.0 0.00044217
10250.0 0.00044409
10270.0 0.00044599
10290.0 0.00044791
10310.0 0.00044976
10330.0 0.00045155
10350.0 0.00045336
10370.0 0.00045515
10390.0 0.00045685
10410.0 0.00045853
10430.0 0.00046023
10450.0 0.00046184
10470.0 0.00046338
10490.0 0.00046492
10510.0 0.00046642
10530.0 0.0004678
10550.0 0.00046916
10570.0 0.00047052
10590.0 0.00047178
10610.0 0.00047296
10630.0 0.00047414
10650.0 0.00047525
10670.0 0.00047624
10690.0 0.00047721
10710.0 0.00047814
10730.0 0.00047896
10750.0 0.00047968
10770.0 0.00048042
10790.0 0.00048107
10810.0 0.00048159
10830.0 0.00048206
10850.0 0.00048246
10870.0 0.00048261
10890.0 0.0004825
10910.0 0.00048203
10930.0 0.00048092
10950.0 0.00047873
10970.0 0.00047531
10990.0 0.00047057
11010.0 0.00046177
11030.0 0.00045293
11050.0 0.00044272
11070.0 0.0004309
11090.0 0.00041703
11110.0 0.00040303
11130.0 0.00038875
11150.0 0.00037378
11170.0 0.00035888
11190.0 0.000345
11210.0 0.00033131
11230.0 0.00031801
11250.0 0.00030605
11270.0 0.00029524
11290.0 0.00028508
11310.0 0.00027607
11330.0 0.00026858
11350.0 0.00026182
11370.0 0.00025576
11390.0 0.00025055
11410.0 0.00024586
11430.0 0.00024119
11450.0 0.0002367
11470.0 0.00023226
11490.0 0.00022751
11510.0 0.00022226
11530.0 0.00021685
11550.0 0.0002111
11570.0 0.00020474
11590.0 0.00019813
11610.0 0.0001915
11630.0 0.00018451
11650.0 0.00017735
11670.0 0.00017061
11690.0 0.00016409
11710.0 0.00015769
11730.0 0.00015177
11750.0 0.00014649
11770.0 0.0001415
11790.0 0.00013694
11810.0 0.00013298
11830.0 0.00012943
11850.0 0.00012609
11870.0 0.00012314
11890.0 0.00012048
11910.0 0.00011789
11930.0 0.00011533
11950.0 0.00011287
11970.0 0.00011035
11990.0 0.00010765
12010.0 0.00010492
12030.0 0.00010215
12050.0 9.9236e-05
12070.0 9.6227e-05
12090.0 9.34e-05
12110.0 9.0616e-05
12130.0 8.7915e-05
12150.0 8.5495e-05
12170.0 8.3414e-05
12190.0 8.1596e-05
12210.0 8.0232e-05
12230.0 7.9363e-05
12250.0 7.8968e-05
12270.0 7.9101e-05
12290.0 7.9736e-05
12310.0 8.0797e-05
12330.0 8.2369e-05
12350.0 8.4347e-05
12370.0 8.6566e-05
12390.0 8.907e-05
12410.0 9.192e-05
12430.0 9.4684e-05
12450.0 9.7411e-05
12470.0 0.00010016
12490.0 0.00010275
12510.0 0.00010499
12530.0 0.00010703
12550.0 0.00010879
12570.0 0.00011011
12590.0 0.00011105
12610.0 0.00011164
12630.0 0.00011181
12650.0 0.00011158
12670.0 0.00011101
12690.0 0.0001101
12710.0 0.00010891
12730.0 0.0001075
12750.0 0.0001058
12770.0 0.00010395
12790.0 0.00010199
12810.0 9.9891e-05
12830.0 9.765e-05
12850.0 9.542e-05
12870.0 9.3142e-05
12890.0 9.074e-05
12910.0 8.8314e-05
12930.0 8.5908e-05
12950.0 8.3374e-05
12970.0 8.0746e-05
12990.0 7.8188e-05
13010.0 7.5596e-05
13030.0 7.2914e-05
13050.0 7.0274e-05
13070.0 6.7752e-05
13090.0 6.5197e-05
13110.0 6.2716e-05
13130.0 6.0434e-05
13150.0 5.8302e-05
13170.0 5.6274e-05
13190.0 5.4535e-05
13210.0 5.3079e-05
13230.0 5.1842e-05
13250.0 5.0882e-05
13270.0 5.0226e-05
13290.0 4.9833e-05
13310.0 4.9715e-05
13330.0 4.9856e-05
13350.0 5.0214e-05
13370.0 5.0795e-05
13390.0 5.1573e-05
13410.0 5.2424e-05
13430.0 5.3387e-05
13450.0 5.4444e-05
13470.0 5.5494e-05
13490.0 5.6502e-05
13510.0 5.7546e-05
13530.0 5.8509e-05
13550.0 5.9346e-05
13570.0 6.0106e-05
13590.0 6.0784e-05
13610.0 6.1326e-05
13630.0 6.1746e-05
13650.0 6.2087e-05
13670.0 6.2319e-05
13690.0 6.2444e-05
13710.0 6.2485e-05
13730.0 6.2447e-05
13750.0 6.2321e-05
13770.0 6.2125e-05
13790.0 6.1858e-05
13810.0 6.1524e-05
13830.0 6.1136e-05
13850.0 6.068e-05
13870.0 6.0154e-05
13890.0 5.9582e-05
13910.0 5.8961e-05
13930.0 5.8267e-05
13950.0 5.753e-05
13970.0 5.679e-05
13990.0 5.6007e-05
14010.0 5.5198e-05
14030.0 5.4413e-05
14050.0 5.3646e-05
14070.0 5.2869e-05
14090.0 5.2153e-05
14110.0 5.1506e-05
14130.0 5.091e-05
14150.0 5.0381e-05
14170.0 4.9956e-05
14190.0 4.9616e-05
14210.0 4.9362e-05
14230.0 4.9212e-05
14250.0 4.9158e-05
14270.0 4.9205e-05
14290.0 4.9359e-05
14310.0 4.9595e-05
14330.0 4.9916e-05
14350.0 5.0331e-05
14370.0 5.0807e-05
14390.0 5.1318e-05
14410.0 5.1899e-05
14430.0 5.252e-05
14450.0 5.3143e-05
14470.0 5.3786e-05
14490.0 5.448e-05
14510.0 5.5164e-05
14530.0 5.5849e-05
14550.0 5.6592e-05
14570.0 5.7388e-05
14590.0 5.8211e-05
14610.0 5.913e-05
14630.0 6.019e-05
14650.0 6.1336e-05
14670.0 6.2588e-05
14690.0 6.4025e-05
14710.0 6.5634e-05
14730.0 6.728e-05
14750.0 6.9082e-05
14770.0 7.104e-05
14790.0 7.3024e-05
14810.0 7.5002e-05
14830.0 7.7119e-05
14850.0 7.9167e-05
14870.0 8.1065e-05
14890.0 8.2882e-05
14910.0 8.4585e-05
14930.0 8.6032e-05
14950.0 8.7237e-05
14970.0 8.8248e-05
14990.0 8.8992e-05
15010.0 8.9481e-05
15030.0 8.9771e-05
15050.0 8.9886e-05
15070.0 8.9861e-05
15090.0 8.9751e-05
15110.0 8.9578e-05
15130.0 8.9373e-05
15150.0 8.916e-05
15170.0 8.8931e-05
15190.0 8.8695e-05
15210.0 8.8468e-05
15230.0 8.8243e-05
15250.0 8.8008e-05
15270.0 8.7777e-05
15290.0 8.756e-05
15310.0 8.7336e-05
15330.0 8.7109e-05
15350.0 8.6892e-05
15370.0 8.6676e-05
15390.0 8.6448e-05
15410.0 8.6228e-05
15430.0 8.6016e-05
15450.0 8.5797e-05
15470.0 8.5574e-05
15490.0 8.5364e-05
15510.0 8.5154e-05
15530.0 8.4935e-05
15550.0 8.4721e-05
15570.0 8.4514e-05
15590.0 8.4297e-05
15610.0 8.4077e-05
15630.0 8.3869e-05
15650.0 8.366e-05
15670.0 8.3443e-05
15690.0 8.3231e-05
15710.0 8.3027e-05
15730.0 8.2812e-05
15750.0 8.2595e-05
15770.0 8.2388e-05
15790.0 8.2178e-05
15810.0 8.1956e-05
15830.0 8.1744e-05
15850.0 8.1538e-05
15870.0 8.1322e-05
15890.0 8.1105e-05
15910.0 8.0898e-05
15930.0 8.0685e-05
15950.0 8.0462e-05
15970.0 8.0247e-05
15990.0 8.0036e-05
16010.0 7.9815e-05
16030.0 7.9591e-05
16050.0 7.9381e-05
16070.0 7.9164e-05
16090.0 7.8939e-05
16110.0 7.8721e-05
16130.0 7.8507e-05
16150.0 7.8276e-05
16170.0 7.8049e-05
16190.0 7.7831e-05
16210.0 7.7607e-05
16230.0 7.7375e-05
16250.0 7.7151e-05
16270.0 7.693e-05
16290.0 7.6696e-05
16310.0 7.6464e-05
16330.0 7.624e-05
16350.0 7.6008e-05
16370.0 7.5763e-05
16390.0 7.5534e-05
16410.0 7.5303e-05
16430.0 7.5062e-05
16450.0 7.4823e-05
16470.0 7.4593e-05
16490.0 7.435e-05
16510.0 7.4103e-05
16530.0 7.3864e-05
16550.0 7.3624e-05
16570.0 7.3372e-05
16590.0 7.3122e-05
16610.0 7.2883e-05
16630.0 7.2633e-05
16650.0 7.2379e-05
16670.0 7.2133e-05
16690.0 7.1885e-05
16710.0 7.1621e-05
16730.0 7.1366e-05
16750.0 7.1115e-05
16770.0 7.0855e-05
16790.0 7.059e-05
16810.0 7.0336e-05
16830.0 7.0079e-05
16850.0 6.981e-05
16870.0 6.9547e-05
16890.0 6.9289e-05
16910.0 6.9018e-05
16930.0 6.8742e-05
16950.0 6.8479e-05
16970.0 6.8211e-05
16990.0 6.7934e-05
17010.0 6.7663e-05
17030.0 6.7397e-05
17050.0 6.7118e-05
17070.0 6.6838e-05
17090.0 6.6566e-05
17110.0 6.6289e-05
17130.0 6.5999e-05
17150.0 6.572e-05
17170.0 6.5445e-05
17190.0 6.5159e-05
17210.0 6.4872e-05
17230.0 6.4595e-05
17250.0 6.4309e-05
17270.0 6.4014e-05
17290.0 6.3728e-05
17310.0 6.3443e-05
17330.0 6.3149e-05
17350.0 6.2851e-05
17370.0 6.2568e-05
17390.0 6.2276e-05
17410.0 6.1977e-05
17430.0 6.1685e-05
17450.0 6.1397e-05
17470.0 6.1091e-05
17490.0 6.079e-05
17510.0 6.0498e-05
17530.0 6.0199e-05
17550.0 5.9893e-05
17570.0 5.9597e-05
17590.0 5.9302e-05
17610.0 5.8995e-05
17630.0 5.8691e-05
17650.0 5.8394e-05
17670.0 5.809e-05
17690.0 5.7773e-05
17710.0 5.7474e-05
17730.0 5.7173e-05
17750.0 5.6862e-05
17770.0 5.6555e-05
17790.0 5.6257e-05
17810.0 5.5946e-05
17830.0 5.5632e-05
17850.0 5.5327e-05
17870.0 5.5021e-05
17890.0 5.4705e-05
17910.0 5.4393e-05
17930.0 5.4091e-05
17950.0 5.378e-05
17970.0 5.3465e-05
17990.0 5.316e-05
18010.0 5.2853e-05
18030.0 5.2531e-05
18050.0 5.222e-05
18070.0 5.1914e-05
18090.0 5.1599e-05
18110.0 5.1282e-05
18130.0 5.0976e-05
18150.0 5.0667e-05
18170.0 5.035e-05
18190.0 5.0038e-05
18210.0 4.9732e-05
18230.0 4.9415e-05
18250.0 4.9095e-05
18270.0 4.8789e-05
18290.0 4.8479e-05
18310.0 4.8162e-05
18330.0 4.7851e-05
18350.0 4.7547e-05
18370.0 4.723e-05
18390.0 4.6915e-05
18410.0 4.6609e-05
18430.0 4.6299e-05
18450.0 4.5978e-05
18470.0 4.5669e-05
18490.0 4.5365e-05
18510.0 4.5052e-05
18530.0 4.4739e-05
18550.0 4.4437e-05
18570.0 4.4127e-05
18590.0 4.381e-05
18610.0 4.3504e-05
18630.0 4.32e-05
18650.0 4.2887e-05
18670.0 4.2575e-05
18690.0 4.2276e-05
18710.0 4.197e-05
18730.0 4.1659e-05
18750.0 4.1357e-05
18770.0 4.1058e-05
18790.0 4.0743e-05
18810.0 4.0436e-05
18830.0 4.0139e-05
18850.0 3.9835e-05
18870.0 3.9527e-05
18890.0 3.9229e-05
18910.0 3.8933e-05
18930.0 3.8626e-05
18950.0 3.8325e-05
18970.0 3.8031e-05
18990.0 3.773e-05
19010.0 3.7421e-05
19030.0 3.7129e-05
19050.0 3.6836e-05
19070.0 3.6535e-05
19090.0 3.6239e-05
19110.0 3.5952e-05
19130.0 3.5653e-05
19150.0 3.5354e-05
19170.0 3.5064e-05
19190.0 3.4775e-05
19210.0 3.4476e-05
19230.0 3.4183e-05
19250.0 3.3901e-05
19270.0 3.3609e-05
19290.0 3.3317e-05
19310.0 3.3034e-05
19330.0 3.275e-05
19350.0 3.2454e-05
19370.0 3.2169e-05
19390.0 3.1888e-05
19410.0 3.1602e-05
19430.0 3.1313e-05
19450.0 3.1037e-05
19470.0 3.0757e-05
19490.0 3.0471e-05
19510.0 3.0192e-05
19530.0 2.9918e-05
19550.0 2.9634e-05
19570.0 2.935e-05
19590.0 2.9078e-05
19610.0 2.8803e-05
19630.0 2.8523e-05
19650.0 2.825e-05
19670.0 2.7983e-05
19690.0 2.7705e-05
19710.0 2.7429e-05
19730.0 2.7163e-05
19750.0 2.6893e-05
19770.0 2.6614e-05
19790.0 2.6347e-05
19810.0 2.6084e-05
19830.0 2.5813e-05
19850.0 2.5543e-05
19870.0 2.5279e-05
19890.0 2.5004e-05
19910.0 2.4713e-05
19930.0 2.4418e-05
19950.0 2.4103e-05
19970.0 2.3747e-05
19990.0 2.3353e-05
20010.0 2.3045e-05
20030.0 2.2574e-05
20050.0 2.206e-05
20070.0 2.1536e-05
20090.0 2.1004e-05
20110.0 2.0439e-05
20130.0 1.9901e-05
20150.0 1.9397e-05
20170.0 1.8905e-05
20190.0 1.8434e-05
20210.0 1.8014e-05
20230.0 1.7626e-05
20250.0 1.7259e-05
20270.0 1.6937e-05
20290.0 1.6659e-05
20310.0 1.6411e-05
20330.0 1.6197e-05
20350.0 1.6034e-05
20370.0 1.5905e-05
20390.0 1.5812e-05
20410.0 1.5757e-05
20430.0 1.5737e-05
20450.0 1.5752e-05
20470.0 1.5803e-05
20490.0 1.5883e-05
20510.0 1.5994e-05
20530.0 1.6138e-05
20550.0 1.6305e-05
20570.0 1.6487e-05
20590.0 1.6696e-05
20610.0 1.6922e-05
20630.0 1.7153e-05
20650.0 1.7395e-05
20670.0 1.7656e-05
20690.0 1.7908e-05
20710.0 1.8156e-05
20730.0 1.841e-05
20750.0 1.8662e-05
20770.0 1.8896e-05
20790.0 1.9131e-05
20810.0 1.937e-05
20830.0 1.9598e-05
20850.0 1.982e-05
20870.0 2.0055e-05
20890.0 2.0292e-05
20910.0 2.0521e-05
20930.0 2.076e-05
20950.0 2.1012e-05
20970.0 2.1261e-05
20990.0 2.1509e-05
21010.0 2.1774e-05
21030.0 2.2035e-05
21050.0 2.2283e-05
21070.0 2.2529e-05
21090.0 2.2772e-05
21110.0 2.2987e-05
21130.0 2.3182e-05
21150.0 2.3362e-05
21170.0 2.3516e-05
21190.0 2.3638e-05
21210.0 2.3737e-05
21230.0 2.3807e-05
21250.0 2.3843e-05
21270.0 2.3849e-05
21290.0 2.3823e-05
21310.0 2.3766e-05
21330.0 2.3681e-05
21350.0 2.3565e-05
21370.0 2.3416e-05
21390.0 2.3245e-05
21410.0 2.3049e-05
21430.0 2.2816e-05
21450.0 2.2566e-05
21470.0 2.2304e-05
21490.0 2.2017e-05
21510.0 2.1711e-05
21530.0 2.1408e-05
21550.0 2.1096e-05
21570.0 2.0769e-05
21590.0 2.0452e-05
21610.0 2.0149e-05
21630.0 1.9849e-05
21650.0 1.9558e-05
21670.0 1.9306e-05
21690.0 1.9076e-05
21710.0 1.8868e-05
21730.0 1.8698e-05
21750.0 1.8566e-05
21770.0 1.8464e-05
21790.0 1.8405e-05
21810.0 1.8387e-05
21830.0 1.8408e-05
21850.0 1.8472e-05
21870.0 1.8573e-05
21890.0 1.8706e-05
21910.0 1.888e-05
21930.0 1.9089e-05
21950.0 1.932e-05
21970.0 1.9581e-05
21990.0 1.9881e-05
22010.0 2.0188e-05
22030.0 2.0509e-05
22050.0 2.0854e-05
22070.0 2.121e-05
22090.0 2.1555e-05
22110.0 2.1912e-05
22130.0 2.2275e-05
22150.0 2.2621e-05
22170.0 2.2951e-05
22190.0 2.3281e-05
22210.0 2.3588e-05
22230.0 2.3856e-05
22250.0 2.4103e-05
22270.0 2.4322e-05
22290.0 2.4497e-05
22310.0 2.4634e-05
22330.0 2.4733e-05
22350.0 2.4785e-05
22370.0 2.4789e-05
22390.0 2.4745e-05
22410.0 2.4648e-05
22430.0 2.4507e-05
22450.0 2.4321e-05
22470.0 2.408e-05
22490.0 2.3795e-05
22510.0 2.3479e-05
22530.0 2.3108e-05
22550.0 2.2691e-05
22570.0 2.2256e-05
22590.0 2.1792e-05
22610.0 2.1284e-05
22630.0 2.0758e-05
22650.0 2.0236e-05
