#lamb flux
1010.0 1.1443e-05
1030.0 1.2242e-05
1050.0 1.3286e-05
1070.0 1.4931e-05
1090.0 1.7298e-05
1110.0 1.9757e-05
1130.0 2.2257e-05
1150.0 2.4891e-05
1170.0 2.7582e-05
1190.0 3.0039e-05
1210.0 3.2388e-05
1230.0 3.4614e-05
1250.0 3.6623e-05
1270.0 3.8225e-05
1290.0 3.9571e-05
1310.0 4.0487e-05
1330.0 4.0874e-05
1350.0 4.0872e-05
1370.0 4.0549e-05
1390.0 3.9836e-05
1410.0 3.8801e-05
1430.0 3.7636e-05
1450.0 3.6325e-05
1470.0 3.4896e-05
1490.0 3.3474e-05
1510.0 3.2159e-05
1530.0 3.0868e-05
1550.0 2.9699e-05
1570.0 2.8724e-05
1590.0 2.7937e-05
1610.0 2.7373e-05
1630.0 2.727e-05
1650.0 2.7469e-05
1670.0 2.7954e-05
1690.0 2.8764e-05
1710.0 2.9967e-05
1730.0 3.1563e-05
1750.0 3.3525e-05
1770.0 3.5957e-05
1790.0 3.8885e-05
1810.0 4.229e-05
1830.0 4.6206e-05
1850.0 5.0742e-05
1870.0 5.5826e-05
1890.0 6.1447e-05
1910.0 6.7669e-05
1930.0 7.4496e-05
1950.0 8.1791e-05
1970.0 8.9555e-05
1990.0 9.7821e-05
2010.0 0.00010643
2030.0 0.00011525
2050.0 0.00012431
2070.0 0.00013353
2090.0 0.0001426
2110.0 0.00015153
2130.0 0.0001603
2150.0 0.00016869
2170.0 0.00017654
2190.0 0.000184
2210.0 0.00019092
2230.0 0.00019713
2250.0 0.00020271
2270.0 0.0002078
2290.0 0.00021217
2310.0 0.00021584
2330.0 0.00021906
2350.0 0.00022184
2370.0 0.0002241
2390.0 0.0002261
2410.0 0.00022813
2430.0 0.00023009
2450.0 0.00023218
2470.0 0.0002348
2490.0 0.00023816
2510.0 0.00024204
2530.0 0.00024716
2550.0 0.00025436
2570.0 0.00026411
2590.0 0.00027728
2610.0 0.00029683
2630.0 0.00032314
2650.0 0.00035506
2670.0 0.00039355
2690.0 0.00043812
2710.0 0.00048399
2730.0 0.0005293
2750.0 0.00057601
2770.0 0.00062144
2790.0 0.00066488
2810.0 0.00070934
2830.0 0.00075756
2850.0 0.00080565
2870.0 0.00085587
2890.0 0.00091034
2910.0 0.00096728
2930.0 0.0010244
2950.0 0.0010855
2970.0 0.00115
2990.0 0.001215
3010.0 0.0012818
3030.0 0.0013528
3050.0 0.0014258
3070.0 0.0014969
3090.0 0.0015693
3110.0 0.0016398
3130.0 0.0017035
3150.0 0.0017588
3170.0 0.001804
3190.0 0.0018369
3210.0 0.0018625
3230.0 0.0018838
3250.0 0.0019008
3270.0 0.0019189
3290.0 0.0019436
3310.0 0.0019801
3330.0 0.0020271
3350.0 0.0020815
3370.0 0.0021412
3390.0 0.0021928
3410.0 0.0022486
3430.0 0.0023877
3450.0 0.0024885
3470.0 0.0025563
3490.0 0.0026146
3510.0 0.0027652
3530.0 0.0032772
3550.0 0.0037955
3570.0 0.0041535
3590.0 0.0045773
3610.0 0.0045834
3630.0 0.0042745
3650.0 0.0045535
3670.0 0.0054249
3690.0 0.0060853
3710.0 0.0063186
3730.0 0.0064101
3750.0 0.0068174
3770.0 0.0068514
3790.0 0.0065438
3810.0 0.0061624
3830.0 0.0058008
3850.0 0.0058212
3870.0 0.0061163
3890.0 0.0063682
3910.0 0.0065439
3930.0 0.0065767
3950.0 0.0070198
3970.0 0.0075319
3990.0 0.0072896
4010.0 0.0065092
4030.0 0.0058268
4050.0 0.0056936
4070.0 0.0059459
4090.0 0.0059424
4110.0 0.0057398
4130.0 0.0056887
4150.0 0.0059058
4170.0 0.0065373
4190.0 0.0069752
4210.0 0.0066578
4230.0 0.006169
4250.0 0.0058878
4270.0 0.0057127
4290.0 0.0057781
4310.0 0.0059423
4330.0 0.0056514
4350.0 0.0049854
4370.0 0.0044251
4390.0 0.0040376
4410.0 0.0037794
4430.0 0.0038346
4450.0 0.0041988
4470.0 0.0045831
4490.0 0.0049456
4510.0 0.0055376
4530.0 0.0066444
4550.0 0.0078425
4570.0 0.0085657
4590.0 0.0091544
4610.0 0.0097428
4630.0 0.0099375
4650.0 0.0092309
4670.0 0.0078853
4690.0 0.0068415
4710.0 0.0064974
4730.0 0.0062423
4750.0 0.0055288
4770.0 0.0049692
4790.0 0.0051398
4810.0 0.0055836
4830.0 0.005503
4850.0 0.0049701
4870.0 0.0049952
4890.0 0.0051615
4910.0 0.005312
4930.0 0.0052643
4950.0 0.0051484
4970.0 0.0049214
4990.0 0.0045388
5010.0 0.0042191
5030.0 0.004072
5050.0 0.004005
5070.0 0.003964
5090.0 0.0039295
5110.0 0.0039226
5130.0 0.0039946
5150.0 0.0042102
5170.0 0.0046195
5190.0 0.0051365
5210.0 0.0056129
5230.0 0.0058982
5250.0 0.0060506
5270.0 0.0063085
5290.0 0.0065381
5310.0 0.0065562
5330.0 0.0063187
5350.0 0.0060671
5370.0 0.0060717
5390.0 0.0063118
5410.0 0.0065167
5430.0 0.0065299
5450.0 0.0064553
5470.0 0.0062797
5490.0 0.0060837
5510.0 0.0059974
5530.0 0.00603
5550.0 0.0061123
5570.0 0.0061577
5590.0 0.0059738
5610.0 0.0056367
5630.0 0.0053274
5650.0 0.0050826
5670.0 0.0049241
5690.0 0.0047141
5710.0 0.0045658
5730.0 0.0046154
5750.0 0.0045913
5770.0 0.0045002
5790.0 0.00454
5810.0 0.0046626
5830.0 0.004764
5850.0 0.0047933
5870.0 0.0046807
5890.0 0.0044825
5910.0 0.0042808
5930.0 0.0040087
5950.0 0.003804
5970.0 0.0038163
5990.0 0.0039209
6010.0 0.0039379
6030.0 0.0037971
6050.0 0.003762
6070.0 0.0039043
6090.0 0.0040618
6110.0 0.0040858
6130.0 0.0039138
6150.0 0.003668
6170.0 0.0035212
6190.0 0.0034032
6210.0 0.0032877
6230.0 0.0031993
6250.0 0.0031827
6270.0 0.0032686
6290.0 0.0034099
6310.0 0.0035786
6330.0 0.0037561
6350.0 0.0038825
6370.0 0.0039219
6390.0 0.0039145
6410.0 0.0039544
6430.0 0.0040071
6450.0 0.0040115
6470.0 0.004042
6490.0 0.0040861
6510.0 0.0040911
6530.0 0.0040395
6550.0 0.0039237
6570.0 0.0037873
6590.0 0.0036855
6610.0 0.0036072
6630.0 0.0035365
6650.0 0.003416
6670.0 0.0032794
6690.0 0.0031773
6710.0 0.0031153
6730.0 0.0030913
6750.0 0.0030578
6770.0 0.0030055
6790.0 0.0029555
6810.0 0.0029146
6830.0 0.002907
6850.0 0.0028964
6870.0 0.0028662
6890.0 0.0028556
6910.0 0.0028051
6930.0 0.0027464
6950.0 0.0027397
6970.0 0.0027088
6990.0 0.0026379
7010.0 0.0025965
7030.0 0.0025562
7050.0 0.0025042
7070.0 0.0024439
7090.0 0.0023931
7110.0 0.0024196
7130.0 0.0024973
7150.0 0.0025762
7170.0 0.0026262
7190.0 0.0026139
7210.0 0.0025771
7230.0 0.0025438
7250.0 0.0025108
7270.0 0.0024768
7290.0 0.0024413
7310.0 0.00242
7330.0 0.0024528
7350.0 0.0024782
7370.0 0.0024858
7390.0 0.0024606
7410.0 0.0024099
7430.0 0.0023887
7450.0 0.0023703
7470.0 0.0022719
7490.0 0.0021884
7510.0 0.0020928
7530.0 0.0020202
7550.0 0.0019956
7570.0 0.0020227
7590.0 0.002007
7610.0 0.0019852
7630.0 0.0019721
7650.0 0.0019698
7670.0 0.0020073
7690.0 0.0020877
7710.0 0.0021626
7730.0 0.0022366
7750.0 0.0022934
7770.0 0.0023271
7790.0 0.0023209
7810.0 0.0022759
7830.0 0.0022961
7850.0 0.002289
7870.0 0.0022253
7890.0 0.0021503
7910.0 0.0020838
7930.0 0.0020212
7950.0 0.001981
7970.0 0.001979
7990.0 0.0020019
8010.0 0.0019946
8030.0 0.0019723
8050.0 0.001937
8070.0 0.0019002
8090.0 0.0018611
8110.0 0.0018658
8130.0 0.0018818
8150.0 0.0018817
8170.0 0.0018674
8190.0 0.0018353
8210.0 0.0017524
8230.0 0.0016363
8250.0 0.0015642
8270.0 0.0015208
8290.0 0.001498
8310.0 0.0015065
8330.0 0.0015375
8350.0 0.0015074
8370.0 0.001472
8390.0 0.001494
8410.0 0.0015518
8430.0 0.001642
8450.0 0.001727
8470.0 0.0017552
8490.0 0.0017769
8510.0 0.0017749
8530.0 0.0017741
8550.0 0.0017903
8570.0 0.0017951
8590.0 0.0017972
8610.0 0.001847
8630.0 0.0018649
8650.0 0.0018251
8670.0 0.0018229
8690.0 0.0018325
8710.0 0.0018177
8730.0 0.0018008
8750.0 0.0017478
8770.0 0.0017244
8790.0 0.001709
8810.0 0.0016907
8830.0 0.0016056
8850.0 0.0014839
8870.0 0.0013927
8890.0 0.0013408
8910.0 0.0012598
8930.0 0.0011733
8950.0 0.0011357
8970.0 0.0011294
8990.0 0.0011329
9010.0 0.0011255
9030.0 0.0011175
9050.0 0.0011102
9070.0 0.0011032
9090.0 0.0010963
9110.0 0.0010894
9130.0 0.0010825
9150.0 0.0010756
9170.0 0.0010687
9190.0 0.0010619
9210.0 0.001055
9230.0 0.0010482
9250.0 0.0010415
9270.0 0.0010347
9290.0 0.001028
9310.0 0.0010213
9330.0 0.0010146
9350.0 0.0010079
9370.0 0.0010013
9390.0 0.00099471
9410.0 0.00098813
9430.0 0.00098155
9450.0 0.00097487
9470.0 0.00096834
9490.0 0.00096208
9510.0 0.00095567
9530.0 0.00094932
9550.0 0.00094295
9570.0 0.00093663
9590.0 0.00093034
9610.0 0.00092408
9630.0 0.00091785
9650.0 0.00091165
9670.0 0.00090551
9690.0 0.00089938
9710.0 0.00089328
9730.0 0.00088723
9750.0 0.0008812
9770.0 0.0008752
9790.0 0.00086924
9810.0 0.00086332
9830.0 0.00085729
9850.0 0.0008505
9870.0 0.00084486
9890.0 0.00083941
9910.0 0.00083386
9930.0 0.00082808
9950.0 0.00082257
9970.0 0.00081696
9990.0 0.00081124
10010.0 0.00080486
10030.0 0.00079899
10050.0 0.00079387
10070.0 0.00078867
10090.0 0.00078346
10110.0 0.00077789
10130.0 0.00077145
10150.0 0.00076628
10170.0 0.00076129
10190.0 0.00075602
10210.0 0.00075088
10230.0 0.00074576
10250.0 0.00074043
10270.0 0.00073513
10290.0 0.00073002
10310.0 0.00072474
10330.0 0.00071934
10350.0 0.00071418
10370.0 0.00070906
10390.0 0.00070378
10410.0 0.00069856
10430.0 0.00069356
10450.0 0.00068841
10470.0 0.00068318
10490.0 0.00067814
10510.0 0.00067313
10530.0 0.00066785
10550.0 0.00066272
10570.0 0.00065777
10590.0 0.00065269
10610.0 0.00064753
10630.0 0.00064259
10650.0 0.00063763
10670.0 0.00063245
10690.0 0.0006274
10710.0 0.00062248
10730.0 0.00061741
10750.0 0.0006122
10770.0 0.00060731
10790.0 0.00060236
10810.0 0.00059726
10830.0 0.00059225
10850.0 0.00058742
10870.0 0.00058229
10890.0 0.00057721
10910.0 0.00057236
10930.0 0.00056751
10950.0 0.00056259
10970.0 0.00055789
10990.0 0.00055348
11010.0 0.00056175
11030.0 0.00055786
11050.0 0.00055415
11070.0 0.00055043
11090.0 0.00054647
11110.0 0.00054265
11130.0 0.00053882
11150.0 0.0005348
11170.0 0.00053073
11190.0 0.00052682
11210.0 0.00052284
11230.0 0.0005188
11250.0 0.00051496
11270.0 0.00051127
11290.0 0.00050755
11310.0 0.00050397
11330.0 0.00050071
11350.0 0.0004975
11370.0 0.00049436
11390.0 0.00049142
11410.0 0.00048861
11430.0 0.00048572
11450.0 0.00048292
11470.0 0.00048019
11490.0 0.00047738
11510.0 0.00047442
11530.0 0.00047149
11550.0 0.00046847
11570.0 0.0004652
11590.0 0.00046181
11610.0 0.00045837
11630.0 0.00045465
11650.0 0.00045069
11670.0 0.00044676
11690.0 0.00044273
11710.0 0.00043848
11730.0 0.00043422
11750.0 0.0004301
11770.0 0.00042584
11790.0 0.00042155
11810.0 0.00041746
11830.0 0.00041344
11850.0 0.00040933
11870.0 0.00040543
11890.0 0.00040177
11910.0 0.00039811
11930.0 0.00039454
11950.0 0.00039123
11970.0 0.00038802
11990.0 0.00038483
12010.0 0.00038187
12030.0 0.00037911
12050.0 0.00037643
12070.0 0.00037388
12090.0 0.00037164
12110.0 0.00036955
12130.0 0.00036761
12150.0 0.00036592
12170.0 0.00036447
12190.0 0.00036318
12210.0 0.00036214
12230.0 0.00036136
12250.0 0.00036081
12270.0 0.00036049
12290.0 0.00036039
12310.0 0.00036048
12330.0 0.00036078
12350.0 0.00036123
12370.0 0.00036178
12390.0 0.00036244
12410.0 0.0003632
12430.0 0.00036391
12450.0 0.00036459
12470.0 0.00036522
12490.0 0.00036572
12510.0 0.00036604
12530.0 0.00036618
12550.0 0.00036609
12570.0 0.00036572
12590.0 0.00036506
12610.0 0.00036407
12630.0 0.00036273
12650.0 0.00036114
12670.0 0.00035919
12690.0 0.0003569
12710.0 0.00035439
12730.0 0.00035168
12750.0 0.0003486
12770.0 0.0003454
12790.0 0.00034215
12810.0 0.00033873
12830.0 0.00033516
12850.0 0.0003317
12870.0 0.00032824
12890.0 0.00032468
12910.0 0.00032119
12930.0 0.00031784
12950.0 0.00031441
12970.0 0.00031097
12990.0 0.00030773
13010.0 0.00030453
13030.0 0.00030129
13050.0 0.00029816
13070.0 0.00029519
13090.0 0.00029219
13110.0 0.00028925
13130.0 0.00028649
13150.0 0.00028383
13170.0 0.00028118
13190.0 0.00027873
13210.0 0.00027648
13230.0 0.00027429
13250.0 0.00027221
13270.0 0.00027033
13290.0 0.00026853
13310.0 0.00026676
13330.0 0.00026512
13350.0 0.00026356
13370.0 0.000262
13390.0 0.00026043
13410.0 0.00025895
13430.0 0.00025744
13450.0 0.00025587
13470.0 0.0002543
13490.0 0.00025275
13510.0 0.00025107
13530.0 0.00024938
13550.0 0.00024771
13570.0 0.00024599
13590.0 0.0002442
13610.0 0.00024243
13630.0 0.0002407
13650.0 0.00023887
13670.0 0.00023705
13690.0 0.00023528
13710.0 0.00023347
13730.0 0.00023157
13750.0 0.00022976
13770.0 0.00022797
13790.0 0.0002261
13810.0 0.00022422
13830.0 0.00022241
13850.0 0.00022051
13870.0 0.00021855
13890.0 0.00021663
13910.0 0.00021469
13930.0 0.00021264
13950.0 0.00021057
13970.0 0.00020857
13990.0 0.00020647
14010.0 0.0002043
14030.0 0.00020217
14050.0 0.00020004
14070.0 0.00019777
14090.0 0.00019555
14110.0 0.00019339
14130.0 0.0001912
14150.0 0.00018898
14170.0 0.00018691
14190.0 0.0001849
14210.0 0.00018288
14230.0 0.00018098
14250.0 0.00017921
14270.0 0.00017745
14290.0 0.00017576
14310.0 0.00017424
14330.0 0.00017278
14350.0 0.00017136
14370.0 0.00017004
14390.0 0.00016882
14410.0 0.0001676
14430.0 0.00016643
14450.0 0.00016535
14470.0 0.0001643
14490.0 0.00016324
14510.0 0.00016226
14530.0 0.00016134
14550.0 0.00016042
14570.0 0.00015953
14590.0 0.00015871
14610.0 0.00015791
14630.0 0.00015711
14650.0 0.00015637
14670.0 0.00015567
14690.0 0.00015499
14710.0 0.00015434
14730.0 0.00015378
14750.0 0.00015325
14770.0 0.00015277
14790.0 0.00015239
14810.0 0.00015209
14830.0 0.00015186
14850.0 0.00015175
14870.0 0.00015175
14890.0 0.00015186
14910.0 0.00015206
14930.0 0.00015235
14950.0 0.00015268
14970.0 0.00015303
14990.0 0.00015335
15010.0 0.00015362
15030.0 0.00015383
15050.0 0.00015396
15070.0 0.00015401
15090.0 0.00015402
15110.0 0.00015399
15130.0 0.00015393
15150.0 0.00015387
15170.0 0.0001538
15190.0 0.00015372
15210.0 0.00015366
15230.0 0.00015359
15250.0 0.00015352
15270.0 0.00015345
15290.0 0.0001534
15310.0 0.00015334
15330.0 0.00015328
15350.0 0.00015324
15370.0 0.00015319
15390.0 0.00015314
15410.0 0.00015309
15430.0 0.00015305
15450.0 0.00015301
15470.0 0.00015297
15490.0 0.00015294
15510.0 0.00015291
15530.0 0.00015288
15550.0 0.00015286
15570.0 0.00015284
15590.0 0.00015281
15610.0 0.00015279
15630.0 0.00015278
15650.0 0.00015277
15670.0 0.00015275
15690.0 0.00015274
15710.0 0.00015274
15730.0 0.00015274
15750.0 0.00015273
15770.0 0.00015274
15790.0 0.00015274
15810.0 0.00015274
15830.0 0.00015275
15850.0 0.00015276
15870.0 0.00015277
15890.0 0.00015278
15910.0 0.0001528
15930.0 0.00015282
15950.0 0.00015284
15970.0 0.00015286
15990.0 0.00015289
16010.0 0.00015291
16030.0 0.00015293
16050.0 0.00015297
16070.0 0.000153
16090.0 0.00015303
16110.0 0.00015307
16130.0 0.00015311
16150.0 0.00015314
16170.0 0.00015318
16190.0 0.00015322
16210.0 0.00015327
16230.0 0.00015331
16250.0 0.00015335
16270.0 0.0001534
16290.0 0.00015345
16310.0 0.0001535
16330.0 0.00015355
16350.0 0.0001536
16370.0 0.00015364
16390.0 0.0001537
16410.0 0.00015376
16430.0 0.00015381
16450.0 0.00015386
16470.0 0.00015392
16490.0 0.00015398
16510.0 0.00015403
16530.0 0.00015409
16550.0 0.00015415
16570.0 0.0001542
16590.0 0.00015425
16610.0 0.00015432
16630.0 0.00015438
16650.0 0.00015443
16670.0 0.00015449
16690.0 0.00015455
16710.0 0.0001546
16730.0 0.00015466
16750.0 0.00015472
16770.0 0.00015477
16790.0 0.00015482
16810.0 0.00015488
16830.0 0.00015494
16850.0 0.00015499
16870.0 0.00015504
16890.0 0.00015509
16910.0 0.00015514
16930.0 0.00015518
16950.0 0.00015523
16970.0 0.00015528
16990.0 0.00015532
17010.0 0.00015536
17030.0 0.00015541
17050.0 0.00015544
17070.0 0.00015548
17090.0 0.00015552
17110.0 0.00015555
17130.0 0.00015558
17150.0 0.00015561
17170.0 0.00015564
17190.0 0.00015566
17210.0 0.00015568
17230.0 0.0001557
17250.0 0.00015572
17270.0 0.00015573
17290.0 0.00015574
17310.0 0.00015575
17330.0 0.00015575
17350.0 0.00015575
17370.0 0.00015576
17390.0 0.00015576
17410.0 0.00015574
17430.0 0.00015573
17450.0 0.00015573
17470.0 0.0001557
17490.0 0.00015568
17510.0 0.00015566
17530.0 0.00015563
17550.0 0.00015559
17570.0 0.00015556
17590.0 0.00015552
17610.0 0.00015547
17630.0 0.00015542
17650.0 0.00015537
17670.0 0.00015531
17690.0 0.00015524
17710.0 0.00015518
17730.0 0.00015511
17750.0 0.00015503
17770.0 0.00015495
17790.0 0.00015487
17810.0 0.00015478
17830.0 0.00015468
17850.0 0.00015458
17870.0 0.00015448
17890.0 0.00015437
17910.0 0.00015425
17930.0 0.00015414
17950.0 0.00015401
17970.0 0.00015388
17990.0 0.00015374
18010.0 0.00015361
18030.0 0.00015345
18050.0 0.0001533
18070.0 0.00015315
18090.0 0.00015298
18110.0 0.00015281
18130.0 0.00015264
18150.0 0.00015246
18170.0 0.00015227
18190.0 0.00015208
18210.0 0.00015189
18230.0 0.00015168
18250.0 0.00015147
18270.0 0.00015126
18290.0 0.00015104
18310.0 0.00015081
18330.0 0.00015058
18350.0 0.00015035
18370.0 0.0001501
18390.0 0.00014985
18410.0 0.0001496
18430.0 0.00014934
18450.0 0.00014907
18470.0 0.0001488
18490.0 0.00014852
18510.0 0.00014824
18530.0 0.00014794
18550.0 0.00014765
18570.0 0.00014735
18590.0 0.00014704
18610.0 0.00014672
18630.0 0.00014641
18650.0 0.00014608
18670.0 0.00014574
18690.0 0.00014541
18710.0 0.00014507
18730.0 0.00014472
18750.0 0.00014437
18770.0 0.00014401
18790.0 0.00014364
18810.0 0.00014326
18830.0 0.00014289
18850.0 0.00014251
18870.0 0.00014211
18890.0 0.00014172
18910.0 0.00014133
18930.0 0.00014092
18950.0 0.00014051
18970.0 0.0001401
18990.0 0.00013968
19010.0 0.00013924
19030.0 0.00013882
19050.0 0.00013838
19070.0 0.00013794
19090.0 0.00013749
19110.0 0.00013705
19130.0 0.00013659
19150.0 0.00013612
19170.0 0.00013566
19190.0 0.00013519
19210.0 0.00013471
19230.0 0.00013423
19250.0 0.00013375
19270.0 0.00013326
19290.0 0.00013277
19310.0 0.00013228
19330.0 0.00013178
19350.0 0.00013126
19370.0 0.00013075
19390.0 0.00013025
19410.0 0.00012973
19430.0 0.0001292
19450.0 0.00012868
19470.0 0.00012815
19490.0 0.00012762
19510.0 0.00012708
19530.0 0.00012655
19550.0 0.000126
19570.0 0.00012545
19590.0 0.00012491
19610.0 0.00012435
19630.0 0.00012379
19650.0 0.00012324
19670.0 0.00012268
19690.0 0.00012211
19710.0 0.00012154
19730.0 0.00012098
19750.0 0.00012041
19770.0 0.00011983
19790.0 0.00011925
19810.0 0.00011868
19830.0 0.00011809
19850.0 0.0001175
19870.0 0.00011691
19890.0 0.0001163
19910.0 0.00011565
19930.0 0.00011497
19950.0 0.00011423
19970.0 0.00011338
19990.0 0.00011242
20010.0 0.00011136
20030.0 0.00011015
20050.0 0.00010879
20070.0 0.00010736
20090.0 0.00010585
20110.0 0.00010421
20130.0 0.00010258
20150.0 0.00010097
20170.0 9.9338e-05
20190.0 9.7699e-05
20210.0 9.6139e-05
20230.0 9.4612e-05
20250.0 9.308e-05
20270.0 9.1623e-05
20290.0 9.0247e-05
20310.0 8.8899e-05
20330.0 8.7582e-05
20350.0 8.6392e-05
20370.0 8.5252e-05
20390.0 8.4153e-05
20410.0 8.3133e-05
20430.0 8.2194e-05
20450.0 8.1284e-05
20470.0 8.0437e-05
20490.0 7.9665e-05
20510.0 7.8942e-05
20530.0 7.8258e-05
20550.0 7.7631e-05
20570.0 7.7058e-05
20590.0 7.6515e-05
20610.0 7.6009e-05
20630.0 7.5542e-05
20650.0 7.5101e-05
20670.0 7.4681e-05
20690.0 7.4285e-05
20710.0 7.3904e-05
20730.0 7.3531e-05
20750.0 7.3163e-05
20770.0 7.2796e-05
20790.0 7.2423e-05
20810.0 7.2037e-05
20830.0 7.1638e-05
20850.0 7.1222e-05
20870.0 7.0776e-05
20890.0 7.0303e-05
20910.0 6.9809e-05
20930.0 6.9281e-05
20950.0 6.8716e-05
20970.0 6.8128e-05
20990.0 6.7516e-05
21010.0 6.6858e-05
21030.0 6.6178e-05
21050.0 6.5486e-05
21070.0 6.4765e-05
21090.0 6.4011e-05
21110.0 6.3265e-05
21130.0 6.2514e-05
21150.0 6.1739e-05
21170.0 6.0965e-05
21190.0 6.0211e-05
21210.0 5.9441e-05
21230.0 5.8669e-05
21250.0 5.7927e-05
21270.0 5.7199e-05
21290.0 5.6469e-05
21310.0 5.576e-05
21330.0 5.5089e-05
21350.0 5.442e-05
21370.0 5.3766e-05
21390.0 5.3143e-05
21410.0 5.254e-05
21430.0 5.1935e-05
21450.0 5.1359e-05
21470.0 5.0809e-05
21490.0 5.0264e-05
21510.0 4.9728e-05
21530.0 4.9216e-05
21550.0 4.8712e-05
21570.0 4.8207e-05
21590.0 4.7716e-05
21610.0 4.7239e-05
21630.0 4.6759e-05
21650.0 4.6277e-05
21670.0 4.5818e-05
21690.0 4.5359e-05
21710.0 4.4896e-05
21730.0 4.4441e-05
21750.0 4.3998e-05
21770.0 4.3542e-05
21790.0 4.3089e-05
21810.0 4.2648e-05
21830.0 4.2205e-05
21850.0 4.1754e-05
21870.0 4.131e-05
21890.0 4.0875e-05
21910.0 4.0429e-05
21930.0 3.9982e-05
21950.0 3.9545e-05
21970.0 3.9103e-05
21990.0 3.8648e-05
22010.0 3.8206e-05
22030.0 3.7769e-05
22050.0 3.7325e-05
22070.0 3.6883e-05
22090.0 3.6457e-05
22110.0 3.6029e-05
22130.0 3.56e-05
22150.0 3.5185e-05
22170.0 3.4783e-05
22190.0 3.4376e-05
22210.0 3.3981e-05
22230.0 3.3609e-05
22250.0 3.3242e-05
22270.0 3.288e-05
22290.0 3.2538e-05
22310.0 3.2208e-05
22330.0 3.1878e-05
22350.0 3.1563e-05
22370.0 3.1262e-05
22390.0 3.0966e-05
22410.0 3.0672e-05
22430.0 3.0393e-05
22450.0 3.0121e-05
22470.0 2.9847e-05
22490.0 2.9579e-05
22510.0 2.932e-05
22530.0 2.9057e-05
22550.0 2.8793e-05
22570.0 2.8538e-05
22590.0 2.8286e-05
22610.0 2.8029e-05
22630.0 2.7777e-05
22650.0 2.7535e-05
22670.0 2.729e-05
22690.0 2.7048e-05
22710.0 2.6816e-05
22730.0 2.659e-05
22750.0 2.6362e-05
22770.0 2.6147e-05
22790.0 2.5946e-05
22810.0 2.575e-05
22830.0 2.5563e-05
22850.0 2.5394e-05
22870.0 2.5236e-05
22890.0 2.5088e-05
22910.0 2.4959e-05
22930.0 2.4848e-05
22950.0 2.4753e-05
