#lamb flux
1010.0 1.6495e-08
1030.0 1.8243e-08
1050.0 2.0255e-08
1070.0 2.2519e-08
1090.0 2.509e-08
1110.0 2.7728e-08
1130.0 3.0382e-08
1150.0 3.3163e-08
1170.0 3.6032e-08
1190.0 3.8751e-08
1210.0 4.1508e-08
1230.0 4.4357e-08
1250.0 4.7148e-08
1270.0 4.9858e-08
1290.0 5.2722e-08
1310.0 5.5584e-08
1330.0 5.8329e-08
1350.0 6.1104e-08
1370.0 6.397e-08
1390.0 6.6763e-08
1410.0 6.9474e-08
1430.0 7.2309e-08
1450.0 7.5143e-08
1470.0 7.7882e-08
1490.0 8.0651e-08
1510.0 8.3576e-08
1530.0 8.6348e-08
1550.0 8.9082e-08
1570.0 9.1912e-08
1590.0 9.4746e-08
1610.0 9.7454e-08
1630.0 1.0025e-07
1650.0 1.0311e-07
1670.0 1.0589e-07
1690.0 1.0863e-07
1710.0 1.1148e-07
1730.0 1.1435e-07
1750.0 1.1704e-07
1770.0 1.1983e-07
1790.0 1.2267e-07
1810.0 1.2542e-07
1830.0 1.2813e-07
1850.0 1.3101e-07
1870.0 1.3382e-07
1890.0 1.3654e-07
1910.0 1.3931e-07
1930.0 1.4217e-07
1950.0 1.4489e-07
1970.0 1.476e-07
1990.0 1.5041e-07
2010.0 1.5318e-07
2030.0 1.5585e-07
2050.0 1.5862e-07
2070.0 1.6146e-07
2090.0 1.6414e-07
2110.0 1.6683e-07
2130.0 1.696e-07
2150.0 1.7232e-07
2170.0 1.7493e-07
2190.0 1.7765e-07
2210.0 1.8038e-07
2230.0 1.8301e-07
2250.0 1.8563e-07
2270.0 1.8838e-07
2290.0 1.9104e-07
2310.0 1.936e-07
2330.0 1.9626e-07
2350.0 1.9899e-07
2370.0 2.0171e-07
2390.0 2.0466e-07
2410.0 2.0815e-07
2430.0 2.1217e-07
2450.0 2.1697e-07
2470.0 2.2312e-07
2490.0 2.3088e-07
2510.0 2.3969e-07
2530.0 2.503e-07
2550.0 2.6358e-07
2570.0 2.801e-07
2590.0 3.0159e-07
2610.0 3.3376e-07
2630.0 3.797e-07
2650.0 4.3976e-07
2670.0 5.1742e-07
2690.0 6.1285e-07
2710.0 7.1472e-07
2730.0 8.1538e-07
2750.0 9.1452e-07
2770.0 1.0008e-06
2790.0 1.0692e-06
2810.0 1.1236e-06
2830.0 1.166e-06
2850.0 1.195e-06
2870.0 1.2163e-06
2890.0 1.2331e-06
2910.0 1.2466e-06
2930.0 1.2576e-06
2950.0 1.2681e-06
2970.0 1.2783e-06
2990.0 1.2879e-06
3010.0 3.6404e-05
3030.0 3.6676e-05
3050.0 3.6939e-05
3070.0 3.7164e-05
3090.0 3.7358e-05
3110.0 3.7478e-05
3130.0 3.7473e-05
3150.0 3.7307e-05
3170.0 3.6907e-05
3190.0 3.628e-05
3210.0 3.5484e-05
3230.0 3.4573e-05
3250.0 3.3674e-05
3270.0 3.3017e-05
3290.0 3.2652e-05
3310.0 3.2711e-05
3330.0 3.3185e-05
3350.0 3.4009e-05
3370.0 3.5186e-05
3390.0 3.667e-05
3410.0 3.8284e-05
3430.0 4.0097e-05
3450.0 4.2183e-05
3470.0 4.4462e-05
3490.0 4.6877e-05
3510.0 4.9607e-05
3530.0 5.2529e-05
3550.0 5.5489e-05
3570.0 5.8575e-05
3590.0 6.1933e-05
3610.0 6.5392e-05
3630.0 6.8841e-05
3650.0 7.2419e-05
3670.0 7.5685e-05
3690.0 7.8127e-05
3710.0 7.9527e-05
3730.0 7.9573e-05
3750.0 7.8465e-05
3770.0 7.8031e-05
3790.0 7.7566e-05
3810.0 7.566e-05
3830.0 7.8002e-05
3850.0 8.7216e-05
3870.0 9.2273e-05
3890.0 9.1852e-05
3910.0 9.2244e-05
3930.0 9.4672e-05
3950.0 9.6167e-05
3970.0 8.7617e-05
3990.0 7.539e-05
4010.0 0.00022595
4030.0 0.00027378
4050.0 0.00031387
4070.0 0.00027233
4090.0 0.00024665
4110.0 0.00021765
4130.0 0.00020032
4150.0 0.00021308
4170.0 0.00020989
4190.0 0.00022373
4210.0 0.00022169
4230.0 0.00023448
4250.0 0.0002774
4270.0 0.00028066
4290.0 0.00025863
4310.0 0.00026873
4330.0 0.00028585
4350.0 0.00032051
4370.0 0.00036474
4390.0 0.00034227
4410.0 0.00025288
4430.0 0.00021408
4450.0 0.00019671
4470.0 0.00015099
4490.0 0.00016293
4510.0 0.00024611
4530.0 0.00028384
4550.0 0.0002863
4570.0 0.00032216
4590.0 0.00036697
4610.0 0.00049496
4630.0 0.00064285
4650.0 0.00069716
4670.0 0.00064564
4690.0 0.00061605
4710.0 0.00065121
4730.0 0.00061456
4750.0 0.00045946
4770.0 0.00033703
4790.0 0.00031472
4810.0 0.00029998
4830.0 0.00027463
4850.0 0.00030136
4870.0 0.00039813
4890.0 0.0004695
4910.0 0.00041193
4930.0 0.0003645
4950.0 0.00040046
4970.0 0.00051356
4990.0 0.000696
5010.0 0.00080065
5030.0 0.00070599
5050.0 0.00047765
5070.0 0.00031479
5090.0 0.00025383
5110.0 0.00026104
5130.0 0.00030128
5150.0 0.00032642
5170.0 0.00032152
5190.0 0.00030044
5210.0 0.00031403
5230.0 0.00033011
5250.0 0.00035577
5270.0 0.00038385
5290.0 0.00042539
5310.0 0.00049514
5330.0 0.00054794
5350.0 0.00054445
5370.0 0.00057189
5390.0 0.00065625
5410.0 0.00065567
5430.0 0.00057985
5450.0 0.00053275
5470.0 0.00056568
5490.0 0.00069111
5510.0 0.00086413
5530.0 0.00099111
5550.0 0.00095793
5570.0 0.00087083
5590.0 0.0007572
5610.0 0.00069831
5630.0 0.00067714
5650.0 0.00064492
5670.0 0.00061111
5690.0 0.00054633
5710.0 0.00053269
5730.0 0.00049069
5750.0 0.00034596
5770.0 0.00026991
5790.0 0.00030587
5810.0 0.00034538
5830.0 0.00042383
5850.0 0.00050452
5870.0 0.00055977
5890.0 0.00056926
5910.0 0.00055849
5930.0 0.00053161
5950.0 0.00054171
5970.0 0.00061749
5990.0 0.0005806
6010.0 0.00048672
6030.0 0.00041121
6050.0 0.00035811
6070.0 0.00035615
6090.0 0.00038619
6110.0 0.00043182
6130.0 0.00043844
6150.0 0.00037723
6170.0 0.00033185
6190.0 0.00037345
6210.0 0.00049369
6230.0 0.00064787
6250.0 0.00070173
6270.0 0.00061322
6290.0 0.00051593
6310.0 0.00040277
6330.0 0.0003086
6350.0 0.00027526
6370.0 0.00028947
6390.0 0.00033465
6410.0 0.00041263
6430.0 0.00048184
6450.0 0.00055135
6470.0 0.00063131
6490.0 0.00076258
6510.0 0.00085266
6530.0 0.00083651
6550.0 0.00075643
6570.0 0.00064214
6590.0 0.00057904
6610.0 0.00049928
6630.0 0.00045233
6650.0 0.00042758
6670.0 0.00041538
6690.0 0.00037532
6710.0 0.00034118
6730.0 0.00024574
6750.0 0.00024363
6770.0 0.00026481
6790.0 0.00030438
6810.0 0.00027851
6830.0 0.00028679
6850.0 0.00026824
6870.0 0.00024504
6890.0 0.00023527
6910.0 0.00025071
6930.0 0.00023483
6950.0 0.0002416
6970.0 0.00025412
6990.0 0.00028844
7010.0 0.0002909
7030.0 0.00029552
7050.0 0.00028183
7070.0 0.00026853
7090.0 0.00026932
7110.0 0.00027711
7130.0 0.00029821
7150.0 0.00031672
7170.0 0.00034948
7190.0 0.00038418
7210.0 0.00037751
7230.0 0.00038808
7250.0 0.00041706
7270.0 0.00045449
7290.0 0.00053943
7310.0 0.00058534
7330.0 0.00056578
7350.0 0.00051171
7370.0 0.00044523
7390.0 0.00043193
7410.0 0.00045901
7430.0 0.00051013
7450.0 0.00055563
7470.0 0.00055053
7490.0 0.00050197
7510.0 0.00056861
7530.0 0.00056239
7550.0 0.00050548
7570.0 0.00039488
7590.0 0.00027146
7610.0 0.000233
7630.0 0.00026473
7650.0 0.000313
7670.0 0.00038956
7690.0 0.00042868
7710.0 0.00044673
7730.0 0.00046946
7750.0 0.00052702
7770.0 0.00053531
7790.0 0.00049171
7810.0 0.00044865
7830.0 0.00046266
7850.0 0.00044975
7870.0 0.00041234
7890.0 0.00034645
7910.0 0.00028161
7930.0 0.0002689
7950.0 0.00024498
7970.0 0.00022677
7990.0 0.00022547
8010.0 1.6699e-05
8030.0 1.6482e-05
8050.0 1.626e-05
8070.0 1.6473e-05
8090.0 1.77e-05
8110.0 1.7398e-05
8130.0 1.4351e-05
8150.0 1.3976e-05
8170.0 1.2039e-05
8190.0 1.1409e-05
8210.0 1.4816e-05
8230.0 1.6496e-05
8250.0 1.4867e-05
8270.0 1.294e-05
8290.0 1.2614e-05
8310.0 9.7083e-06
8330.0 6.5434e-06
8350.0 4.6437e-06
8370.0 2.9258e-06
8390.0 5.3482e-06
8410.0 6.2321e-06
8430.0 7.682e-06
8450.0 9.0208e-06
8470.0 1.1212e-05
8490.0 1.1133e-05
8510.0 1.0951e-05
8530.0 1.1429e-05
8550.0 1.542e-05
8570.0 1.8255e-05
8590.0 1.9697e-05
8610.0 2.4882e-05
8630.0 2.9974e-05
8650.0 3.1356e-05
8670.0 3.3322e-05
8690.0 3.3508e-05
8710.0 3.0346e-05
8730.0 2.8227e-05
8750.0 2.4915e-05
8770.0 2.3641e-05
8790.0 2.3226e-05
8810.0 2.2256e-05
8830.0 1.7797e-05
8850.0 1.3029e-05
8870.0 9.9758e-06
8890.0 9.7529e-06
8910.0 1.1177e-05
8930.0 1.2713e-05
8950.0 1.2956e-05
8970.0 1.3018e-05
8990.0 1.161e-05
9010.0 0.00012167
9030.0 0.00011025
9050.0 0.00011078
9070.0 0.00011165
9090.0 0.00011242
9110.0 0.00011337
9130.0 0.0001141
9150.0 0.00011467
9170.0 0.00011527
9190.0 0.00011592
9210.0 0.0001166
9230.0 0.00011732
9250.0 0.00011805
9270.0 0.00011881
9290.0 0.00011959
9310.0 0.00012037
9330.0 0.00012117
9350.0 0.000122
9370.0 0.00012284
9390.0 0.00012369
9410.0 0.00012456
9430.0 0.00012546
9450.0 0.00012636
9470.0 0.00012727
9490.0 0.00012822
9510.0 0.00012917
9530.0 0.00013012
9550.0 0.00013112
9570.0 0.00013212
9590.0 0.00013313
9610.0 0.00013416
9630.0 0.00013522
9650.0 0.00013628
9670.0 0.00013735
9690.0 0.00013844
9710.0 0.00013955
9730.0 0.00014067
9750.0 0.0001418
9770.0 0.00014296
9790.0 0.00014412
9810.0 0.00014529
9830.0 0.00014648
9850.0 0.00014769
9870.0 0.0001489
9890.0 0.00015012
9910.0 0.00015136
9930.0 0.00015261
9950.0 0.00015386
9970.0 0.00015514
9990.0 0.00015643
10010.0 0.00013574
10030.0 0.00013685
10050.0 0.00013799
10070.0 0.00013917
10090.0 0.00014027
10110.0 0.00014141
10130.0 0.00014255
10150.0 0.00014369
10170.0 0.00014484
10190.0 0.00014601
10210.0 0.00014716
10230.0 0.00014832
10250.0 0.00014949
10270.0 0.00015066
10290.0 0.00015182
10310.0 0.00015299
10330.0 0.00015417
10350.0 0.00015533
10370.0 0.00015649
10390.0 0.00015766
10410.0 0.00015883
10430.0 0.00015997
10450.0 0.00016113
10470.0 0.00016229
10490.0 0.00016343
10510.0 0.00016456
10530.0 0.00016571
10550.0 0.00016684
10570.0 0.00016794
10590.0 0.00016906
10610.0 0.00017017
10630.0 0.00017125
10650.0 0.00017233
10670.0 0.00017341
10690.0 0.00017448
10710.0 0.00017552
10730.0 0.00017657
10750.0 0.00017761
10770.0 0.00017862
10790.0 0.00017961
10810.0 0.00018061
10830.0 0.00018157
10850.0 0.00018248
10870.0 0.00018337
10890.0 0.00018415
10910.0 0.00018475
10930.0 0.00018509
10950.0 0.00018501
10970.0 0.00018438
10990.0 0.00018315
11010.0 0.0001811
11030.0 0.00017822
11050.0 0.00017471
11070.0 0.00017051
11090.0 0.00016546
11110.0 0.00016024
11130.0 0.0001548
11150.0 0.00014894
11170.0 0.0001429
11190.0 0.00013704
11210.0 0.00013099
11230.0 0.00012478
11250.0 0.00011885
11270.0 0.00011316
11290.0 0.00010745
11310.0 0.00010205
11330.0 9.7291e-05
11350.0 9.2795e-05
11370.0 8.864e-05
11390.0 8.5046e-05
11410.0 8.1902e-05
11430.0 7.898e-05
11450.0 7.6462e-05
11470.0 7.4285e-05
11490.0 7.226e-05
11510.0 7.0308e-05
11530.0 6.8497e-05
11550.0 6.6698e-05
11570.0 6.4779e-05
11590.0 6.2791e-05
11610.0 6.0768e-05
11630.0 5.8566e-05
11650.0 5.6208e-05
11670.0 5.3885e-05
11690.0 5.1528e-05
11710.0 4.9097e-05
11730.0 4.6742e-05
11750.0 4.4562e-05
11770.0 4.2425e-05
11790.0 4.0421e-05
11810.0 3.8657e-05
11830.0 3.708e-05
11850.0 3.5627e-05
11870.0 3.4412e-05
11890.0 3.3402e-05
11910.0 3.2514e-05
11930.0 3.1751e-05
11950.0 3.1116e-05
11970.0 3.0548e-05
11990.0 3.0011e-05
12010.0 2.9515e-05
12030.0 2.9037e-05
12050.0 2.8542e-05
12070.0 2.8028e-05
12090.0 2.7532e-05
12110.0 2.7028e-05
12130.0 2.6524e-05
12150.0 2.6059e-05
12170.0 2.5653e-05
12190.0 2.5302e-05
12210.0 2.5057e-05
12230.0 2.4938e-05
12250.0 2.4957e-05
12270.0 2.5146e-05
12290.0 2.5501e-05
12310.0 2.6012e-05
12330.0 2.6726e-05
12350.0 2.7617e-05
12370.0 2.8631e-05
12390.0 2.9801e-05
12410.0 3.1171e-05
12430.0 3.2564e-05
12450.0 3.4007e-05
12470.0 3.5541e-05
12490.0 3.7081e-05
12510.0 3.8527e-05
12530.0 3.9964e-05
12550.0 4.1351e-05
12570.0 4.2576e-05
12590.0 4.3651e-05
12610.0 4.4609e-05
12630.0 4.5372e-05
12650.0 4.5899e-05
12670.0 4.6246e-05
12690.0 4.6384e-05
12710.0 4.6308e-05
12730.0 4.6039e-05
12750.0 4.556e-05
12770.0 4.4903e-05
12790.0 4.4106e-05
12810.0 4.3155e-05
12830.0 4.2054e-05
12850.0 4.0902e-05
12870.0 3.9684e-05
12890.0 3.8367e-05
12910.0 3.7028e-05
12930.0 3.5708e-05
12950.0 3.4331e-05
12970.0 3.2929e-05
12990.0 3.1602e-05
13010.0 3.0292e-05
13030.0 2.8968e-05
13050.0 2.7696e-05
13070.0 2.6504e-05
13090.0 2.5308e-05
13110.0 2.4151e-05
13130.0 2.3084e-05
13150.0 2.2074e-05
13170.0 2.1085e-05
13190.0 2.0205e-05
13210.0 1.943e-05
13230.0 1.8722e-05
13250.0 1.8112e-05
13270.0 1.7631e-05
13290.0 1.7257e-05
13310.0 1.6999e-05
13330.0 1.6882e-05
13350.0 1.6896e-05
13370.0 1.7047e-05
13390.0 1.7345e-05
13410.0 1.7747e-05
13430.0 1.827e-05
13450.0 1.8916e-05
13470.0 1.9633e-05
13490.0 2.0393e-05
13510.0 2.125e-05
13530.0 2.2118e-05
13550.0 2.2949e-05
13570.0 2.3769e-05
13590.0 2.4567e-05
13610.0 2.5278e-05
13630.0 2.5898e-05
13650.0 2.6465e-05
13670.0 2.6935e-05
13690.0 2.7298e-05
13710.0 2.758e-05
13730.0 2.778e-05
13750.0 2.7881e-05
13770.0 2.7904e-05
13790.0 2.7853e-05
13810.0 2.773e-05
13830.0 2.7548e-05
13850.0 2.7302e-05
13870.0 2.6992e-05
13890.0 2.6637e-05
13910.0 2.6237e-05
13930.0 2.5773e-05
13950.0 2.5268e-05
13970.0 2.4751e-05
13990.0 2.4188e-05
14010.0 2.3589e-05
14030.0 2.2992e-05
14050.0 2.239e-05
14070.0 2.1755e-05
14090.0 2.1146e-05
14110.0 2.0574e-05
14130.0 2.0019e-05
14150.0 1.9497e-05
14170.0 1.9052e-05
14190.0 1.8666e-05
14210.0 1.834e-05
14230.0 1.8098e-05
14250.0 1.7941e-05
14270.0 1.7865e-05
14290.0 1.7881e-05
14310.0 1.7981e-05
14330.0 1.816e-05
14350.0 1.8423e-05
14370.0 1.8752e-05
14390.0 1.9124e-05
14410.0 1.9563e-05
14430.0 2.0045e-05
14450.0 2.0537e-05
14470.0 2.1048e-05
14490.0 2.1591e-05
14510.0 2.211e-05
14530.0 2.2604e-05
14550.0 2.3097e-05
14570.0 2.357e-05
14590.0 2.4001e-05
14610.0 2.4418e-05
14630.0 2.483e-05
14650.0 2.5214e-05
14670.0 2.5585e-05
14690.0 2.5972e-05
14710.0 2.6379e-05
14730.0 2.6785e-05
14750.0 2.7236e-05
14770.0 2.7747e-05
14790.0 2.8301e-05
14810.0 2.8901e-05
14830.0 2.9612e-05
14850.0 3.0385e-05
14870.0 3.1191e-05
14890.0 3.2062e-05
14910.0 3.2986e-05
14930.0 3.3874e-05
14950.0 3.4704e-05
14970.0 3.549e-05
14990.0 3.615e-05
15010.0 3.6654e-05
15030.0 3.7027e-05
15050.0 3.7274e-05
15070.0 3.7394e-05
15090.0 3.7437e-05
15110.0 3.7425e-05
15130.0 3.7377e-05
15150.0 3.7314e-05
15170.0 3.724e-05
15190.0 3.7159e-05
15210.0 3.708e-05
15230.0 3.7002e-05
15250.0 3.692e-05
15270.0 3.6839e-05
15290.0 3.6763e-05
15310.0 3.6684e-05
15330.0 3.6605e-05
15350.0 3.6528e-05
15370.0 3.6453e-05
15390.0 3.6373e-05
15410.0 3.6296e-05
15430.0 3.6222e-05
15450.0 3.6145e-05
15470.0 3.6068e-05
15490.0 3.5995e-05
15510.0 3.5921e-05
15530.0 3.5845e-05
15550.0 3.5771e-05
15570.0 3.5699e-05
15590.0 3.5625e-05
15610.0 3.5549e-05
15630.0 3.5477e-05
15650.0 3.5406e-05
15670.0 3.5331e-05
15690.0 3.5259e-05
15710.0 3.519e-05
15730.0 3.5117e-05
15750.0 3.5044e-05
15770.0 3.4974e-05
15790.0 3.4903e-05
15810.0 3.4829e-05
15830.0 3.4758e-05
15850.0 3.469e-05
15870.0 3.4618e-05
15890.0 3.4547e-05
15910.0 3.4478e-05
15930.0 3.4408e-05
15950.0 3.4336e-05
15970.0 3.4266e-05
15990.0 3.4198e-05
16010.0 3.4127e-05
16030.0 3.4055e-05
16050.0 3.3987e-05
16070.0 3.3918e-05
16090.0 3.3847e-05
16110.0 3.3778e-05
16130.0 3.3711e-05
16150.0 3.3639e-05
16170.0 3.3568e-05
16190.0 3.35e-05
16210.0 3.3431e-05
16230.0 3.3359e-05
16250.0 3.3291e-05
16270.0 3.3223e-05
16290.0 3.3152e-05
16310.0 3.3082e-05
16330.0 3.3014e-05
16350.0 3.2944e-05
16370.0 3.2871e-05
16390.0 3.2803e-05
16410.0 3.2734e-05
16430.0 3.2663e-05
16450.0 3.2592e-05
16470.0 3.2525e-05
16490.0 3.2454e-05
16510.0 3.2382e-05
16530.0 3.2312e-05
16550.0 3.2243e-05
16570.0 3.217e-05
16590.0 3.2098e-05
16610.0 3.203e-05
16630.0 3.1959e-05
16650.0 3.1887e-05
16670.0 3.1817e-05
16690.0 3.1747e-05
16710.0 3.1673e-05
16730.0 3.1601e-05
16750.0 3.1531e-05
16770.0 3.1458e-05
16790.0 3.1384e-05
16810.0 3.1314e-05
16830.0 3.1243e-05
16850.0 3.1168e-05
16870.0 3.1096e-05
16890.0 3.1025e-05
16910.0 3.095e-05
16930.0 3.0875e-05
16950.0 3.0803e-05
16970.0 3.073e-05
16990.0 3.0655e-05
17010.0 3.0581e-05
17030.0 3.051e-05
17050.0 3.0434e-05
17070.0 3.0358e-05
17090.0 3.0285e-05
17110.0 3.0211e-05
17130.0 3.0133e-05
17150.0 3.0058e-05
17170.0 2.9984e-05
17190.0 2.9908e-05
17210.0 2.9831e-05
17230.0 2.9758e-05
17250.0 2.9681e-05
17270.0 2.9603e-05
17290.0 2.9526e-05
17310.0 2.9451e-05
17330.0 2.9373e-05
17350.0 2.9294e-05
17370.0 2.9219e-05
17390.0 2.9142e-05
17410.0 2.9062e-05
17430.0 2.8985e-05
17450.0 2.8909e-05
17470.0 2.8828e-05
17490.0 2.8748e-05
17510.0 2.8672e-05
17530.0 2.8593e-05
17550.0 2.8512e-05
17570.0 2.8433e-05
17590.0 2.8356e-05
17610.0 2.8274e-05
17630.0 2.8194e-05
17650.0 2.8116e-05
17670.0 2.8036e-05
17690.0 2.7952e-05
17710.0 2.7873e-05
17730.0 2.7793e-05
17750.0 2.7711e-05
17770.0 2.763e-05
17790.0 2.7551e-05
17810.0 2.7468e-05
17830.0 2.7385e-05
17850.0 2.7304e-05
17870.0 2.7223e-05
17890.0 2.7139e-05
17910.0 2.7056e-05
17930.0 2.6976e-05
17950.0 2.6893e-05
17970.0 2.6809e-05
17990.0 2.6728e-05
18010.0 2.6646e-05
18030.0 2.656e-05
18050.0 2.6476e-05
18070.0 2.6395e-05
18090.0 2.631e-05
18110.0 2.6225e-05
18130.0 2.6143e-05
18150.0 2.606e-05
18170.0 2.5974e-05
18190.0 2.589e-05
18210.0 2.5808e-05
18230.0 2.5722e-05
18250.0 2.5635e-05
18270.0 2.5552e-05
18290.0 2.5468e-05
18310.0 2.5381e-05
18330.0 2.5296e-05
18350.0 2.5214e-05
18370.0 2.5127e-05
18390.0 2.504e-05
18410.0 2.4957e-05
18430.0 2.4871e-05
18450.0 2.4783e-05
18470.0 2.4698e-05
18490.0 2.4614e-05
18510.0 2.4527e-05
18530.0 2.444e-05
18550.0 2.4356e-05
18570.0 2.427e-05
18590.0 2.4181e-05
18610.0 2.4096e-05
18630.0 2.4011e-05
18650.0 2.3923e-05
18670.0 2.3835e-05
18690.0 2.3751e-05
18710.0 2.3665e-05
18730.0 2.3577e-05
18750.0 2.3491e-05
18770.0 2.3406e-05
18790.0 2.3316e-05
18810.0 2.3229e-05
18830.0 2.3144e-05
18850.0 2.3057e-05
18870.0 2.2968e-05
18890.0 2.2882e-05
18910.0 2.2797e-05
18930.0 2.2708e-05
18950.0 2.2621e-05
18970.0 2.2536e-05
18990.0 2.2448e-05
19010.0 2.2358e-05
19030.0 2.2273e-05
19050.0 2.2187e-05
19070.0 2.2098e-05
19090.0 2.2011e-05
19110.0 2.1926e-05
19130.0 2.1838e-05
19150.0 2.1749e-05
19170.0 2.1663e-05
19190.0 2.1577e-05
19210.0 2.1487e-05
19230.0 2.1399e-05
19250.0 2.1315e-05
19270.0 2.1227e-05
19290.0 2.1139e-05
19310.0 2.1054e-05
19330.0 2.0968e-05
19350.0 2.0877e-05
19370.0 2.079e-05
19390.0 2.0705e-05
19410.0 2.0617e-05
19430.0 2.0528e-05
19450.0 2.0443e-05
19470.0 2.0357e-05
19490.0 2.0269e-05
19510.0 2.0182e-05
19530.0 2.0097e-05
19550.0 2.0008e-05
19570.0 1.9919e-05
19590.0 1.9835e-05
19610.0 1.9748e-05
19630.0 1.966e-05
19650.0 1.9574e-05
19670.0 1.949e-05
19690.0 1.9401e-05
19710.0 1.9314e-05
19730.0 1.9229e-05
19750.0 1.9143e-05
19770.0 1.9053e-05
19790.0 1.8968e-05
19810.0 1.8883e-05
19830.0 1.8795e-05
19850.0 1.8707e-05
19870.0 1.862e-05
19890.0 1.8527e-05
19910.0 1.8425e-05
19930.0 1.8316e-05
19950.0 1.8191e-05
19970.0 1.8037e-05
19990.0 1.7851e-05
20010.0 1.5882e-05
20030.0 1.5652e-05
20050.0 1.5383e-05
20070.0 1.5092e-05
20090.0 1.4778e-05
20110.0 1.4424e-05
20130.0 1.4065e-05
20150.0 1.3709e-05
20170.0 1.334e-05
20190.0 1.2966e-05
20210.0 1.2612e-05
20230.0 1.2267e-05
20250.0 1.1922e-05
20270.0 1.1601e-05
20290.0 1.1308e-05
20310.0 1.103e-05
20330.0 1.077e-05
20350.0 1.0555e-05
20370.0 1.0363e-05
20390.0 1.0195e-05
20410.0 1.0059e-05
20430.0 9.9547e-06
20450.0 9.8719e-06
20470.0 9.8164e-06
20490.0 9.7866e-06
20510.0 9.778e-06
20530.0 9.7901e-06
20550.0 9.8203e-06
20570.0 9.8643e-06
20590.0 9.9238e-06
20610.0 9.9959e-06
20630.0 1.0075e-05
20650.0 1.0164e-05
20670.0 1.0266e-05
20690.0 1.0369e-05
20710.0 1.0476e-05
20730.0 1.0592e-05
20750.0 1.0712e-05
20770.0 1.0831e-05
20790.0 1.0955e-05
20810.0 1.1087e-05
20830.0 1.1218e-05
20850.0 1.135e-05
20870.0 1.149e-05
20890.0 1.1634e-05
20910.0 1.1773e-05
20930.0 1.1917e-05
20950.0 1.2066e-05
20970.0 1.2211e-05
20990.0 1.2354e-05
21010.0 1.2505e-05
21030.0 1.2652e-05
21050.0 1.2793e-05
21070.0 1.2933e-05
21090.0 1.3074e-05
21110.0 1.3203e-05
21130.0 1.3323e-05
21150.0 1.344e-05
21170.0 1.3546e-05
21190.0 1.3637e-05
21210.0 1.3719e-05
21230.0 1.3787e-05
21250.0 1.3836e-05
21270.0 1.3866e-05
21290.0 1.3878e-05
21310.0 1.3867e-05
21330.0 1.3834e-05
21350.0 1.3777e-05
21370.0 1.3692e-05
21390.0 1.3585e-05
21410.0 1.3454e-05
21430.0 1.3288e-05
21450.0 1.3101e-05
21470.0 1.2898e-05
21490.0 1.2668e-05
21510.0 1.2416e-05
21530.0 1.2159e-05
21550.0 1.1891e-05
21570.0 1.1605e-05
21590.0 1.1323e-05
21610.0 1.1051e-05
21630.0 1.0779e-05
21650.0 1.0513e-05
21670.0 1.0282e-05
21690.0 1.0069e-05
21710.0 9.8778e-06
21730.0 9.721e-06
21750.0 9.5999e-06
21770.0 9.5077e-06
21790.0 9.4547e-06
21810.0 9.44e-06
21830.0 9.4609e-06
21850.0 9.52e-06
21870.0 9.6123e-06
21890.0 9.7314e-06
21910.0 9.8842e-06
21930.0 1.0063e-05
21950.0 1.0258e-05
21970.0 1.0473e-05
21990.0 1.0714e-05
22010.0 1.0955e-05
22030.0 1.12e-05
22050.0 1.1458e-05
22070.0 1.1717e-05
22090.0 1.1962e-05
22110.0 1.2209e-05
22130.0 1.2455e-05
22150.0 1.2685e-05
22170.0 1.2903e-05
22190.0 1.3118e-05
22210.0 1.3318e-05
22230.0 1.3494e-05
22250.0 1.366e-05
22270.0 1.3813e-05
22290.0 1.3944e-05
22310.0 1.4056e-05
22330.0 1.4154e-05
22350.0 1.4231e-05
22370.0 1.4284e-05
22390.0 1.4318e-05
22410.0 1.4329e-05
22430.0 1.4315e-05
22450.0 1.4278e-05
22470.0 1.4215e-05
22490.0 1.4125e-05
22510.0 1.4013e-05
22530.0 1.3871e-05
22550.0 1.3697e-05
22570.0 1.3504e-05
22590.0 1.3287e-05
22610.0 1.3037e-05
