#lamb flux
1010.0 2.2975e-07
1030.0 2.5218e-07
1050.0 2.7797e-07
1070.0 3.0701e-07
1090.0 3.4e-07
1110.0 3.7383e-07
1130.0 4.0788e-07
1150.0 4.4355e-07
1170.0 4.8034e-07
1190.0 5.1522e-07
1210.0 5.5058e-07
1230.0 5.8712e-07
1250.0 6.2292e-07
1270.0 6.5768e-07
1290.0 6.9441e-07
1310.0 7.3112e-07
1330.0 7.6632e-07
1350.0 8.0192e-07
1370.0 8.3867e-07
1390.0 8.745e-07
1410.0 9.0927e-07
1430.0 9.4561e-07
1450.0 9.8195e-07
1470.0 1.0171e-06
1490.0 1.0526e-06
1510.0 1.0901e-06
1530.0 1.1256e-06
1550.0 1.1606e-06
1570.0 1.1969e-06
1590.0 1.2332e-06
1610.0 1.2679e-06
1630.0 1.3036e-06
1650.0 1.3403e-06
1670.0 1.3758e-06
1690.0 1.4109e-06
1710.0 1.4473e-06
1730.0 1.4839e-06
1750.0 1.5183e-06
1770.0 1.5538e-06
1790.0 1.5899e-06
1810.0 1.6249e-06
1830.0 1.6593e-06
1850.0 1.6958e-06
1870.0 1.7314e-06
1890.0 1.7657e-06
1910.0 1.8007e-06
1930.0 1.8365e-06
1950.0 1.8706e-06
1970.0 1.9043e-06
1990.0 1.9393e-06
2010.0 1.9735e-06
2030.0 2.0065e-06
2050.0 2.0404e-06
2070.0 2.075e-06
2090.0 2.1075e-06
2110.0 2.1398e-06
2130.0 2.1729e-06
2150.0 2.2051e-06
2170.0 2.2357e-06
2190.0 2.2673e-06
2210.0 2.2989e-06
2230.0 2.3288e-06
2250.0 2.3582e-06
2270.0 2.3889e-06
2290.0 2.4182e-06
2310.0 2.4458e-06
2330.0 2.4743e-06
2350.0 2.5034e-06
2370.0 2.5321e-06
2390.0 2.5635e-06
2410.0 2.6016e-06
2430.0 2.6465e-06
2450.0 2.7015e-06
2470.0 2.7742e-06
2490.0 2.8677e-06
2510.0 2.975e-06
2530.0 3.1057e-06
2550.0 3.271e-06
2570.0 3.4776e-06
2590.0 3.7466e-06
2610.0 4.1494e-06
2630.0 4.7215e-06
2650.0 5.4635e-06
2670.0 6.4158e-06
2690.0 7.5769e-06
2710.0 8.804e-06
2730.0 1.0003e-05
2750.0 1.1171e-05
2770.0 1.217e-05
2790.0 1.2946e-05
2810.0 1.3543e-05
2830.0 1.3992e-05
2850.0 1.4276e-05
2870.0 1.4467e-05
2890.0 1.4604e-05
2910.0 1.47e-05
2930.0 1.4769e-05
2950.0 1.4832e-05
2970.0 1.4893e-05
2990.0 1.4949e-05
3010.0 0.00044989
3030.0 0.00045149
3050.0 0.00045302
3070.0 0.00045415
3090.0 0.00045495
3110.0 0.00045491
3130.0 0.00045342
3150.0 0.00045005
3170.0 0.00044391
3190.0 0.00043508
3210.0 0.0004243
3230.0 0.00041214
3250.0 0.00039986
3270.0 0.00039078
3290.0 0.00038478
3310.0 0.00038443
3330.0 0.00038875
3350.0 0.00039728
3370.0 0.00040998
3390.0 0.00042632
3410.0 0.00044428
3430.0 0.00046456
3450.0 0.00048801
3470.0 0.00051371
3490.0 0.0005411
3510.0 0.00057215
3530.0 0.00060565
3550.0 0.00064032
3570.0 0.00067728
3590.0 0.0007178
3610.0 0.0007609
3630.0 0.00080361
3650.0 0.00084828
3670.0 0.00088871
3690.0 0.00091878
3710.0 0.00093502
3730.0 0.00093141
3750.0 0.00090996
3770.0 0.00091801
3790.0 0.00091026
3810.0 0.0008167
3830.0 0.0008285
3850.0 0.0010362
3870.0 0.0010762
3890.0 0.00096655
3910.0 0.00093619
3930.0 0.0010208
3950.0 0.0011077
3970.0 0.0010937
3990.0 0.00083436
4010.0 0.0021987
4030.0 0.0025228
4050.0 0.0028775
4070.0 0.002689
4090.0 0.0024644
4110.0 0.0021295
4130.0 0.0021605
4150.0 0.0025495
4170.0 0.0022825
4190.0 0.0022707
4210.0 0.0023628
4230.0 0.0026551
4250.0 0.0031743
4270.0 0.0033145
4290.0 0.0029842
4310.0 0.0029552
4330.0 0.0030434
4350.0 0.0035951
4370.0 0.0042164
4390.0 0.0036849
4410.0 0.0024324
4430.0 0.0019432
4450.0 0.0018045
4470.0 0.0012682
4490.0 0.0015995
4510.0 0.0028712
4530.0 0.0034053
4550.0 0.0032946
4570.0 0.0033526
4590.0 0.0037104
4610.0 0.0059363
4630.0 0.0080369
4650.0 0.0081856
4670.0 0.0073952
4690.0 0.0072345
4710.0 0.0075946
4730.0 0.0067716
4750.0 0.0047937
4770.0 0.0033967
4790.0 0.0033921
4810.0 0.0033883
4830.0 0.0032115
4850.0 0.0034986
4870.0 0.0046274
4890.0 0.0054084
4910.0 0.0045094
4930.0 0.0041686
4950.0 0.0046825
4970.0 0.0060927
4990.0 0.0082493
5010.0 0.0095406
5030.0 0.0080605
5050.0 0.0052409
5070.0 0.0035658
5090.0 0.0027825
5110.0 0.0027429
5130.0 0.0032351
5150.0 0.003353
5170.0 0.0032381
5190.0 0.0029583
5210.0 0.0031877
5230.0 0.0035961
5250.0 0.0040167
5270.0 0.004045
5290.0 0.0044205
5310.0 0.0054847
5330.0 0.0060131
5350.0 0.0059544
5370.0 0.0064356
5390.0 0.0076871
5410.0 0.0071689
5430.0 0.0059878
5450.0 0.0057234
5470.0 0.0063133
5490.0 0.0077786
5510.0 0.0095885
5530.0 0.011061
5550.0 0.010382
5570.0 0.0093906
5590.0 0.0079683
5610.0 0.0076545
5630.0 0.0079514
5650.0 0.0074315
5670.0 0.006936
5690.0 0.0059192
5710.0 0.0059167
5730.0 0.0055821
5750.0 0.0035267
5770.0 0.0026435
5790.0 0.0031035
5810.0 0.0033931
5830.0 0.0046177
5850.0 0.005752
5870.0 0.0063073
5890.0 0.0062433
5910.0 0.0061103
5930.0 0.0058325
5950.0 0.0059708
5970.0 0.0070908
5990.0 0.0062693
6010.0 0.005069
6030.0 0.0042246
6050.0 0.0037196
6070.0 0.0040058
6090.0 0.0044082
6110.0 0.004724
6130.0 0.0046095
6150.0 0.0038163
6170.0 0.0031654
6190.0 0.0036586
6210.0 0.005237
6230.0 0.007288
6250.0 0.0079003
6270.0 0.0064957
6290.0 0.0055127
6310.0 0.0042584
6330.0 0.00319
6350.0 0.0029705
6370.0 0.0031209
6390.0 0.0036567
6410.0 0.0046219
6430.0 0.0054762
6450.0 0.0064771
6470.0 0.0071166
6490.0 0.0085488
6510.0 0.0095699
6530.0 0.0095958
6550.0 0.0087505
6570.0 0.0071885
6590.0 0.0066311
6610.0 0.0056054
6630.0 0.0054404
6650.0 0.0052288
6670.0 0.004794
6690.0 0.0040022
6710.0 0.003769
6730.0 0.0021588
6750.0 0.002442
6770.0 0.0032008
6790.0 0.0039746
6810.0 0.0031671
6830.0 0.0032465
6850.0 0.0028595
6870.0 0.0026357
6890.0 0.0023802
6910.0 0.0027136
6930.0 0.0025502
6950.0 0.0028294
6970.0 0.0029664
6990.0 0.0033299
7010.0 0.0032722
7030.0 0.003556
7050.0 0.0032268
7070.0 0.0028702
7090.0 0.0029837
7110.0 0.0031314
7130.0 0.0034951
7150.0 0.0038381
7170.0 0.0042765
7190.0 0.0046443
7210.0 0.0043434
7230.0 0.0044336
7250.0 0.0047472
7270.0 0.0051168
7290.0 0.0062072
7310.0 0.0066728
7330.0 0.0063672
7350.0 0.0057349
7370.0 0.0046204
7390.0 0.0046017
7410.0 0.0052355
7430.0 0.0058982
7450.0 0.0063903
7470.0 0.006065
7490.0 0.0051378
7510.0 0.0069518
7530.0 0.0066052
7550.0 0.0061146
7570.0 0.0044499
7590.0 0.0025146
7610.0 0.0020055
7630.0 0.0025511
7650.0 0.0031928
7670.0 0.0044775
7690.0 0.0049507
7710.0 0.0048082
7730.0 0.0049277
7750.0 0.0059778
7770.0 0.0061139
7790.0 0.0055971
7810.0 0.0048007
7830.0 0.0050791
7850.0 0.0052538
7870.0 0.0049833
7890.0 0.004026
7910.0 0.0029814
7930.0 0.0029691
7950.0 0.0026962
7970.0 0.0023841
7990.0 0.00227
8010.0 0.0006136
8030.0 0.00055639
8050.0 0.00060203
8070.0 0.00069159
8090.0 0.000861
8110.0 0.00081317
8130.0 0.00046651
8150.0 0.00049499
8170.0 0.00026055
8190.0 0.00014321
8210.0 0.00044781
8230.0 0.00054786
8250.0 0.00019898
8270.0 0.00015116
8290.0 0.00033037
8310.0 0.0003001
8330.0 0.00018558
8350.0 0.00014746
8370.0 2.7282e-05
8390.0 0.00015874
8410.0 0.00018032
8430.0 0.00022302
8450.0 0.00025319
8470.0 0.00043415
8490.0 0.00035538
8510.0 0.00027182
8530.0 0.00013623
8550.0 0.00049716
8570.0 0.00076565
8590.0 0.00053055
8610.0 0.00080318
8630.0 0.00088051
8650.0 0.00048376
8670.0 0.00071279
8690.0 0.0010945
8710.0 0.00093284
8730.0 0.00099729
8750.0 0.00077934
8770.0 0.00069074
8790.0 0.0007639
8810.0 0.00082991
8830.0 0.00045612
8850.0 0.00018409
8870.0 0.00012532
8890.0 0.00033781
8910.0 0.00054486
8930.0 0.00072974
8950.0 0.00080234
8970.0 0.00076947
8990.0 0.00056143
9010.0 0.0010496
9030.0 0.00084968
9050.0 0.00086853
9070.0 0.00089019
9090.0 0.00090819
9110.0 0.00093033
9130.0 0.00094646
9150.0 0.00095807
9170.0 0.00097042
9190.0 0.00098363
9210.0 0.00099752
9230.0 0.0010122
9250.0 0.001027
9270.0 0.0010423
9290.0 0.0010579
9310.0 0.0010735
9330.0 0.0010894
9350.0 0.0011058
9370.0 0.0011222
9390.0 0.0011387
9410.0 0.0011557
9430.0 0.0011731
9450.0 0.0011903
9470.0 0.0012077
9490.0 0.0012257
9510.0 0.0012438
9530.0 0.0012619
9550.0 0.0012806
9570.0 0.0012996
9590.0 0.0013186
9610.0 0.0013378
9630.0 0.0013576
9650.0 0.0013775
9670.0 0.0013972
9690.0 0.0014176
9710.0 0.0014383
9730.0 0.0014589
9750.0 0.0014798
9770.0 0.0015015
9790.0 0.0015229
9810.0 0.0015444
9830.0 0.0015665
9850.0 0.0015888
9870.0 0.0016109
9890.0 0.0016334
9910.0 0.0016564
9930.0 0.0016794
9950.0 0.0017024
9970.0 0.0017259
9990.0 0.0017497
10010.0 0.0015347
10030.0 0.0015553
10050.0 0.0015763
10070.0 0.0015972
10090.0 0.0016179
10110.0 0.0016392
10130.0 0.0016605
10150.0 0.0016816
10170.0 0.001703
10190.0 0.0017247
10210.0 0.0017461
10230.0 0.0017674
10250.0 0.0017891
10270.0 0.0018107
10290.0 0.0018321
10310.0 0.0018537
10330.0 0.0018756
10350.0 0.001897
10370.0 0.0019184
10390.0 0.0019401
10410.0 0.0019616
10430.0 0.0019827
10450.0 0.002004
10470.0 0.0020253
10490.0 0.0020463
10510.0 0.0020671
10530.0 0.0020882
10550.0 0.002109
10570.0 0.0021293
10590.0 0.0021497
10610.0 0.0021701
10630.0 0.0021899
10650.0 0.0022095
10670.0 0.0022294
10690.0 0.0022488
10710.0 0.0022677
10730.0 0.0022867
10750.0 0.0023057
10770.0 0.0023238
10790.0 0.0023418
10810.0 0.0023597
10830.0 0.0023771
10850.0 0.0023936
10870.0 0.0024097
10890.0 0.0024243
10910.0 0.0024361
10930.0 0.0024442
10950.0 0.0024465
10970.0 0.0024409
10990.0 0.0024267
11010.0 0.0022872
11030.0 0.0022515
11050.0 0.0022073
11070.0 0.0021541
11090.0 0.0020899
11110.0 0.0020233
11130.0 0.0019539
11150.0 0.0018794
11170.0 0.0018027
11190.0 0.0017286
11210.0 0.0016522
11230.0 0.0015743
11250.0 0.0014999
11270.0 0.0014287
11290.0 0.0013575
11310.0 0.0012902
11330.0 0.0012308
11350.0 0.0011746
11370.0 0.0011226
11390.0 0.0010774
11410.0 0.0010376
11430.0 0.0010003
11450.0 0.00096787
11470.0 0.00093947
11490.0 0.0009128
11510.0 0.00088694
11530.0 0.00086279
11550.0 0.00083879
11570.0 0.00081334
11590.0 0.00078712
11610.0 0.00076059
11630.0 0.00073197
11650.0 0.00070155
11670.0 0.00067169
11690.0 0.00064152
11710.0 0.00061053
11730.0 0.00058053
11750.0 0.00055273
11770.0 0.00052546
11790.0 0.00049983
11810.0 0.00047713
11830.0 0.0004567
11850.0 0.00043775
11870.0 0.00042169
11890.0 0.00040814
11910.0 0.00039607
11930.0 0.00038553
11950.0 0.00037658
11970.0 0.00036849
11990.0 0.0003608
12010.0 0.00035366
12030.0 0.0003468
12050.0 0.00033978
12070.0 0.00033256
12090.0 0.00032562
12110.0 0.0003186
12130.0 0.00031157
12150.0 0.000305
12170.0 0.00029914
12190.0 0.00029386
12210.0 0.00028979
12230.0 0.00028719
12250.0 0.00028614
12270.0 0.00028698
12290.0 0.00028973
12310.0 0.00029425
12330.0 0.00030104
12350.0 0.00030982
12370.0 0.00032001
12390.0 0.00033193
12410.0 0.00034607
12430.0 0.00036049
12450.0 0.00037545
12470.0 0.00039142
12490.0 0.00040747
12510.0 0.00042247
12530.0 0.0004374
12550.0 0.00045177
12570.0 0.00046437
12590.0 0.00047534
12610.0 0.00048506
12630.0 0.00049267
12650.0 0.00049772
12670.0 0.00050083
12690.0 0.0005017
12710.0 0.00050025
12730.0 0.00049673
12750.0 0.00049095
12770.0 0.00048326
12790.0 0.00047407
12810.0 0.00046324
12830.0 0.00045082
12850.0 0.00043789
12870.0 0.00042428
12890.0 0.00040965
12910.0 0.00039483
12930.0 0.00038026
12950.0 0.00036514
12970.0 0.00034981
12990.0 0.00033533
13010.0 0.00032106
13030.0 0.00030668
13050.0 0.00029288
13070.0 0.00027995
13090.0 0.00026698
13110.0 0.00025443
13130.0 0.00024283
13150.0 0.00023182
13170.0 0.00022102
13190.0 0.00021135
13210.0 0.00020277
13230.0 0.00019486
13250.0 0.00018797
13270.0 0.00018241
13290.0 0.00017796
13310.0 0.00017469
13330.0 0.0001729
13350.0 0.00017247
13370.0 0.00017348
13390.0 0.00017603
13410.0 0.00017972
13430.0 0.00018469
13450.0 0.000191
13470.0 0.00019811
13490.0 0.00020574
13510.0 0.00021445
13530.0 0.00022337
13550.0 0.00023198
13570.0 0.00024054
13590.0 0.00024897
13610.0 0.00025653
13630.0 0.00026319
13650.0 0.00026933
13670.0 0.00027449
13690.0 0.00027854
13710.0 0.00028173
13730.0 0.00028409
13750.0 0.00028536
13770.0 0.00028579
13790.0 0.00028544
13810.0 0.0002843
13830.0 0.00028252
13850.0 0.00028004
13870.0 0.00027687
13890.0 0.00027322
13910.0 0.00026909
13930.0 0.0002643
13950.0 0.00025906
13970.0 0.00025371
13990.0 0.00024788
14010.0 0.00024169
14030.0 0.00023552
14050.0 0.00022931
14070.0 0.00022276
14090.0 0.00021649
14110.0 0.00021059
14130.0 0.00020487
14150.0 0.00019948
14170.0 0.00019486
14190.0 0.00019085
14210.0 0.00018743
14230.0 0.00018486
14250.0 0.00018316
14270.0 0.00018227
14290.0 0.00018232
14310.0 0.00018323
14330.0 0.00018496
14350.0 0.00018756
14370.0 0.00019084
14390.0 0.00019461
14410.0 0.00019909
14430.0 0.00020404
14450.0 0.00020914
14470.0 0.00021447
14490.0 0.00022017
14510.0 0.00022566
14530.0 0.00023092
14550.0 0.0002362
14570.0 0.0002413
14590.0 0.00024596
14610.0 0.0002505
14630.0 0.00025499
14650.0 0.00025918
14670.0 0.00026322
14690.0 0.00026743
14710.0 0.00027183
14730.0 0.00027623
14750.0 0.00028108
14770.0 0.00028658
14790.0 0.00029253
14810.0 0.00029899
14830.0 0.00030663
14850.0 0.00031495
14870.0 0.00032365
14890.0 0.00033304
14910.0 0.00034304
14930.0 0.00035269
14950.0 0.00036173
14970.0 0.00037032
14990.0 0.00037758
15010.0 0.00038319
15030.0 0.00038741
15050.0 0.00039029
15070.0 0.00039182
15090.0 0.00039253
15110.0 0.00039265
15130.0 0.0003924
15150.0 0.00039198
15170.0 0.00039144
15190.0 0.00039084
15210.0 0.00039025
15230.0 0.00038968
15250.0 0.00038907
15270.0 0.00038847
15290.0 0.00038792
15310.0 0.00038735
15330.0 0.00038677
15350.0 0.00038622
15370.0 0.00038569
15390.0 0.00038511
15410.0 0.00038456
15430.0 0.00038404
15450.0 0.00038349
15470.0 0.00038294
15490.0 0.00038243
15510.0 0.00038192
15530.0 0.00038138
15550.0 0.00038087
15570.0 0.00038038
15590.0 0.00037985
15610.0 0.00037931
15630.0 0.00037883
15650.0 0.00037833
15670.0 0.00037781
15690.0 0.00037731
15710.0 0.00037684
15730.0 0.00037633
15750.0 0.00037582
15770.0 0.00037534
15790.0 0.00037485
15810.0 0.00037432
15830.0 0.00037383
15850.0 0.00037336
15870.0 0.00037286
15890.0 0.00037235
15910.0 0.00037188
15930.0 0.00037139
15950.0 0.00037087
15970.0 0.00037038
15990.0 0.0003699
16010.0 0.00036938
16030.0 0.00036886
16050.0 0.00036839
16070.0 0.00036789
16090.0 0.00036737
16110.0 0.00036687
16130.0 0.00036638
16150.0 0.00036584
16170.0 0.00036531
16190.0 0.00036481
16210.0 0.0003643
16230.0 0.00036375
16250.0 0.00036324
16270.0 0.00036273
16290.0 0.00036218
16310.0 0.00036164
16330.0 0.00036112
16350.0 0.00036058
16370.0 0.00035999
16390.0 0.00035945
16410.0 0.00035892
16430.0 0.00035834
16450.0 0.00035777
16470.0 0.00035723
16490.0 0.00035665
16510.0 0.00035605
16530.0 0.00035548
16550.0 0.00035491
16570.0 0.0003543
16590.0 0.00035369
16610.0 0.00035311
16630.0 0.0003525
16650.0 0.00035188
16670.0 0.00035128
16690.0 0.00035067
16710.0 0.00035001
16730.0 0.00034937
16750.0 0.00034876
16770.0 0.0003481
16790.0 0.00034743
16810.0 0.0003468
16830.0 0.00034615
16850.0 0.00034546
16870.0 0.00034479
16890.0 0.00034414
16910.0 0.00034344
16930.0 0.00034272
16950.0 0.00034204
16970.0 0.00034135
16990.0 0.00034062
17010.0 0.00033991
17030.0 0.00033922
17050.0 0.00033847
17070.0 0.00033773
17090.0 0.000337
17110.0 0.00033627
17130.0 0.00033548
17150.0 0.00033473
17170.0 0.00033399
17190.0 0.00033321
17210.0 0.00033242
17230.0 0.00033167
17250.0 0.00033088
17270.0 0.00033006
17290.0 0.00032926
17310.0 0.00032848
17330.0 0.00032765
17350.0 0.00032681
17370.0 0.00032602
17390.0 0.00032519
17410.0 0.00032434
17430.0 0.00032351
17450.0 0.00032269
17470.0 0.0003218
17490.0 0.00032093
17510.0 0.00032009
17530.0 0.00031922
17550.0 0.00031832
17570.0 0.00031745
17590.0 0.00031659
17610.0 0.00031568
17630.0 0.00031478
17650.0 0.0003139
17670.0 0.00031299
17690.0 0.00031203
17710.0 0.00031114
17730.0 0.00031023
17750.0 0.00030929
17770.0 0.00030835
17790.0 0.00030744
17810.0 0.00030649
17830.0 0.00030552
17850.0 0.00030458
17870.0 0.00030364
17890.0 0.00030265
17910.0 0.00030168
17930.0 0.00030074
17950.0 0.00029976
17970.0 0.00029877
17990.0 0.0002978
18010.0 0.00029683
18030.0 0.00029581
18050.0 0.00029481
18070.0 0.00029383
18090.0 0.00029282
18110.0 0.00029179
18130.0 0.00029081
18150.0 0.00028981
18170.0 0.00028877
18190.0 0.00028776
18210.0 0.00028676
18230.0 0.00028571
18250.0 0.00028466
18270.0 0.00028365
18290.0 0.00028262
18310.0 0.00028156
18330.0 0.00028053
18350.0 0.00027951
18370.0 0.00027845
18390.0 0.00027738
18410.0 0.00027635
18430.0 0.0002753
18450.0 0.00027421
18470.0 0.00027316
18490.0 0.00027212
18510.0 0.00027105
18530.0 0.00026997
18550.0 0.00026894
18570.0 0.00026787
18590.0 0.00026677
18610.0 0.0002657
18630.0 0.00026465
18650.0 0.00026355
18670.0 0.00026246
18690.0 0.00026141
18710.0 0.00026033
18730.0 0.00025924
18750.0 0.00025817
18770.0 0.00025711
18790.0 0.00025599
18810.0 0.00025489
18830.0 0.00025383
18850.0 0.00025274
18870.0 0.00025163
18890.0 0.00025056
18910.0 0.00024949
18930.0 0.00024838
18950.0 0.00024729
18970.0 0.00024622
18990.0 0.00024512
19010.0 0.00024399
19030.0 0.00024292
19050.0 0.00024185
19070.0 0.00024074
19090.0 0.00023965
19110.0 0.00023859
19130.0 0.00023748
19150.0 0.00023637
19170.0 0.00023529
19190.0 0.00023421
19210.0 0.00023309
19230.0 0.000232
19250.0 0.00023094
19270.0 0.00022984
19290.0 0.00022874
19310.0 0.00022767
19330.0 0.00022659
19350.0 0.00022547
19370.0 0.00022438
19390.0 0.00022332
19410.0 0.00022222
19430.0 0.00022112
19450.0 0.00022006
19470.0 0.00021899
19490.0 0.00021788
19510.0 0.00021681
19530.0 0.00021575
19550.0 0.00021465
19570.0 0.00021355
19590.0 0.00021249
19610.0 0.00021142
19630.0 0.00021033
19650.0 0.00020927
19670.0 0.00020822
19690.0 0.00020713
19710.0 0.00020605
19730.0 0.000205
19750.0 0.00020393
19770.0 0.00020283
19790.0 0.00020178
19810.0 0.00020074
19830.0 0.00019966
19850.0 0.00019858
19870.0 0.00019752
19890.0 0.00019639
19910.0 0.00019516
19930.0 0.00019387
19950.0 0.00019241
19970.0 0.00019064
19990.0 0.00018855
20010.0 0.00016973
20030.0 0.00016717
20050.0 0.00016419
20070.0 0.00016098
20090.0 0.00015755
20110.0 0.00015369
20130.0 0.00014979
20150.0 0.00014594
20170.0 0.00014196
20190.0 0.00013793
20210.0 0.00013414
20230.0 0.00013044
20250.0 0.00012674
20270.0 0.0001233
20290.0 0.00012016
20310.0 0.00011718
20330.0 0.00011438
20350.0 0.00011205
20370.0 0.00010997
20390.0 0.00010814
20410.0 0.00010664
20430.0 0.00010547
20450.0 0.00010452
20470.0 0.00010386
20490.0 0.00010347
20510.0 0.00010331
20530.0 0.00010337
20550.0 0.00010362
20570.0 0.00010403
20590.0 0.00010461
20610.0 0.00010532
20630.0 0.00010613
20650.0 0.00010704
20670.0 0.00010809
20690.0 0.00010917
20710.0 0.00011029
20730.0 0.0001115
20750.0 0.00011276
20770.0 0.00011401
20790.0 0.00011531
20810.0 0.00011669
20830.0 0.00011805
20850.0 0.00011941
20870.0 0.00012087
20890.0 0.00012235
20910.0 0.00012377
20930.0 0.00012523
20950.0 0.00012675
20970.0 0.00012822
20990.0 0.00012967
21010.0 0.00013119
21030.0 0.00013267
21050.0 0.00013407
21070.0 0.00013548
21090.0 0.00013688
21110.0 0.00013816
21130.0 0.00013936
21150.0 0.00014051
21170.0 0.00014156
21190.0 0.00014245
21210.0 0.00014325
21230.0 0.00014392
21250.0 0.00014438
21270.0 0.00014467
21290.0 0.00014476
21310.0 0.00014462
21330.0 0.00014426
21350.0 0.00014366
21370.0 0.00014277
21390.0 0.00014166
21410.0 0.00014029
21430.0 0.00013857
21450.0 0.00013664
21470.0 0.00013454
21490.0 0.00013216
21510.0 0.00012956
21530.0 0.00012691
21550.0 0.00012413
21570.0 0.00012117
21590.0 0.00011826
21610.0 0.00011544
21630.0 0.00011262
21650.0 0.00010986
21670.0 0.00010746
21690.0 0.00010525
21710.0 0.00010325
21730.0 0.0001016
21750.0 0.00010031
21770.0 9.9324e-05
21790.0 9.8731e-05
21810.0 9.8528e-05
21830.0 9.8686e-05
21850.0 9.923e-05
21870.0 0.00010011
21890.0 0.00010126
21910.0 0.00010276
21930.0 0.00010452
21950.0 0.00010644
21970.0 0.00010857
21990.0 0.00011097
22010.0 0.00011337
22030.0 0.00011581
22050.0 0.00011838
22070.0 0.00012097
22090.0 0.00012342
22110.0 0.00012589
22130.0 0.00012837
22150.0 0.00013068
22170.0 0.00013286
22190.0 0.00013503
22210.0 0.00013704
22230.0 0.00013881
22250.0 0.00014048
22270.0 0.00014202
22290.0 0.00014333
22310.0 0.00014445
22330.0 0.00014544
22350.0 0.0001462
22370.0 0.00014673
22390.0 0.00014705
22410.0 0.00014714
22430.0 0.00014698
22450.0 0.00014659
22470.0 0.00014592
22490.0 0.000145
22510.0 0.00014385
22530.0 0.00014238
22550.0 0.0001406
22570.0 0.00013863
22590.0 0.00013642
22610.0 0.00013387
22630.0 0.00013111
22650.0 0.00012827
22670.0 0.00012512
22690.0 0.00012176
22710.0 0.00011838
22730.0 0.00011489
22750.0 0.00011111
22770.0 0.00010741
22790.0 0.0001038
22810.0 0.0001001
22830.0 9.6401e-05
22850.0 9.2941e-05
22870.0 8.9549e-05
22890.0 8.6176e-05
22910.0 8.3067e-05
22930.0 8.0217e-05
