#lamb flux
1010.0 1.4771e-06
1030.0 1.6627e-06
1050.0 1.8548e-06
1070.0 2.072e-06
1090.0 2.3262e-06
1110.0 2.5876e-06
1130.0 2.8524e-06
1150.0 3.1318e-06
1170.0 3.4235e-06
1190.0 3.7058e-06
1210.0 3.9979e-06
1230.0 4.3069e-06
1250.0 4.6177e-06
1270.0 4.9306e-06
1290.0 5.2699e-06
1310.0 5.621e-06
1330.0 5.9718e-06
1350.0 6.3372e-06
1370.0 6.7233e-06
1390.0 7.1119e-06
1410.0 7.5003e-06
1430.0 7.9096e-06
1450.0 8.3251e-06
1470.0 8.7342e-06
1490.0 9.1494e-06
1510.0 9.5837e-06
1530.0 9.9998e-06
1550.0 1.0409e-05
1570.0 1.0825e-05
1590.0 1.1237e-05
1610.0 1.1625e-05
1630.0 1.2012e-05
1650.0 1.2397e-05
1670.0 1.2758e-05
1690.0 1.3101e-05
1710.0 1.3442e-05
1730.0 1.3768e-05
1750.0 1.4058e-05
1770.0 1.4339e-05
1790.0 1.4609e-05
1810.0 1.4851e-05
1830.0 1.5069e-05
1850.0 1.529e-05
1870.0 1.5486e-05
1890.0 1.5656e-05
1910.0 1.5818e-05
1930.0 1.5973e-05
1950.0 1.6102e-05
1970.0 1.6215e-05
1990.0 1.6328e-05
2010.0 1.6424e-05
2030.0 1.6499e-05
2050.0 1.6572e-05
2070.0 1.6639e-05
2090.0 1.6675e-05
2110.0 1.6697e-05
2130.0 1.6712e-05
2150.0 1.6704e-05
2170.0 1.6666e-05
2190.0 1.6618e-05
2210.0 1.6551e-05
2230.0 1.6452e-05
2250.0 1.6329e-05
2270.0 1.6195e-05
2290.0 1.603e-05
2310.0 1.5833e-05
2330.0 1.5622e-05
2350.0 1.539e-05
2370.0 1.5129e-05
2390.0 1.485e-05
2410.0 1.4557e-05
2430.0 1.4235e-05
2450.0 1.3885e-05
2470.0 1.3511e-05
2490.0 1.3111e-05
2510.0 1.2687e-05
2530.0 1.2268e-05
2550.0 1.1897e-05
2570.0 1.1627e-05
2590.0 1.1513e-05
2610.0 1.1671e-05
2630.0 1.2133e-05
2650.0 1.2836e-05
2670.0 1.378e-05
2690.0 1.4892e-05
2710.0 1.5928e-05
2730.0 1.6751e-05
2750.0 1.7335e-05
2770.0 1.7502e-05
2790.0 1.7209e-05
2810.0 1.6499e-05
2830.0 1.5366e-05
2850.0 1.392e-05
2870.0 1.2246e-05
2890.0 1.0361e-05
2910.0 8.353e-06
2930.0 6.3261e-06
2950.0 4.2041e-06
2970.0 2.0156e-06
2990.0 1.0076e-06
3010.0 2.2239e-06
3030.0 2.2239e-06
3050.0 2.2239e-06
3070.0 2.2239e-06
3090.0 2.2239e-06
3110.0 2.2239e-06
3130.0 2.2239e-06
3150.0 2.2239e-06
3170.0 2.2239e-06
3190.0 2.2239e-06
3210.0 2.2239e-06
3230.0 6.0562e-05
3250.0 0.00012039
3270.0 0.00012046
3290.0 0.0001298
3310.0 0.00010221
3330.0 0.00010211
3350.0 0.00011332
3370.0 0.00012941
3390.0 0.00014755
3410.0 0.00016698
3430.0 0.00019177
3450.0 0.00021692
3470.0 0.00024319
3490.0 0.00025764
3510.0 0.00025057
3530.0 0.0002538
3550.0 0.00026754
3570.0 0.00026944
3590.0 0.00028728
3610.0 0.00027488
3630.0 0.00034029
3650.0 0.00038177
3670.0 0.00040778
3690.0 0.00038519
3710.0 0.00031696
3730.0 0.00029753
3750.0 0.00026834
3770.0 0.00024787
3790.0 0.00022489
3810.0 0.00021728
3830.0 0.00024977
3850.0 0.00010975
3870.0 0.00020182
3890.0 0.00023845
3910.0 0.00026849
3930.0 0.00033404
3950.0 0.00036313
3970.0 0.00042345
3990.0 0.00051911
4010.0 0.00039023
4030.0 0.00032332
4050.0 0.00024537
4070.0 0.00025235
4090.0 0.00039609
4110.0 0.00037585
4130.0 0.00040521
4150.0 0.00038168
4170.0 0.00036341
4190.0 0.00033058
4210.0 0.00048004
4230.0 0.00050046
4250.0 0.00054429
4270.0 0.00051094
4290.0 0.00051591
4310.0 0.00057891
4330.0 0.0006813
4350.0 0.00068386
4370.0 0.00066591
4390.0 0.00059558
4410.0 0.00055443
4430.0 0.0004355
4450.0 0.00036443
4470.0 0.00040608
4490.0 0.00048402
4510.0 0.00050128
4530.0 0.0005164
4550.0 0.00053588
4570.0 0.00075871
4590.0 0.0011218
4610.0 0.0013187
4630.0 0.0013224
4650.0 0.0013848
4670.0 0.0015858
4690.0 0.0017328
4710.0 0.0014274
4730.0 0.0010876
4750.0 0.00086356
4770.0 0.00076268
4790.0 0.00071489
4810.0 0.00068172
4830.0 0.00075318
4850.0 0.00087273
4870.0 0.00095242
4890.0 0.00099364
4910.0 0.00091542
4930.0 0.00097445
4950.0 0.0012022
4970.0 0.0014327
4990.0 0.0014966
5010.0 0.0013807
5030.0 0.0011475
5050.0 0.00087473
5070.0 0.00069145
5090.0 0.00062022
5110.0 0.00060665
5130.0 0.00061913
5150.0 0.00061713
5170.0 0.00059053
5190.0 0.00055798
5210.0 0.00054458
5230.0 0.00060859
5250.0 0.00070303
5270.0 0.00083495
5290.0 0.00096068
5310.0 0.001013
5330.0 0.0010955
5350.0 0.0012137
5370.0 0.001277
5390.0 0.0011597
5410.0 0.0010262
5430.0 0.00099165
5450.0 0.0011471
5470.0 0.0014238
5490.0 0.0016704
5510.0 0.0017808
5530.0 0.0017516
5550.0 0.0016657
5570.0 0.0016104
5590.0 0.0015537
5610.0 0.0015314
5630.0 0.0015184
5650.0 0.001515
5670.0 0.0015007
5690.0 0.0013769
5710.0 0.0011554
5730.0 0.0010232
5750.0 0.00096591
5770.0 0.00098197
5790.0 0.0010139
5810.0 0.0010567
5830.0 0.001075
5850.0 0.0010215
5870.0 0.00095396
5890.0 0.00091035
5910.0 0.00093438
5930.0 0.00097843
5950.0 0.0009206
5970.0 0.00081375
5990.0 0.00067697
6010.0 0.00054688
6030.0 0.00049673
6050.0 0.0005319
6070.0 0.00057066
6090.0 0.00055565
6110.0 0.0004905
6130.0 0.00049526
6150.0 0.00057309
6170.0 0.00066541
6190.0 0.00074114
6210.0 0.00075108
6230.0 0.00073542
6250.0 0.00067358
6270.0 0.00056776
6290.0 0.0004707
6310.0 0.00041442
6330.0 0.00040185
6350.0 0.00041141
6370.0 0.00041384
6390.0 0.00045535
6410.0 0.00056278
6430.0 0.0007058
6450.0 0.00081016
6470.0 0.00084167
6490.0 0.00082979
6510.0 0.00084815
6530.0 0.00088045
6550.0 0.00087282
6570.0 0.00090494
6590.0 0.00092291
6610.0 0.00093933
6630.0 0.00093389
6650.0 0.0008813
6670.0 0.00080594
6690.0 0.00072392
6710.0 0.00067727
6730.0 0.00067552
6750.0 0.0006981
6770.0 0.00071901
6790.0 0.00073912
6810.0 0.00075222
6830.0 0.00073694
6850.0 0.0007057
6870.0 0.00066206
6890.0 0.00064649
6910.0 0.00061995
6930.0 0.0006391
6950.0 0.00068251
6970.0 0.00070238
6990.0 0.00071879
7010.0 0.00070145
7030.0 0.0006471
7050.0 0.00057117
7070.0 0.00050111
7090.0 0.00045865
7110.0 0.0004527
7130.0 0.00045156
7150.0 0.00041059
7170.0 0.00038684
7190.0 0.00041533
7210.0 0.00047381
7230.0 0.00054888
7250.0 0.00058764
7270.0 0.00058622
7290.0 0.00053951
7310.0 0.00049458
7330.0 0.00046975
7350.0 0.00046947
7370.0 0.00047947
7390.0 0.00050055
7410.0 0.00055102
7430.0 0.00063913
7450.0 0.00072798
7470.0 0.0007768
7490.0 0.00076889
7510.0 0.00072338
7530.0 0.00061757
7550.0 0.00055558
7570.0 0.00049173
7590.0 0.00046146
7610.0 0.00047959
7630.0 0.00052752
7650.0 0.00059034
7670.0 0.00065102
7690.0 0.00069201
7710.0 0.00073831
7730.0 0.00078805
7750.0 0.00083171
7770.0 0.00082638
7790.0 0.00083248
7810.0 0.00085353
7830.0 0.00086199
7850.0 0.00083836
7870.0 0.00080981
7890.0 0.00080849
7910.0 0.00077851
7930.0 0.00076953
7950.0 0.00073132
7970.0 0.00071583
7990.0 0.00069507
8010.0 0.00071702
8030.0 0.00072454
8050.0 0.00073331
8070.0 0.00072736
8090.0 0.00072521
8110.0 0.00069845
8130.0 0.00069791
8150.0 0.00068882
8170.0 0.00067192
8190.0 0.00066045
8210.0 0.00066216
8230.0 0.00064492
8250.0 0.00062825
8270.0 0.0005647
8290.0 0.00045856
8310.0 0.00034256
8330.0 0.00026184
8350.0 0.00024323
8370.0 0.00029148
8390.0 0.00035591
8410.0 0.00038829
8430.0 0.00040244
8450.0 0.00042334
8470.0 0.00045198
8490.0 0.00050663
8510.0 0.00057962
8530.0 0.00067133
8550.0 0.00076287
8570.0 0.00084175
8590.0 0.00090381
8610.0 0.00094289
8630.0 0.00095222
8650.0 0.00094798
8670.0 0.00094981
8690.0 0.00099559
8710.0 0.0010544
8730.0 0.0010978
8750.0 0.0010946
8770.0 0.0011102
8790.0 0.0011055
8810.0 0.0010375
8830.0 0.00098495
8850.0 0.00091215
8870.0 0.00085308
8890.0 0.00083212
8910.0 0.00083766
8930.0 0.00079409
8950.0 0.00074686
8970.0 0.00072818
8990.0 0.00072134
9010.0 0.00069399
9030.0 0.0006783
9050.0 0.00067294
9070.0 0.00067046
9090.0 0.00066829
9110.0 0.00066619
9130.0 0.00066407
9150.0 0.00066197
9170.0 0.00065951
9190.0 0.00065756
9210.0 0.00065879
9230.0 0.00065544
9250.0 0.0006527
9270.0 0.00065027
9290.0 0.00064805
9310.0 0.00064589
9330.0 0.00064381
9350.0 0.00064188
9370.0 0.00063995
9390.0 0.00063797
9410.0 0.00063607
9430.0 0.00063412
9450.0 0.00063145
9470.0 0.00062903
9490.0 0.00062786
9510.0 0.00062632
9530.0 0.00062467
9550.0 0.00062298
9570.0 0.00062124
9590.0 0.00061946
9610.0 0.00061767
9630.0 0.0006159
9650.0 0.00061412
9670.0 0.00061233
9690.0 0.00061055
9710.0 0.00060879
9730.0 0.00060701
9750.0 0.00060524
9770.0 0.00060349
9790.0 0.00060172
9810.0 0.00059994
9830.0 0.00059818
9850.0 0.00059642
9870.0 0.00059463
9890.0 0.00059284
9910.0 0.00059105
9930.0 0.00058917
9950.0 0.00058256
9970.0 0.00058216
9990.0 0.00058148
10010.0 0.00058062
10030.0 0.00057936
10050.0 0.00057776
10070.0 0.00057608
10090.0 0.00057441
10110.0 0.00057242
10130.0 0.00057058
10150.0 0.00056869
10170.0 0.00056664
10190.0 0.00056441
10210.0 0.00056238
10230.0 0.0005604
10250.0 0.0005582
10270.0 0.000556
10290.0 0.00055395
10310.0 0.00055171
10330.0 0.00054928
10350.0 0.00054704
10370.0 0.00054478
10390.0 0.00054231
10410.0 0.00053983
10430.0 0.00053753
10450.0 0.000535
10470.0 0.00053235
10490.0 0.00052981
10510.0 0.00052726
10530.0 0.00052436
10550.0 0.00052155
10570.0 0.00051888
10590.0 0.000516
10610.0 0.00051298
10630.0 0.00051011
10650.0 0.00050717
10670.0 0.00050394
10690.0 0.00050077
10710.0 0.00049768
10730.0 0.00049436
10750.0 0.00049083
10770.0 0.00048757
10790.0 0.00048419
10810.0 0.00048057
10830.0 0.00047698
10850.0 0.00047351
10870.0 0.00046964
10890.0 0.00046568
10910.0 0.00046183
10930.0 0.00045779
10950.0 0.00045335
10970.0 0.00044885
10990.0 0.00044434
11010.0 0.00045856
11030.0 0.00045302
11050.0 0.00044763
11070.0 0.00044215
11090.0 0.00043634
11110.0 0.00043101
11130.0 0.00042593
11150.0 0.00042078
11170.0 0.00041576
11190.0 0.00041114
11210.0 0.00040647
11230.0 0.00040171
11250.0 0.00039719
11270.0 0.0003928
11290.0 0.00038821
11310.0 0.00038363
11330.0 0.00037936
11350.0 0.00037494
11370.0 0.00037036
11390.0 0.00036588
11410.0 0.00036139
11430.0 0.00035645
11450.0 0.00035143
11470.0 0.00034638
11490.0 0.00034097
11510.0 0.00033509
11530.0 0.00032923
11550.0 0.00032317
11570.0 0.0003166
11590.0 0.00030988
11610.0 0.00030322
11630.0 0.00029617
11650.0 0.00028884
11670.0 0.00028183
11690.0 0.00027485
11710.0 0.0002677
11730.0 0.00026075
11750.0 0.00025424
11770.0 0.00024766
11790.0 0.00024121
11810.0 0.00023521
11830.0 0.00022945
11850.0 0.00022363
11870.0 0.00021823
11890.0 0.00021323
11910.0 0.00020828
11930.0 0.00020348
11950.0 0.00019906
11970.0 0.00019477
11990.0 0.00019048
12010.0 0.00018648
12030.0 0.00018274
12050.0 0.00017906
12070.0 0.00017551
12090.0 0.00017238
12110.0 0.00016941
12130.0 0.00016661
12150.0 0.00016415
12170.0 0.00016201
12190.0 0.00016007
12210.0 0.00015848
12230.0 0.00015726
12250.0 0.00015637
12270.0 0.00015581
12290.0 0.00015561
12310.0 0.00015573
12330.0 0.0001562
12350.0 0.00015702
12370.0 0.00015809
12390.0 0.00015948
12410.0 0.00016127
12430.0 0.0001632
12450.0 0.00016533
12470.0 0.00016774
12490.0 0.00017032
12510.0 0.00017286
12530.0 0.00017556
12550.0 0.00017833
12570.0 0.00018093
12590.0 0.00018337
12610.0 0.00018573
12630.0 0.0001878
12650.0 0.00018942
12670.0 0.00019074
12690.0 0.00019165
12710.0 0.00019208
12730.0 0.00019206
12750.0 0.00019159
12770.0 0.00019066
12790.0 0.00018934
12810.0 0.00018763
12830.0 0.00018555
12850.0 0.00018329
12870.0 0.00018085
12890.0 0.00017819
12910.0 0.00017548
12930.0 0.00017283
12950.0 0.0001701
12970.0 0.00016738
12990.0 0.00016484
13010.0 0.00016239
13030.0 0.00015996
13050.0 0.00015766
13070.0 0.0001555
13090.0 0.00015334
13110.0 0.00015123
13130.0 0.00014921
13150.0 0.00014722
13170.0 0.00014518
13190.0 0.00014321
13210.0 0.00014132
13230.0 0.00013941
13250.0 0.00013754
13270.0 0.00013581
13290.0 0.00013416
13310.0 0.00013259
13330.0 0.00013122
13350.0 0.00013005
13370.0 0.00012904
13390.0 0.00012825
13410.0 0.00012768
13430.0 0.00012728
13450.0 0.00012704
13470.0 0.00012691
13490.0 0.00012684
13510.0 0.00012679
13530.0 0.00012667
13550.0 0.00012645
13570.0 0.00012608
13590.0 0.00012551
13610.0 0.00012474
13630.0 0.00012377
13650.0 0.00012256
13670.0 0.00012116
13690.0 0.00011964
13710.0 0.00011797
13730.0 0.00011615
13750.0 0.00011439
13770.0 0.00011265
13790.0 0.00011091
13810.0 0.00010927
13830.0 0.0001078
13850.0 0.00010641
13870.0 0.00010515
13890.0 0.00010407
13910.0 0.00010313
13930.0 0.00010229
13950.0 0.00010157
13970.0 0.00010097
13990.0 0.00010043
14010.0 9.9949e-05
14030.0 9.9511e-05
14050.0 9.9093e-05
14070.0 9.8655e-05
14090.0 9.8206e-05
14110.0 9.7733e-05
14130.0 9.7205e-05
14150.0 9.6609e-05
14170.0 9.5978e-05
14190.0 9.529e-05
14210.0 9.4524e-05
14230.0 9.3721e-05
14250.0 9.2908e-05
14270.0 9.2045e-05
14290.0 9.117e-05
14310.0 9.0354e-05
14330.0 8.9574e-05
14350.0 8.883e-05
14370.0 8.8174e-05
14390.0 8.7619e-05
14410.0 8.7133e-05
14430.0 8.6742e-05
14450.0 8.6454e-05
14470.0 8.6247e-05
14490.0 8.6115e-05
14510.0 8.6058e-05
14530.0 8.6059e-05
14550.0 8.6115e-05
14570.0 8.6223e-05
14590.0 8.6375e-05
14610.0 8.658e-05
14630.0 8.6856e-05
14650.0 8.7189e-05
14670.0 8.7588e-05
14690.0 8.8083e-05
14710.0 8.8679e-05
14730.0 8.9331e-05
14750.0 9.009e-05
14770.0 9.0973e-05
14790.0 9.1939e-05
14810.0 9.2986e-05
14830.0 9.4222e-05
14850.0 9.5569e-05
14870.0 9.6989e-05
14890.0 9.8546e-05
14910.0 0.00010024
14930.0 0.00010192
14950.0 0.00010355
14970.0 0.00010514
14990.0 0.00010655
15010.0 0.00010769
15030.0 0.0001086
15050.0 0.00010928
15070.0 0.00010972
15090.0 0.00011
15110.0 0.00011018
15130.0 0.00011028
15150.0 0.00011035
15170.0 0.0001104
15190.0 0.00011045
15210.0 0.00011049
15230.0 0.00011053
15250.0 0.00011057
15270.0 0.00011062
15290.0 0.00011067
15310.0 0.00011072
15330.0 0.00011077
15350.0 0.00011082
15370.0 0.00011088
15390.0 0.00011093
15410.0 0.00011099
15430.0 0.00011105
15450.0 0.00011111
15470.0 0.00011117
15490.0 0.00011124
15510.0 0.0001113
15530.0 0.00011137
15550.0 0.00011144
15570.0 0.00011151
15590.0 0.00011158
15610.0 0.00011165
15630.0 0.00011172
15650.0 0.00011179
15670.0 0.00011187
15690.0 0.00011194
15710.0 0.00011202
15730.0 0.00011209
15750.0 0.00011217
15770.0 0.00011225
15790.0 0.00011233
15810.0 0.0001124
15830.0 0.00011248
15850.0 0.00011256
15870.0 0.00011264
15890.0 0.00011272
15910.0 0.0001128
15930.0 0.00011288
15950.0 0.00011296
15970.0 0.00011304
15990.0 0.00011312
16010.0 0.0001132
16030.0 0.00011328
16050.0 0.00011336
16070.0 0.00011344
16090.0 0.00011351
16110.0 0.00011359
16130.0 0.00011367
16150.0 0.00011374
16170.0 0.00011382
16190.0 0.00011389
16210.0 0.00011397
16230.0 0.00011404
16250.0 0.00011411
16270.0 0.00011418
16290.0 0.00011425
16310.0 0.00011432
16330.0 0.00011438
16350.0 0.00011445
16370.0 0.00011451
16390.0 0.00011457
16410.0 0.00011464
16430.0 0.00011469
16450.0 0.00011475
16470.0 0.00011481
16490.0 0.00011486
16510.0 0.00011491
16530.0 0.00011496
16550.0 0.00011501
16570.0 0.00011505
16590.0 0.00011509
16610.0 0.00011514
16630.0 0.00011517
16650.0 0.00011521
16670.0 0.00011524
16690.0 0.00011527
16710.0 0.0001153
16730.0 0.00011532
16750.0 0.00011535
16770.0 0.00011536
16790.0 0.00011538
16810.0 0.00011539
16830.0 0.0001154
16850.0 0.00011541
16870.0 0.00011541
16890.0 0.00011541
16910.0 0.00011541
16930.0 0.0001154
16950.0 0.00011539
16970.0 0.00011538
16990.0 0.00011536
17010.0 0.00011534
17030.0 0.00011532
17050.0 0.00011529
17070.0 0.00011526
17090.0 0.00011522
17110.0 0.00011518
17130.0 0.00011514
17150.0 0.00011509
17170.0 0.00011504
17190.0 0.00011498
17210.0 0.00011492
17230.0 0.00011486
17250.0 0.00011479
17270.0 0.00011471
17290.0 0.00011464
17310.0 0.00011455
17330.0 0.00011447
17350.0 0.00011438
17370.0 0.00011428
17390.0 0.00011418
17410.0 0.00011408
17430.0 0.00011397
17450.0 0.00011386
17470.0 0.00011374
17490.0 0.00011362
17510.0 0.00011349
17530.0 0.00011336
17550.0 0.00011323
17570.0 0.00011309
17590.0 0.00011294
17610.0 0.00011279
17630.0 0.00011264
17650.0 0.00011248
17670.0 0.00011232
17690.0 0.00011215
17710.0 0.00011198
17730.0 0.0001118
17750.0 0.00011162
17770.0 0.00011143
17790.0 0.00011124
17810.0 0.00011105
17830.0 0.00011085
17850.0 0.00011065
17870.0 0.00011044
17890.0 0.00011022
17910.0 0.00011001
17930.0 0.00010979
17950.0 0.00010956
17970.0 0.00010933
17990.0 0.0001091
18010.0 0.00010886
18030.0 0.00010861
18050.0 0.00010837
18070.0 0.00010812
18090.0 0.00010786
18110.0 0.0001076
18130.0 0.00010734
18150.0 0.00010707
18170.0 0.0001068
18190.0 0.00010652
18210.0 0.00010625
18230.0 0.00010596
18250.0 0.00010568
18270.0 0.00010539
18290.0 0.00010509
18310.0 0.0001048
18330.0 0.0001045
18350.0 0.0001042
18370.0 0.00010389
18390.0 0.00010358
18410.0 0.00010326
18430.0 0.00010295
18450.0 0.00010263
18470.0 0.00010231
18490.0 0.00010198
18510.0 0.00010165
18530.0 0.00010132
18550.0 0.00010099
18570.0 0.00010065
18590.0 0.00010031
18610.0 9.9973e-05
18630.0 9.9631e-05
18650.0 9.9284e-05
18670.0 9.8935e-05
18690.0 9.8586e-05
18710.0 9.8234e-05
18730.0 9.7879e-05
18750.0 9.7523e-05
18770.0 9.7166e-05
18790.0 9.6804e-05
18810.0 9.6442e-05
18830.0 9.6079e-05
18850.0 9.5714e-05
18870.0 9.5347e-05
18890.0 9.4979e-05
18910.0 9.4611e-05
18930.0 9.4239e-05
18950.0 9.3867e-05
18970.0 9.3495e-05
18990.0 9.3121e-05
19010.0 9.2744e-05
19030.0 9.2369e-05
19050.0 9.1992e-05
19070.0 9.1614e-05
19090.0 9.1236e-05
19110.0 9.0858e-05
19130.0 9.0477e-05
19150.0 9.0096e-05
19170.0 8.9716e-05
19190.0 8.9336e-05
19210.0 8.8953e-05
19230.0 8.8572e-05
19250.0 8.8191e-05
19270.0 8.7809e-05
19290.0 8.7426e-05
19310.0 8.7045e-05
19330.0 8.6664e-05
19350.0 8.6281e-05
19370.0 8.5899e-05
19390.0 8.5519e-05
19410.0 8.5138e-05
19430.0 8.4756e-05
19450.0 8.4377e-05
19470.0 8.3998e-05
19490.0 8.3618e-05
19510.0 8.3239e-05
19530.0 8.2862e-05
19550.0 8.2484e-05
19570.0 8.2107e-05
19590.0 8.1732e-05
19610.0 8.1357e-05
19630.0 8.0982e-05
19650.0 8.0609e-05
19670.0 8.0238e-05
19690.0 7.9866e-05
19710.0 7.9496e-05
19730.0 7.9128e-05
19750.0 7.876e-05
19770.0 7.8392e-05
19790.0 7.8026e-05
19810.0 7.7662e-05
19830.0 7.7297e-05
19850.0 7.6929e-05
19870.0 7.6557e-05
19890.0 7.617e-05
19910.0 7.5754e-05
19930.0 7.5296e-05
19950.0 7.4773e-05
19970.0 7.4146e-05
19990.0 7.3397e-05
20010.0 7.254e-05
20030.0 7.1533e-05
20050.0 7.0382e-05
20070.0 6.9154e-05
20090.0 6.7864e-05
20110.0 6.6462e-05
20130.0 6.5075e-05
20150.0 6.3728e-05
20170.0 6.2372e-05
20190.0 6.1031e-05
20210.0 5.9773e-05
20230.0 5.8556e-05
20250.0 5.7347e-05
20270.0 5.6207e-05
20290.0 5.5138e-05
20310.0 5.4092e-05
20330.0 5.3068e-05
20350.0 5.2143e-05
20370.0 5.125e-05
20390.0 5.038e-05
20410.0 4.9564e-05
20430.0 4.8807e-05
20450.0 4.8061e-05
20470.0 4.7358e-05
20490.0 4.6713e-05
20510.0 4.6106e-05
20530.0 4.5528e-05
20550.0 4.5003e-05
20570.0 4.4531e-05
20590.0 4.409e-05
20610.0 4.3692e-05
20630.0 4.3343e-05
20650.0 4.3031e-05
20670.0 4.2755e-05
20690.0 4.2521e-05
20710.0 4.2322e-05
20730.0 4.2153e-05
20750.0 4.2014e-05
20770.0 4.1897e-05
20790.0 4.1802e-05
20810.0 4.1727e-05
20830.0 4.1662e-05
20850.0 4.1603e-05
20870.0 4.1554e-05
20890.0 4.1504e-05
20910.0 4.1444e-05
20930.0 4.1378e-05
20950.0 4.1302e-05
20970.0 4.1207e-05
20990.0 4.1094e-05
21010.0 4.0961e-05
21030.0 4.0805e-05
21050.0 4.0624e-05
21070.0 4.0418e-05
21090.0 4.0184e-05
21110.0 3.9928e-05
21130.0 3.9651e-05
21150.0 3.9345e-05
21170.0 3.902e-05
21190.0 3.8682e-05
21210.0 3.832e-05
21230.0 3.7936e-05
21250.0 3.755e-05
21270.0 3.7153e-05
21290.0 3.6739e-05
21310.0 3.6322e-05
21330.0 3.5914e-05
21350.0 3.5496e-05
21370.0 3.5076e-05
21390.0 3.4671e-05
21410.0 3.4275e-05
21430.0 3.3874e-05
21450.0 3.3498e-05
21470.0 3.3146e-05
21490.0 3.2807e-05
21510.0 3.2489e-05
21530.0 3.2204e-05
21550.0 3.1944e-05
21570.0 3.1708e-05
21590.0 3.1506e-05
21610.0 3.1336e-05
21630.0 3.1196e-05
21650.0 3.1088e-05
21670.0 3.1011e-05
21690.0 3.0961e-05
21710.0 3.0941e-05
21730.0 3.0944e-05
21750.0 3.0964e-05
21770.0 3.1011e-05
21790.0 3.1072e-05
21810.0 3.1139e-05
21830.0 3.1215e-05
21850.0 3.1301e-05
21870.0 3.1382e-05
21890.0 3.1455e-05
21910.0 3.1528e-05
21930.0 3.1593e-05
21950.0 3.164e-05
21970.0 3.1678e-05
21990.0 3.1706e-05
22010.0 3.1713e-05
22030.0 3.1704e-05
22050.0 3.1682e-05
22070.0 3.1645e-05
22090.0 3.1591e-05
22110.0 3.1525e-05
22130.0 3.1448e-05
22150.0 3.1357e-05
22170.0 3.1257e-05
22190.0 3.1146e-05
22210.0 3.1026e-05
22230.0 3.0899e-05
22250.0 3.0763e-05
22270.0 3.0617e-05
22290.0 3.0464e-05
22310.0 3.0303e-05
22330.0 3.0128e-05
22350.0 2.9942e-05
22370.0 2.9747e-05
22390.0 2.9537e-05
22410.0 2.9306e-05
22430.0 2.9066e-05
22450.0 2.881e-05
22470.0 2.853e-05
22490.0 2.8233e-05
22510.0 2.7926e-05
22530.0 2.7592e-05
22550.0 2.7235e-05
22570.0 2.6874e-05
22590.0 2.6501e-05
22610.0 2.6105e-05
22630.0 2.5706e-05
