#lamb flux
1010.0 2.0666e-05
1030.0 2.2796e-05
1050.0 2.4869e-05
1070.0 2.7205e-05
1090.0 2.9971e-05
1110.0 3.2791e-05
1130.0 3.5621e-05
1150.0 3.8587e-05
1170.0 4.1661e-05
1190.0 4.4611e-05
1210.0 4.7651e-05
1230.0 5.0858e-05
1250.0 5.4064e-05
1270.0 5.7282e-05
1290.0 6.0776e-05
1310.0 6.4387e-05
1330.0 6.7982e-05
1350.0 7.1719e-05
1370.0 7.5652e-05
1390.0 7.9582e-05
1410.0 8.3471e-05
1430.0 8.7536e-05
1450.0 9.1612e-05
1470.0 9.556e-05
1490.0 9.9503e-05
1510.0 0.00010357
1530.0 0.00010738
1550.0 0.00011104
1570.0 0.00011469
1590.0 0.00011822
1610.0 0.00012144
1630.0 0.00012456
1650.0 0.0001276
1670.0 0.00013035
1690.0 0.00013288
1710.0 0.00013536
1730.0 0.00013769
1750.0 0.00013965
1770.0 0.00014157
1790.0 0.00014343
1810.0 0.00014509
1830.0 0.00014663
1850.0 0.00014831
1870.0 0.00014992
1890.0 0.00015146
1910.0 0.00015312
1930.0 0.00015497
1950.0 0.00015681
1970.0 0.00015878
1990.0 0.00016103
2010.0 0.00016342
2030.0 0.00016589
2050.0 0.00016863
2070.0 0.0001716
2090.0 0.00017455
2110.0 0.0001776
2130.0 0.00018081
2150.0 0.000184
2170.0 0.00018706
2190.0 0.00019018
2210.0 0.00019324
2230.0 0.00019605
2250.0 0.00019869
2270.0 0.00020127
2290.0 0.00020354
2310.0 0.00020547
2330.0 0.00020723
2350.0 0.00020875
2370.0 0.00020989
2390.0 0.00021078
2410.0 0.00021152
2430.0 0.00021187
2450.0 0.00021187
2470.0 0.00021163
2490.0 0.00021114
2510.0 0.0002104
2530.0 0.00020991
2550.0 0.00021048
2570.0 0.00021302
2590.0 0.00021863
2610.0 0.00022985
2630.0 0.0002475
2650.0 0.00027059
2670.0 0.00029938
2690.0 0.00033257
2710.0 0.00036467
2730.0 0.00039239
2750.0 0.00041465
2770.0 0.00042689
2790.0 0.00042777
2810.0 0.00041788
2830.0 0.00039678
2850.0 0.0003677
2870.0 0.00033263
2890.0 0.0002919
2910.0 0.00024798
2930.0 0.00020364
2950.0 0.00015659
2970.0 0.00010761
2990.0 5.9124e-05
3010.0 2.5442e-05
3030.0 2.5442e-05
3050.0 2.5442e-05
3070.0 2.5442e-05
3090.0 2.5442e-05
3110.0 2.5442e-05
3130.0 2.5442e-05
3150.0 2.5442e-05
3170.0 2.5442e-05
3190.0 2.5442e-05
3210.0 0.00043855
3230.0 0.0018536
3250.0 0.0027194
3270.0 0.0024012
3290.0 0.001871
3310.0 0.0014346
3330.0 0.0013432
3350.0 0.0014388
3370.0 0.0015947
3390.0 0.0017591
3410.0 0.001934
3430.0 0.0021646
3450.0 0.0023813
3470.0 0.0026039
3490.0 0.0026321
3510.0 0.0022144
3530.0 0.0019993
3550.0 0.0024934
3570.0 0.003083
3590.0 0.0034275
3610.0 0.0035127
3630.0 0.0038932
3650.0 0.0039755
3670.0 0.0041228
3690.0 0.0046397
3710.0 0.0051008
3730.0 0.005455
3750.0 0.0056121
3770.0 0.0056755
3790.0 0.0055113
3810.0 0.0051357
3830.0 0.004608
3850.0 0.0032878
3870.0 0.0030459
3890.0 0.003457
3910.0 0.0046594
3930.0 0.0059676
3950.0 0.0064842
3970.0 0.006778
3990.0 0.0075812
4010.0 0.0076364
4030.0 0.0068636
4050.0 0.0050024
4070.0 0.0042482
4090.0 0.0051626
4110.0 0.0056486
4130.0 0.0061061
4150.0 0.00605
4170.0 0.005754
4190.0 0.0053646
4210.0 0.0060767
4230.0 0.0065496
4250.0 0.0070313
4270.0 0.0069376
4290.0 0.0066772
4310.0 0.006806
4330.0 0.007718
4350.0 0.0085252
4370.0 0.008675
4390.0 0.0080826
4410.0 0.0072631
4430.0 0.0057547
4450.0 0.0046406
4470.0 0.0046962
4490.0 0.0053072
4510.0 0.0056816
4530.0 0.0057678
4550.0 0.0059235
4570.0 0.0080377
4590.0 0.011645
4610.0 0.013827
4630.0 0.014445
4650.0 0.015912
4670.0 0.018354
4690.0 0.019242
4710.0 0.016489
4730.0 0.012725
4750.0 0.0098681
4770.0 0.008275
4790.0 0.0074381
4810.0 0.0070913
4830.0 0.0078002
4850.0 0.0093797
4870.0 0.010477
4890.0 0.010784
4910.0 0.010614
4930.0 0.011735
4950.0 0.01387
4970.0 0.015453
4990.0 0.015615
5010.0 0.014175
5030.0 0.011699
5050.0 0.0092721
5070.0 0.0077013
5090.0 0.0071202
5110.0 0.0071056
5130.0 0.0072156
5150.0 0.0071207
5170.0 0.006669
5190.0 0.0063486
5210.0 0.0064624
5230.0 0.0073424
5250.0 0.0088827
5270.0 0.010528
5290.0 0.011647
5310.0 0.012486
5330.0 0.013817
5350.0 0.015058
5370.0 0.015069
5390.0 0.013685
5410.0 0.012345
5430.0 0.012329
5450.0 0.014199
5470.0 0.016892
5490.0 0.018973
5510.0 0.019742
5530.0 0.019387
5550.0 0.018524
5570.0 0.017686
5590.0 0.016858
5610.0 0.016326
5630.0 0.016193
5650.0 0.016098
5670.0 0.015307
5690.0 0.013607
5710.0 0.011719
5730.0 0.010564
5750.0 0.010172
5770.0 0.010377
5790.0 0.010606
5810.0 0.010729
5830.0 0.010688
5850.0 0.010219
5870.0 0.0096893
5890.0 0.0095092
5910.0 0.0097081
5930.0 0.0097476
5950.0 0.0090428
5970.0 0.0078235
5990.0 0.0063437
6010.0 0.005207
6030.0 0.0049195
6050.0 0.0053383
6070.0 0.0056231
6090.0 0.0052782
6110.0 0.0047457
6130.0 0.004897
6150.0 0.0056014
6170.0 0.0062676
6190.0 0.0066993
6210.0 0.0068302
6230.0 0.0067348
6250.0 0.0061249
6270.0 0.0051107
6290.0 0.0042481
6310.0 0.0038543
6330.0 0.0038402
6350.0 0.0039269
6370.0 0.0040878
6390.0 0.0047036
6410.0 0.005792
6430.0 0.0068407
6450.0 0.0073995
6470.0 0.0075987
6490.0 0.0076645
6510.0 0.0077575
6530.0 0.0078706
6550.0 0.0079219
6570.0 0.0081728
6590.0 0.0083966
6610.0 0.0084452
6630.0 0.0081398
6650.0 0.0075239
6670.0 0.0068961
6690.0 0.0064329
6710.0 0.0061455
6730.0 0.0059366
6750.0 0.0058917
6770.0 0.0060534
6790.0 0.0062855
6810.0 0.0064152
6830.0 0.0063109
6850.0 0.0059822
6870.0 0.0056246
6890.0 0.0054899
6910.0 0.0054454
6930.0 0.0056119
6950.0 0.0058262
6970.0 0.005963
6990.0 0.0060187
7010.0 0.0058227
7030.0 0.0053576
7050.0 0.0047735
7070.0 0.0043645
7090.0 0.0042353
7110.0 0.0042443
7130.0 0.0040418
7150.0 0.0035972
7170.0 0.0034708
7190.0 0.0038578
7210.0 0.0044842
7230.0 0.0050631
7250.0 0.0052764
7270.0 0.0051618
7290.0 0.0048098
7310.0 0.0045061
7330.0 0.0044151
7350.0 0.0044658
7370.0 0.0045402
7390.0 0.0047688
7410.0 0.0052822
7430.0 0.005982
7450.0 0.006595
7470.0 0.0068301
7490.0 0.0065493
7510.0 0.0060777
7530.0 0.0056171
7550.0 0.00526
7570.0 0.0048589
7590.0 0.0046686
7610.0 0.0047514
7630.0 0.0050576
7650.0 0.0055431
7670.0 0.0061028
7690.0 0.0065751
7710.0 0.0069848
7730.0 0.007367
7750.0 0.0076882
7770.0 0.0077383
7790.0 0.0078586
7810.0 0.0079512
7830.0 0.0078121
7850.0 0.0075812
7870.0 0.0074523
7890.0 0.0075747
7910.0 0.0075623
7930.0 0.0074437
7950.0 0.0071497
7970.0 0.0069337
7990.0 0.006701
8010.0 0.006599
8030.0 0.0066664
8050.0 0.00671
8070.0 0.0066517
8090.0 0.0066236
8110.0 0.00648
8130.0 0.0065089
8150.0 0.0064743
8170.0 0.006357
8190.0 0.0062222
8210.0 0.0061406
8230.0 0.006015
8250.0 0.0059689
8270.0 0.0055441
8290.0 0.0046656
8310.0 0.003665
8330.0 0.0029798
8350.0 0.0028401
8370.0 0.003309
8390.0 0.0039324
8410.0 0.0042231
8430.0 0.0043438
8450.0 0.0046179
8470.0 0.0050042
8490.0 0.0056038
8510.0 0.0063507
8530.0 0.0071815
8550.0 0.0078916
8570.0 0.0084468
8590.0 0.0088725
8610.0 0.009107
8630.0 0.0090977
8650.0 0.0089921
8670.0 0.0090256
8690.0 0.0095443
8710.0 0.010244
8730.0 0.010658
8750.0 0.010644
8770.0 0.010822
8790.0 0.010844
8810.0 0.010291
8830.0 0.0096299
8850.0 0.0087686
8870.0 0.0080926
8890.0 0.0079053
8910.0 0.0078751
8930.0 0.0074274
8950.0 0.0068977
8970.0 0.0066835
8990.0 0.0066799
9010.0 0.0064853
9030.0 0.0063482
9050.0 0.0062896
9070.0 0.0062615
9090.0 0.0062374
9110.0 0.0062142
9130.0 0.006191
9150.0 0.0061684
9170.0 0.0061442
9190.0 0.0061265
9210.0 0.0061244
9230.0 0.0060936
9250.0 0.0060671
9270.0 0.0060433
9290.0 0.0060212
9310.0 0.0059997
9330.0 0.0059791
9350.0 0.0059598
9370.0 0.0059406
9390.0 0.0059213
9410.0 0.0059026
9430.0 0.0058832
9450.0 0.0058554
9470.0 0.0058308
9490.0 0.0058217
9510.0 0.0058082
9530.0 0.0057937
9550.0 0.0057783
9570.0 0.0057624
9590.0 0.0057464
9610.0 0.0057303
9630.0 0.0057142
9650.0 0.0056982
9670.0 0.0056825
9690.0 0.0056667
9710.0 0.0056511
9730.0 0.0056357
9750.0 0.0056203
9770.0 0.0056048
9790.0 0.0055895
9810.0 0.0055744
9830.0 0.0055591
9850.0 0.0055438
9870.0 0.0055288
9890.0 0.0055136
9910.0 0.0054982
9930.0 0.0054824
9950.0 0.0054343
9970.0 0.0054284
9990.0 0.0054205
10010.0 0.0054119
10030.0 0.0054003
10050.0 0.005386
10070.0 0.0053715
10090.0 0.005357
10110.0 0.0053395
10130.0 0.0053205
10150.0 0.0053046
10170.0 0.0052881
10190.0 0.0052695
10210.0 0.0052524
10230.0 0.0052355
10250.0 0.0052164
10270.0 0.0051972
10290.0 0.0051793
10310.0 0.0051595
10330.0 0.0051378
10350.0 0.0051179
10370.0 0.0050977
10390.0 0.0050754
10410.0 0.005053
10430.0 0.0050322
10450.0 0.0050092
10470.0 0.0049849
10490.0 0.0049617
10510.0 0.0049381
10530.0 0.0049113
10550.0 0.0048852
10570.0 0.0048603
10590.0 0.0048333
10610.0 0.0048049
10630.0 0.004778
10650.0 0.0047501
10670.0 0.0047194
10690.0 0.0046892
10710.0 0.0046597
10730.0 0.0046279
10750.0 0.0045939
10770.0 0.0045625
10790.0 0.0045298
10810.0 0.0044947
10830.0 0.0044599
10850.0 0.0044261
10870.0 0.0043884
10890.0 0.00435
10910.0 0.0043128
10930.0 0.004274
10950.0 0.0042321
10970.0 0.0041902
10990.0 0.0041492
11010.0 0.0044878
11030.0 0.0044405
11050.0 0.0043946
11070.0 0.0043476
11090.0 0.0042971
11110.0 0.0042501
11130.0 0.0042043
11150.0 0.0041569
11170.0 0.0041098
11190.0 0.0040655
11210.0 0.0040202
11230.0 0.0039736
11250.0 0.0039291
11270.0 0.0038857
11290.0 0.0038406
11310.0 0.0037958
11330.0 0.003754
11350.0 0.0037112
11370.0 0.0036672
11390.0 0.0036243
11410.0 0.0035814
11430.0 0.0035345
11450.0 0.0034868
11470.0 0.0034386
11490.0 0.0033869
11510.0 0.0033307
11530.0 0.0032742
11550.0 0.0032154
11570.0 0.0031517
11590.0 0.0030863
11610.0 0.0030211
11630.0 0.002952
11650.0 0.0028803
11670.0 0.0028113
11690.0 0.0027425
11710.0 0.002672
11730.0 0.0026033
11750.0 0.0025383
11770.0 0.0024724
11790.0 0.0024074
11810.0 0.0023461
11830.0 0.0022866
11850.0 0.0022259
11870.0 0.0021687
11890.0 0.0021147
11910.0 0.0020608
11930.0 0.0020079
11950.0 0.0019585
11970.0 0.0019103
11990.0 0.0018621
12010.0 0.001817
12030.0 0.0017746
12050.0 0.0017332
12070.0 0.0016935
12090.0 0.0016583
12110.0 0.0016253
12130.0 0.0015945
12150.0 0.0015674
12170.0 0.001544
12190.0 0.0015232
12210.0 0.0015062
12230.0 0.0014932
12250.0 0.0014838
12270.0 0.001478
12290.0 0.0014759
12310.0 0.0014768
12330.0 0.0014813
12350.0 0.0014888
12370.0 0.0014983
12390.0 0.0015103
12410.0 0.0015255
12430.0 0.001541
12450.0 0.0015574
12470.0 0.0015755
12490.0 0.0015941
12510.0 0.0016114
12530.0 0.0016292
12550.0 0.0016469
12570.0 0.0016624
12590.0 0.001676
12610.0 0.0016885
12630.0 0.0016982
12650.0 0.0017041
12670.0 0.0017072
12690.0 0.001707
12710.0 0.0017029
12730.0 0.0016952
12750.0 0.0016838
12770.0 0.0016687
12790.0 0.0016507
12810.0 0.0016296
12830.0 0.0016055
12850.0 0.00158
12870.0 0.0015533
12890.0 0.0015247
12910.0 0.0014959
12930.0 0.0014675
12950.0 0.0014386
12970.0 0.0014098
12990.0 0.0013827
13010.0 0.0013563
13030.0 0.0013302
13050.0 0.0013054
13070.0 0.001282
13090.0 0.0012588
13110.0 0.0012362
13130.0 0.0012149
13150.0 0.0011941
13170.0 0.0011732
13190.0 0.0011533
13210.0 0.0011343
13230.0 0.0011155
13250.0 0.0010971
13270.0 0.0010797
13290.0 0.0010629
13310.0 0.0010465
13330.0 0.0010312
13350.0 0.0010171
13370.0 0.0010038
13390.0 0.00099144
13410.0 0.00098067
13430.0 0.00097087
13450.0 0.00096199
13470.0 0.00095414
13490.0 0.0009471
13510.0 0.00094047
13530.0 0.00093422
13550.0 0.00092817
13570.0 0.00092198
13590.0 0.00091543
13610.0 0.00090852
13630.0 0.00090122
13650.0 0.00089317
13670.0 0.00088459
13690.0 0.00087571
13710.0 0.00086638
13730.0 0.00085644
13750.0 0.00084681
13770.0 0.0008373
13790.0 0.00082778
13810.0 0.00081864
13830.0 0.00081022
13850.0 0.00080211
13870.0 0.00079447
13890.0 0.00078757
13910.0 0.00078124
13930.0 0.00077523
13950.0 0.00076965
13970.0 0.00076457
13990.0 0.00075958
14010.0 0.00075463
14030.0 0.00074977
14050.0 0.00074484
14070.0 0.00073949
14090.0 0.00073396
14110.0 0.00072823
14130.0 0.00072205
14150.0 0.00071537
14170.0 0.00070866
14190.0 0.00070173
14210.0 0.00069441
14230.0 0.00068714
14250.0 0.00068015
14270.0 0.00067309
14290.0 0.00066626
14310.0 0.00066021
14330.0 0.00065467
14350.0 0.00064963
14370.0 0.00064538
14390.0 0.00064197
14410.0 0.00063912
14430.0 0.00063696
14450.0 0.00063548
14470.0 0.00063453
14490.0 0.000634
14510.0 0.0006339
14530.0 0.00063412
14550.0 0.00063463
14570.0 0.00063544
14590.0 0.00063655
14610.0 0.00063803
14630.0 0.00064002
14650.0 0.00064256
14670.0 0.00064572
14690.0 0.00064977
14710.0 0.00065482
14730.0 0.00066062
14750.0 0.00066758
14770.0 0.0006759
14790.0 0.00068528
14810.0 0.00069569
14830.0 0.00070809
14850.0 0.00072178
14870.0 0.00073633
14890.0 0.0007523
14910.0 0.00076961
14930.0 0.00078685
14950.0 0.00080359
14970.0 0.0008201
14990.0 0.00083486
15010.0 0.00084722
15030.0 0.00085756
15050.0 0.00086589
15070.0 0.00087199
15090.0 0.00087674
15110.0 0.0008806
15130.0 0.00088386
15150.0 0.00088682
15170.0 0.00088965
15190.0 0.00089246
15210.0 0.0008953
15230.0 0.00089818
15250.0 0.0009011
15270.0 0.00090409
15290.0 0.00090714
15310.0 0.00091024
15330.0 0.00091339
15350.0 0.0009166
15370.0 0.00091986
15390.0 0.00092317
15410.0 0.00092653
15430.0 0.00092995
15450.0 0.00093341
15470.0 0.00093691
15490.0 0.00094048
15510.0 0.00094408
15530.0 0.00094773
15550.0 0.00095142
15570.0 0.00095516
15590.0 0.00095894
15610.0 0.00096275
15630.0 0.00096661
15650.0 0.00097051
15670.0 0.00097444
15690.0 0.00097841
15710.0 0.00098242
15730.0 0.00098646
15750.0 0.00099053
15770.0 0.00099463
15790.0 0.00099877
15810.0 0.0010029
15830.0 0.0010071
15850.0 0.0010113
15870.0 0.0010156
15890.0 0.0010198
15910.0 0.0010241
15930.0 0.0010284
15950.0 0.0010327
15970.0 0.0010371
15990.0 0.0010414
16010.0 0.0010458
16030.0 0.0010502
16050.0 0.0010546
16070.0 0.001059
16090.0 0.0010634
16110.0 0.0010678
16130.0 0.0010723
16150.0 0.0010767
16170.0 0.0010811
16190.0 0.0010856
16210.0 0.00109
16230.0 0.0010944
16250.0 0.0010988
16270.0 0.0011033
16290.0 0.0011077
16310.0 0.0011121
16330.0 0.0011165
16350.0 0.0011208
16370.0 0.0011252
16390.0 0.0011295
16410.0 0.0011338
16430.0 0.0011381
16450.0 0.0011424
16470.0 0.0011467
16490.0 0.0011509
16510.0 0.0011551
16530.0 0.0011593
16550.0 0.0011634
16570.0 0.0011675
16590.0 0.0011716
16610.0 0.0011756
16630.0 0.0011796
16650.0 0.0011836
16670.0 0.0011875
16690.0 0.0011914
16710.0 0.0011952
16730.0 0.001199
16750.0 0.0012027
16770.0 0.0012064
16790.0 0.00121
16810.0 0.0012136
16830.0 0.0012171
16850.0 0.0012205
16870.0 0.0012239
16890.0 0.0012273
16910.0 0.0012306
16930.0 0.0012338
16950.0 0.0012369
16970.0 0.00124
16990.0 0.001243
17010.0 0.0012459
17030.0 0.0012488
17050.0 0.0012516
17070.0 0.0012543
17090.0 0.0012569
17110.0 0.0012595
17130.0 0.0012619
17150.0 0.0012643
17170.0 0.0012667
17190.0 0.0012689
17210.0 0.001271
17230.0 0.0012731
17250.0 0.0012751
17270.0 0.001277
17290.0 0.0012788
17310.0 0.0012805
17330.0 0.0012821
17350.0 0.0012836
17370.0 0.001285
17390.0 0.0012864
17410.0 0.0012876
17430.0 0.0012888
17450.0 0.0012898
17470.0 0.0012908
17490.0 0.0012916
17510.0 0.0012924
17530.0 0.0012931
17550.0 0.0012936
17570.0 0.0012941
17590.0 0.0012945
17610.0 0.0012947
17630.0 0.0012949
17650.0 0.001295
17670.0 0.0012949
17690.0 0.0012948
17710.0 0.0012945
17730.0 0.0012942
17750.0 0.0012937
17770.0 0.0012932
17790.0 0.0012926
17810.0 0.0012918
17830.0 0.001291
17850.0 0.00129
17870.0 0.001289
17890.0 0.0012878
17910.0 0.0012866
17930.0 0.0012852
17950.0 0.0012838
17970.0 0.0012822
17990.0 0.0012806
18010.0 0.0012788
18030.0 0.001277
18050.0 0.0012751
18070.0 0.001273
18090.0 0.0012709
18110.0 0.0012687
18130.0 0.0012664
18150.0 0.001264
18170.0 0.0012615
18190.0 0.0012589
18210.0 0.0012562
18230.0 0.0012535
18250.0 0.0012506
18270.0 0.0012477
18290.0 0.0012447
18310.0 0.0012415
18330.0 0.0012384
18350.0 0.0012351
18370.0 0.0012317
18390.0 0.0012283
18410.0 0.0012248
18430.0 0.0012212
18450.0 0.0012175
18470.0 0.0012138
18490.0 0.00121
18510.0 0.0012061
18530.0 0.0012022
18550.0 0.0011982
18570.0 0.0011941
18590.0 0.0011899
18610.0 0.0011857
18630.0 0.0011814
18650.0 0.0011771
18670.0 0.0011727
18690.0 0.0011682
18710.0 0.0011637
18730.0 0.0011591
18750.0 0.0011545
18770.0 0.0011498
18790.0 0.0011451
18810.0 0.0011403
18830.0 0.0011355
18850.0 0.0011306
18870.0 0.0011257
18890.0 0.0011207
18910.0 0.0011157
18930.0 0.0011107
18950.0 0.0011056
18970.0 0.0011005
18990.0 0.0010954
19010.0 0.0010902
19030.0 0.0010849
19050.0 0.0010797
19070.0 0.0010744
19090.0 0.0010691
19110.0 0.0010638
19130.0 0.0010584
19150.0 0.001053
19170.0 0.0010476
19190.0 0.0010422
19210.0 0.0010368
19230.0 0.0010313
19250.0 0.0010258
19270.0 0.0010203
19290.0 0.0010148
19310.0 0.0010093
19330.0 0.0010038
19350.0 0.00099825
19370.0 0.0009927
19390.0 0.00098715
19410.0 0.00098159
19430.0 0.00097602
19450.0 0.00097046
19470.0 0.00096489
19490.0 0.00095931
19510.0 0.00095375
19530.0 0.00094818
19550.0 0.00094261
19570.0 0.00093704
19590.0 0.00093149
19610.0 0.00092594
19630.0 0.00092039
19650.0 0.00091485
19670.0 0.00090933
19690.0 0.00090381
19710.0 0.0008983
19730.0 0.0008928
19750.0 0.00088732
19770.0 0.00088184
19790.0 0.00087639
19810.0 0.00087094
19830.0 0.00086549
19850.0 0.00086002
19870.0 0.00085449
19890.0 0.0008488
19910.0 0.00084279
19930.0 0.00083631
19950.0 0.00082911
19970.0 0.00082076
19990.0 0.00081106
20010.0 0.00080019
20030.0 0.00078766
20050.0 0.00077358
20070.0 0.00075869
20090.0 0.00074313
20110.0 0.00072638
20130.0 0.00070983
20150.0 0.00069373
20170.0 0.00067757
20190.0 0.00066158
20210.0 0.00064654
20230.0 0.000632
20250.0 0.0006176
20270.0 0.00060405
20290.0 0.00059137
20310.0 0.00057908
20330.0 0.00056719
20350.0 0.00055651
20370.0 0.00054635
20390.0 0.00053664
20410.0 0.00052767
20430.0 0.00051946
20450.0 0.00051156
20470.0 0.00050424
20490.0 0.0004976
20510.0 0.00049142
20530.0 0.00048561
20550.0 0.00048032
20570.0 0.00047549
20590.0 0.00047096
20610.0 0.00046676
20630.0 0.00046291
20650.0 0.0004593
20670.0 0.00045589
20690.0 0.00045269
20710.0 0.00044965
20730.0 0.00044671
20750.0 0.00044384
20770.0 0.00044103
20790.0 0.00043822
20810.0 0.00043539
20830.0 0.00043252
20850.0 0.00042959
20870.0 0.00042657
20890.0 0.00042344
20910.0 0.00042022
20930.0 0.00041689
20950.0 0.00041341
20970.0 0.00040984
20990.0 0.00040619
21010.0 0.00040235
21030.0 0.00039843
21050.0 0.00039447
21070.0 0.0003904
21090.0 0.00038619
21110.0 0.00038202
21130.0 0.00037783
21150.0 0.00037354
21170.0 0.00036925
21190.0 0.00036503
21210.0 0.00036074
21230.0 0.00035643
21250.0 0.00035224
21270.0 0.0003481
21290.0 0.00034393
21310.0 0.00033986
21330.0 0.00033595
21350.0 0.00033206
21370.0 0.00032823
21390.0 0.00032458
21410.0 0.00032106
21430.0 0.00031757
21450.0 0.00031427
21470.0 0.00031118
21490.0 0.00030819
21510.0 0.00030536
21530.0 0.00030273
21550.0 0.00030026
21570.0 0.00029794
21590.0 0.0002958
21610.0 0.00029383
21630.0 0.00029201
21650.0 0.00029035
21670.0 0.00028884
21690.0 0.00028745
21710.0 0.0002862
21730.0 0.00028505
21750.0 0.00028399
21770.0 0.00028304
21790.0 0.00028217
21810.0 0.00028134
21830.0 0.00028055
21850.0 0.00027983
21870.0 0.0002791
21890.0 0.00027836
21910.0 0.00027764
21930.0 0.00027691
21950.0 0.00027613
21970.0 0.00027532
21990.0 0.00027449
22010.0 0.0002736
22030.0 0.00027264
22050.0 0.00027164
22070.0 0.00027058
22090.0 0.00026947
22110.0 0.0002683
22130.0 0.00026708
22150.0 0.00026581
22170.0 0.0002645
22190.0 0.00026315
22210.0 0.00026175
22230.0 0.00026032
22250.0 0.00025885
22270.0 0.00025733
22290.0 0.00025578
22310.0 0.00025418
22330.0 0.0002525
22350.0 0.00025076
22370.0 0.00024896
22390.0 0.00024705
22410.0 0.000245
22430.0 0.00024289
22450.0 0.00024067
22470.0 0.00023826
22490.0 0.00023574
22510.0 0.00023313
22530.0 0.00023032
22550.0 0.00022732
22570.0 0.00022429
22590.0 0.00022116
22610.0 0.00021784
22630.0 0.00021449
22650.0 0.00021119
22670.0 0.00020777
22690.0 0.00020432
22710.0 0.00020098
22730.0 0.00019769
22750.0 0.00019433
22770.0 0.00019117
22790.0 0.00018818
22810.0 0.00018525
22830.0 0.00018243
22850.0 0.00017985
22870.0 0.0001774
22890.0 0.00017502
22910.0 0.00017285
22930.0 0.00017085
22950.0 0.00016895
22970.0 0.00016714
22990.0 0.00016552
23010.0 0.00016398
23030.0 0.0001625
23050.0 0.00016111
23070.0 0.00015979
23090.0 0.00015847
23110.0 0.00015719
23130.0 0.00015595
23150.0 0.00015471
23170.0 0.00015344
23190.0 0.0001522
23210.0 0.00015098
23230.0 0.00014973
23250.0 0.00014849
23270.0 0.0001473
23290.0 0.00014611
23310.0 0.00014492
23330.0 0.00014381
23350.0 0.00014276
23370.0 0.00014173
23390.0 0.00014075
23410.0 0.00013986
