#lamb flux
1010.0 2.1022e-07
1030.0 2.2101e-07
1050.0 2.3344e-07
1070.0 2.4745e-07
1090.0 2.6336e-07
1110.0 2.797e-07
1130.0 2.9616e-07
1150.0 3.1342e-07
1170.0 3.3125e-07
1190.0 3.4819e-07
1210.0 3.6538e-07
1230.0 3.8318e-07
1250.0 4.0065e-07
1270.0 4.1766e-07
1290.0 4.3566e-07
1310.0 4.5368e-07
1330.0 4.7102e-07
1350.0 4.886e-07
1370.0 5.0678e-07
1390.0 5.2457e-07
1410.0 5.4189e-07
1430.0 5.6003e-07
1450.0 5.7822e-07
1470.0 5.9587e-07
1490.0 6.1376e-07
1510.0 6.3267e-07
1530.0 6.5068e-07
1550.0 6.6849e-07
1570.0 6.8694e-07
1590.0 7.0545e-07
1610.0 7.232e-07
1630.0 7.415e-07
1650.0 7.603e-07
1670.0 7.7852e-07
1690.0 7.9652e-07
1710.0 8.152e-07
1730.0 8.3397e-07
1750.0 8.5166e-07
1770.0 8.6982e-07
1790.0 8.8832e-07
1810.0 9.0622e-07
1830.0 9.2377e-07
1850.0 9.4235e-07
1870.0 9.6041e-07
1890.0 9.7784e-07
1910.0 9.9558e-07
1930.0 1.0137e-06
1950.0 1.031e-06
1970.0 1.0481e-06
1990.0 1.0658e-06
2010.0 1.0832e-06
2030.0 1.1001e-06
2050.0 1.1175e-06
2070.0 1.1355e-06
2090.0 1.1525e-06
2110.0 1.1696e-06
2130.0 1.1875e-06
2150.0 1.2052e-06
2170.0 1.2224e-06
2190.0 1.2405e-06
2210.0 1.2591e-06
2230.0 1.2773e-06
2250.0 1.2959e-06
2270.0 1.3157e-06
2290.0 1.3355e-06
2310.0 1.3552e-06
2330.0 1.376e-06
2350.0 1.3975e-06
2370.0 1.4191e-06
2390.0 1.4416e-06
2410.0 1.4657e-06
2430.0 1.49e-06
2450.0 1.5144e-06
2470.0 1.5393e-06
2490.0 1.5639e-06
2510.0 1.587e-06
2530.0 1.6107e-06
2550.0 1.6387e-06
2570.0 1.6772e-06
2590.0 1.7345e-06
2610.0 1.8289e-06
2630.0 1.9717e-06
2650.0 2.1626e-06
2670.0 2.4089e-06
2690.0 2.7101e-06
2710.0 3.0346e-06
2730.0 3.3641e-06
2750.0 3.7048e-06
2770.0 4.0308e-06
2790.0 4.3317e-06
2810.0 4.623e-06
2830.0 4.9185e-06
2850.0 5.2e-06
2870.0 5.4837e-06
2890.0 5.7829e-06
2910.0 6.0905e-06
2930.0 6.3963e-06
2950.0 6.7187e-06
2970.0 7.0547e-06
2990.0 7.3892e-06
3010.0 1.4704e-05
3030.0 1.5377e-05
3050.0 1.6056e-05
3070.0 1.67e-05
3090.0 1.7328e-05
3110.0 1.7885e-05
3130.0 1.8284e-05
3150.0 1.8451e-05
3170.0 1.8243e-05
3190.0 1.7576e-05
3210.0 1.6439e-05
3230.0 1.5056e-05
3250.0 1.5073e-05
3270.0 1.1204e-05
3290.0 1.2579e-05
3310.0 9.0376e-06
3330.0 9.7255e-06
3350.0 1.0955e-05
3370.0 1.2249e-05
3390.0 1.3575e-05
3410.0 1.4895e-05
3430.0 1.6242e-05
3450.0 1.7579e-05
3470.0 1.8848e-05
3490.0 1.9768e-05
3510.0 2.145e-05
3530.0 2.5072e-05
3550.0 2.8559e-05
3570.0 3.2007e-05
3590.0 3.9293e-05
3610.0 3.8187e-05
3630.0 4.1266e-05
3650.0 4.0525e-05
3670.0 4.4078e-05
3690.0 4.8137e-05
3710.0 5.0932e-05
3730.0 5.8763e-05
3750.0 6.1226e-05
3770.0 6.2017e-05
3790.0 5.899e-05
3810.0 5.2013e-05
3830.0 4.7817e-05
3850.0 4.2045e-05
3870.0 4.5826e-05
3890.0 5.2141e-05
3910.0 6.1481e-05
3930.0 7.1333e-05
3950.0 7.7509e-05
3970.0 8.8183e-05
3990.0 9.0729e-05
4010.0 8.821e-05
4030.0 8.9611e-05
4050.0 8.2237e-05
4070.0 7.8723e-05
4090.0 7.6637e-05
4110.0 7.3121e-05
4130.0 7.8898e-05
4150.0 7.606e-05
4170.0 7.5955e-05
4190.0 7.4475e-05
4210.0 7.9837e-05
4230.0 7.6536e-05
4250.0 8.2528e-05
4270.0 8.2305e-05
4290.0 8.2681e-05
4310.0 8.8249e-05
4330.0 9.3981e-05
4350.0 9.4656e-05
4370.0 9.2708e-05
4390.0 8.8306e-05
4410.0 7.8149e-05
4430.0 6.5091e-05
4450.0 6.0064e-05
4470.0 6.1843e-05
4490.0 6.1801e-05
4510.0 6.9959e-05
4530.0 7.6741e-05
4550.0 9.056e-05
4570.0 0.00011727
4590.0 0.00014336
4610.0 0.00015687
4630.0 0.00017996
4650.0 0.00019684
4670.0 0.00019819
4690.0 0.00018079
4710.0 0.00016791
4730.0 0.00014913
4750.0 0.00012229
4770.0 0.0001033
4790.0 9.205e-05
4810.0 0.00010046
4830.0 0.00011159
4850.0 0.00012532
4870.0 0.00011972
4890.0 0.00013702
4910.0 0.00014312
4930.0 0.00015613
4950.0 0.00018306
4970.0 0.00019465
4990.0 0.00020504
5010.0 0.00018971
5030.0 0.00015924
5050.0 0.00012987
5070.0 0.0001031
5090.0 9.2853e-05
5110.0 9.1217e-05
5130.0 8.9695e-05
5150.0 9.3905e-05
5170.0 9.0799e-05
5190.0 9.5775e-05
5210.0 9.768e-05
5230.0 0.00010537
5250.0 0.00012386
5270.0 0.00013505
5290.0 0.00014717
5310.0 0.00016631
5330.0 0.00018067
5350.0 0.00018566
5370.0 0.00018663
5390.0 0.00018344
5410.0 0.00018076
5430.0 0.00018389
5450.0 0.00020678
5470.0 0.00024354
5490.0 0.00027957
5510.0 0.00031358
5530.0 0.00032305
5550.0 0.00032125
5570.0 0.00031426
5590.0 0.0003078
5610.0 0.0003057
5630.0 0.0003073
5650.0 0.00031021
5670.0 0.00030758
5690.0 0.00028777
5710.0 0.00026411
5730.0 0.00023705
5750.0 0.00022283
5770.0 0.00021177
5790.0 0.00021717
5810.0 0.00022965
5830.0 0.00023877
5850.0 0.00023251
5870.0 0.00022199
5890.0 0.00021874
5910.0 0.00021338
5930.0 0.00020984
5950.0 0.00020563
5970.0 0.00019819
5990.0 0.00017584
6010.0 0.0001531
6030.0 0.00013988
6050.0 0.00013531
6070.0 0.00013214
6090.0 0.000132
6110.0 0.0001347
6130.0 0.00013595
6150.0 0.00014409
6170.0 0.00015947
6190.0 0.00017569
6210.0 0.00018437
6230.0 0.00018687
6250.0 0.00017187
6270.0 0.00015179
6290.0 0.00013046
6310.0 0.00011405
6330.0 0.00010539
6350.0 0.0001024
6370.0 0.00010751
6390.0 0.00012054
6410.0 0.00014164
6430.0 0.00016903
6450.0 0.000192
6470.0 0.00020938
6490.0 0.00022429
6510.0 0.00023043
6530.0 0.00022877
6550.0 0.00022984
6570.0 0.00023229
6590.0 0.00022939
6610.0 0.00023171
6630.0 0.00022752
6650.0 0.00022031
6670.0 0.00020756
6690.0 0.00018994
6710.0 0.00018232
6730.0 0.00017254
6750.0 0.00017247
6770.0 0.00017715
6790.0 0.0001833
6810.0 0.00018661
6830.0 0.00018309
6850.0 0.00017561
6870.0 0.00017012
6890.0 0.0001621
6910.0 0.00015445
6930.0 0.00015832
6950.0 0.00016034
6970.0 0.00016682
6990.0 0.00017335
7010.0 0.00017185
7030.0 0.00016172
7050.0 0.00014472
7070.0 0.00012867
7090.0 0.000114
7110.0 0.00010611
7130.0 0.00010195
7150.0 9.9239e-05
7170.0 0.00010266
7190.0 0.00010492
7210.0 0.00011062
7230.0 0.00012274
7250.0 0.00013144
7270.0 0.00013458
7290.0 0.00013282
7310.0 0.00012676
7330.0 0.00011889
7350.0 0.0001148
7370.0 0.00011555
7390.0 0.0001216
7410.0 0.00013438
7430.0 0.00014999
7450.0 0.00016927
7470.0 0.00018389
7490.0 0.00019098
7510.0 0.00018342
7530.0 0.00016776
7550.0 0.00014625
7570.0 0.00012429
7590.0 0.00011494
7610.0 0.00011528
7630.0 0.00012283
7650.0 0.00013906
7670.0 0.00015485
7690.0 0.00016909
7710.0 0.00018193
7730.0 0.00019209
7750.0 0.00020048
7770.0 0.0002041
7790.0 0.00021043
7810.0 0.00021446
7830.0 0.00021326
7850.0 0.00021358
7870.0 0.00020561
7890.0 0.00019886
7910.0 0.00018715
7930.0 0.00018191
7950.0 0.00017483
7970.0 0.00017579
7990.0 0.00017379
8010.0 0.00017066
8030.0 0.0001706
8050.0 0.00017564
8070.0 0.00017194
8090.0 0.00017174
8110.0 0.00016526
8130.0 0.00016411
8150.0 0.00015871
8170.0 0.00015395
8190.0 0.00015161
8210.0 0.00015243
8230.0 0.00014098
8250.0 0.00013093
8270.0 0.00011405
8290.0 9.2332e-05
8310.0 7.3218e-05
8330.0 5.6754e-05
8350.0 4.9371e-05
8370.0 5.4224e-05
8390.0 6.0806e-05
8410.0 6.6691e-05
8430.0 7.5705e-05
8450.0 7.9928e-05
8470.0 8.3582e-05
8490.0 9.3193e-05
8510.0 0.00010294
8530.0 0.00011925
8550.0 0.00014021
8570.0 0.00015853
8590.0 0.00017298
8610.0 0.00018639
8630.0 0.00019754
8650.0 0.00019926
8670.0 0.00019975
8690.0 0.00020607
8710.0 0.00020779
8730.0 0.00021015
8750.0 0.00020411
8770.0 0.00020416
8790.0 0.00020089
8810.0 0.00018647
8830.0 0.00018246
8850.0 0.00017211
8870.0 0.0001647
8890.0 0.00015564
8910.0 0.00016074
8930.0 0.00015022
8950.0 0.00014524
8970.0 0.00014342
8990.0 0.00013945
9010.0 0.00013809
9030.0 0.00013409
9050.0 0.00013331
9070.0 0.00013298
9090.0 0.00013265
9110.0 0.00013234
9130.0 0.00013199
9150.0 0.00013161
9170.0 0.00013103
9190.0 0.00013016
9210.0 0.00013098
9230.0 0.0001303
9250.0 0.00012976
9270.0 0.00012924
9290.0 0.00012875
9310.0 0.00012827
9330.0 0.00012778
9350.0 0.0001273
9370.0 0.00012681
9390.0 0.00012632
9410.0 0.00012582
9430.0 0.00012531
9450.0 0.00012476
9470.0 0.00012421
9490.0 0.00012372
9510.0 0.0001232
9530.0 0.00012268
9550.0 0.00012214
9570.0 0.0001216
9590.0 0.00012106
9610.0 0.00012051
9630.0 0.00011996
9650.0 0.0001194
9670.0 0.00011885
9690.0 0.00011829
9710.0 0.00011773
9730.0 0.00011716
9750.0 0.0001166
9770.0 0.00011604
9790.0 0.00011548
9810.0 0.00011491
9830.0 0.00011435
9850.0 0.00011379
9870.0 0.00011323
9890.0 0.00011267
9910.0 0.00011211
9930.0 0.00011154
9950.0 0.00011039
9970.0 0.00011001
9990.0 0.0001096
10010.0 0.00010918
10030.0 0.00010871
10050.0 0.00010819
10070.0 0.00010762
10090.0 0.00010713
10110.0 0.0001066
10130.0 0.00010608
10150.0 0.00010557
10170.0 0.00010504
10190.0 0.00010449
10210.0 0.00010397
10230.0 0.00010346
10250.0 0.00010293
10270.0 0.00010241
10290.0 0.00010192
10310.0 0.0001014
10330.0 0.00010087
10350.0 0.00010037
10370.0 9.9881e-05
10390.0 9.9368e-05
10410.0 9.8863e-05
10430.0 9.839e-05
10450.0 9.7895e-05
10470.0 9.7392e-05
10490.0 9.6913e-05
10510.0 9.644e-05
10530.0 9.5932e-05
10550.0 9.5444e-05
10570.0 9.4982e-05
10590.0 9.4502e-05
10610.0 9.4012e-05
10630.0 9.3552e-05
10650.0 9.3091e-05
10670.0 9.2601e-05
10690.0 9.2129e-05
10710.0 9.1675e-05
10730.0 9.1202e-05
10750.0 9.071e-05
10770.0 9.0262e-05
10790.0 8.9807e-05
10810.0 8.9329e-05
10830.0 8.8865e-05
10850.0 8.842e-05
10870.0 8.7927e-05
10890.0 8.7419e-05
10910.0 8.6911e-05
10930.0 8.635e-05
10950.0 8.5688e-05
10970.0 8.4948e-05
10990.0 8.4131e-05
11010.0 7.7819e-05
11030.0 7.6805e-05
11050.0 7.5758e-05
11070.0 7.4637e-05
11090.0 7.3391e-05
11110.0 7.2198e-05
11130.0 7.1018e-05
11150.0 6.9792e-05
11170.0 6.8572e-05
11190.0 6.743e-05
11210.0 6.6268e-05
11230.0 6.5084e-05
11250.0 6.3966e-05
11270.0 6.2895e-05
11290.0 6.18e-05
11310.0 6.0743e-05
11330.0 5.9803e-05
11350.0 5.8877e-05
11370.0 5.7977e-05
11390.0 5.7162e-05
11410.0 5.6406e-05
11430.0 5.5633e-05
11450.0 5.4911e-05
11470.0 5.4239e-05
11490.0 5.3555e-05
11510.0 5.2838e-05
11530.0 5.2148e-05
11550.0 5.1442e-05
11570.0 5.0661e-05
11590.0 4.9849e-05
11610.0 4.9027e-05
11630.0 4.8119e-05
11650.0 4.7132e-05
11670.0 4.616e-05
11690.0 4.5157e-05
11710.0 4.4087e-05
11730.0 4.3019e-05
11750.0 4.2003e-05
11770.0 4.095e-05
11790.0 3.9906e-05
11810.0 3.8937e-05
11830.0 3.8012e-05
11850.0 3.7077e-05
11870.0 3.6232e-05
11890.0 3.5475e-05
11910.0 3.474e-05
11930.0 3.4049e-05
11950.0 3.3441e-05
11970.0 3.2869e-05
11990.0 3.2306e-05
12010.0 3.18e-05
12030.0 3.1341e-05
12050.0 3.089e-05
12070.0 3.0454e-05
12090.0 3.0079e-05
12110.0 2.9719e-05
12130.0 2.9371e-05
12150.0 2.9064e-05
12170.0 2.88e-05
12190.0 2.8548e-05
12210.0 2.8345e-05
12230.0 2.8204e-05
12250.0 2.8115e-05
12270.0 2.8085e-05
12290.0 2.8133e-05
12310.0 2.8258e-05
12330.0 2.8463e-05
12350.0 2.8754e-05
12370.0 2.9123e-05
12390.0 2.9572e-05
12410.0 3.0117e-05
12430.0 3.0709e-05
12450.0 3.1348e-05
12470.0 3.2044e-05
12490.0 3.2769e-05
12510.0 3.3481e-05
12530.0 3.4208e-05
12550.0 3.4934e-05
12570.0 3.5614e-05
12590.0 3.6251e-05
12610.0 3.6859e-05
12630.0 3.7408e-05
12650.0 3.788e-05
12670.0 3.8299e-05
12690.0 3.8656e-05
12710.0 3.8942e-05
12730.0 3.9166e-05
12750.0 3.9328e-05
12770.0 3.9426e-05
12790.0 3.947e-05
12810.0 3.9458e-05
12830.0 3.9387e-05
12850.0 3.9281e-05
12870.0 3.9134e-05
12890.0 3.8937e-05
12910.0 3.8708e-05
12930.0 3.8461e-05
12950.0 3.8169e-05
12970.0 3.7839e-05
12990.0 3.7506e-05
13010.0 3.7148e-05
13030.0 3.6751e-05
13050.0 3.6338e-05
13070.0 3.5926e-05
13090.0 3.5474e-05
13110.0 3.5001e-05
13130.0 3.4538e-05
13150.0 3.407e-05
13170.0 3.3577e-05
13190.0 3.3117e-05
13210.0 3.2697e-05
13230.0 3.2295e-05
13250.0 3.1935e-05
13270.0 3.1646e-05
13290.0 3.1411e-05
13310.0 3.1235e-05
13330.0 3.1138e-05
13350.0 3.1109e-05
13370.0 3.1141e-05
13390.0 3.1227e-05
13410.0 3.135e-05
13430.0 3.1495e-05
13450.0 3.1647e-05
13470.0 3.1783e-05
13490.0 3.1886e-05
13510.0 3.1943e-05
13530.0 3.1935e-05
13550.0 3.1861e-05
13570.0 3.1712e-05
13590.0 3.148e-05
13610.0 3.1186e-05
13630.0 3.0842e-05
13650.0 3.0431e-05
13670.0 2.9983e-05
13690.0 2.9526e-05
13710.0 2.905e-05
13730.0 2.8548e-05
13750.0 2.8086e-05
13770.0 2.7644e-05
13790.0 2.7211e-05
13810.0 2.6809e-05
13830.0 2.6451e-05
13850.0 2.6109e-05
13870.0 2.5789e-05
13890.0 2.5506e-05
13910.0 2.5248e-05
13930.0 2.5002e-05
13950.0 2.4776e-05
13970.0 2.4576e-05
13990.0 2.4386e-05
14010.0 2.4206e-05
14030.0 2.4045e-05
14050.0 2.3895e-05
14070.0 2.3751e-05
14090.0 2.3621e-05
14110.0 2.3504e-05
14130.0 2.3395e-05
14150.0 2.3294e-05
14170.0 2.3205e-05
14190.0 2.3124e-05
14210.0 2.305e-05
14230.0 2.2985e-05
14250.0 2.293e-05
14270.0 2.2884e-05
14290.0 2.285e-05
14310.0 2.2825e-05
14330.0 2.2811e-05
14350.0 2.2809e-05
14370.0 2.2815e-05
14390.0 2.2827e-05
14410.0 2.2846e-05
14430.0 2.2869e-05
14450.0 2.2889e-05
14470.0 2.2906e-05
14490.0 2.2922e-05
14510.0 2.2927e-05
14530.0 2.2923e-05
14550.0 2.2913e-05
14570.0 2.2896e-05
14590.0 2.2874e-05
14610.0 2.2851e-05
14630.0 2.2834e-05
14650.0 2.2823e-05
14670.0 2.2824e-05
14690.0 2.2845e-05
14710.0 2.2892e-05
14730.0 2.2959e-05
14750.0 2.3059e-05
14770.0 2.3199e-05
14790.0 2.3371e-05
14810.0 2.3572e-05
14830.0 2.3832e-05
14850.0 2.4127e-05
14870.0 2.4442e-05
14890.0 2.4789e-05
14910.0 2.5165e-05
14930.0 2.5524e-05
14950.0 2.5854e-05
14970.0 2.6163e-05
14990.0 2.6408e-05
15010.0 2.6574e-05
15030.0 2.6673e-05
15050.0 2.6708e-05
15070.0 2.6677e-05
15090.0 2.6605e-05
15110.0 2.6505e-05
15130.0 2.6386e-05
15150.0 2.6259e-05
15170.0 2.6125e-05
15190.0 2.5988e-05
15210.0 2.5851e-05
15230.0 2.5714e-05
15250.0 2.5575e-05
15270.0 2.5437e-05
15290.0 2.53e-05
15310.0 2.5162e-05
15330.0 2.5023e-05
15350.0 2.4886e-05
15370.0 2.4748e-05
15390.0 2.461e-05
15410.0 2.4472e-05
15430.0 2.4335e-05
15450.0 2.4198e-05
15470.0 2.406e-05
15490.0 2.3924e-05
15510.0 2.3788e-05
15530.0 2.3651e-05
15550.0 2.3515e-05
15570.0 2.338e-05
15590.0 2.3245e-05
15610.0 2.3109e-05
15630.0 2.2975e-05
15650.0 2.2842e-05
15670.0 2.2708e-05
15690.0 2.2575e-05
15710.0 2.2443e-05
15730.0 2.231e-05
15750.0 2.2178e-05
15770.0 2.2048e-05
15790.0 2.1918e-05
15810.0 2.1787e-05
15830.0 2.1658e-05
15850.0 2.153e-05
15870.0 2.1401e-05
15890.0 2.1274e-05
15910.0 2.1147e-05
15930.0 2.1021e-05
15950.0 2.0895e-05
15970.0 2.0771e-05
15990.0 2.0647e-05
16010.0 2.0523e-05
16030.0 2.04e-05
16050.0 2.0278e-05
16070.0 2.0157e-05
16090.0 2.0036e-05
16110.0 1.9917e-05
16130.0 1.9798e-05
16150.0 1.9679e-05
16170.0 1.9561e-05
16190.0 1.9445e-05
16210.0 1.9329e-05
16230.0 1.9214e-05
16250.0 1.9099e-05
16270.0 1.8986e-05
16290.0 1.8873e-05
16310.0 1.8761e-05
16330.0 1.865e-05
16350.0 1.854e-05
16370.0 1.8429e-05
16390.0 1.8321e-05
16410.0 1.8214e-05
16430.0 1.8106e-05
16450.0 1.8e-05
16470.0 1.7895e-05
16490.0 1.779e-05
16510.0 1.7686e-05
16530.0 1.7583e-05
16550.0 1.7481e-05
16570.0 1.7379e-05
16590.0 1.7279e-05
16610.0 1.718e-05
16630.0 1.7081e-05
16650.0 1.6983e-05
16670.0 1.6886e-05
16690.0 1.679e-05
16710.0 1.6694e-05
16730.0 1.6599e-05
16750.0 1.6506e-05
16770.0 1.6412e-05
16790.0 1.632e-05
16810.0 1.6229e-05
16830.0 1.6139e-05
16850.0 1.6049e-05
16870.0 1.596e-05
16890.0 1.5872e-05
16910.0 1.5784e-05
16930.0 1.5697e-05
16950.0 1.5612e-05
16970.0 1.5527e-05
16990.0 1.5443e-05
17010.0 1.536e-05
17030.0 1.5278e-05
17050.0 1.5196e-05
17070.0 1.5114e-05
17090.0 1.5034e-05
17110.0 1.4955e-05
17130.0 1.4876e-05
17150.0 1.4798e-05
17170.0 1.4721e-05
17190.0 1.4645e-05
17210.0 1.4569e-05
17230.0 1.4494e-05
17250.0 1.442e-05
17270.0 1.4346e-05
17290.0 1.4274e-05
17310.0 1.4202e-05
17330.0 1.4131e-05
17350.0 1.406e-05
17370.0 1.399e-05
17390.0 1.3921e-05
17410.0 1.3852e-05
17430.0 1.3785e-05
17450.0 1.3718e-05
17470.0 1.3651e-05
17490.0 1.3585e-05
17510.0 1.3521e-05
17530.0 1.3456e-05
17550.0 1.3392e-05
17570.0 1.333e-05
17590.0 1.3268e-05
17610.0 1.3206e-05
17630.0 1.3144e-05
17650.0 1.3084e-05
17670.0 1.3024e-05
17690.0 1.2964e-05
17710.0 1.2906e-05
17730.0 1.2849e-05
17750.0 1.2791e-05
17770.0 1.2734e-05
17790.0 1.2679e-05
17810.0 1.2623e-05
17830.0 1.2567e-05
17850.0 1.2513e-05
17870.0 1.246e-05
17890.0 1.2406e-05
17910.0 1.2353e-05
17930.0 1.2301e-05
17950.0 1.225e-05
17970.0 1.2198e-05
17990.0 1.2148e-05
18010.0 1.2099e-05
18030.0 1.2049e-05
18050.0 1.2e-05
18070.0 1.1952e-05
18090.0 1.1904e-05
18110.0 1.1856e-05
18130.0 1.1809e-05
18150.0 1.1763e-05
18170.0 1.1717e-05
18190.0 1.1672e-05
18210.0 1.1627e-05
18230.0 1.1583e-05
18250.0 1.1538e-05
18270.0 1.1495e-05
18290.0 1.1452e-05
18310.0 1.1409e-05
18330.0 1.1367e-05
18350.0 1.1326e-05
18370.0 1.1285e-05
18390.0 1.1244e-05
18410.0 1.1204e-05
18430.0 1.1164e-05
18450.0 1.1124e-05
18470.0 1.1085e-05
18490.0 1.1047e-05
18510.0 1.1008e-05
18530.0 1.097e-05
18550.0 1.0934e-05
18570.0 1.0896e-05
18590.0 1.0859e-05
18610.0 1.0823e-05
18630.0 1.0788e-05
18650.0 1.0752e-05
18670.0 1.0717e-05
18690.0 1.0682e-05
18710.0 1.0648e-05
18730.0 1.0614e-05
18750.0 1.058e-05
18770.0 1.0547e-05
18790.0 1.0514e-05
18810.0 1.0481e-05
18830.0 1.0449e-05
18850.0 1.0417e-05
18870.0 1.0385e-05
18890.0 1.0354e-05
18910.0 1.0324e-05
18930.0 1.0293e-05
18950.0 1.0262e-05
18970.0 1.0233e-05
18990.0 1.0203e-05
19010.0 1.0173e-05
19030.0 1.0144e-05
19050.0 1.0116e-05
19070.0 1.0087e-05
19090.0 1.0059e-05
19110.0 1.0031e-05
19130.0 1.0003e-05
19150.0 9.9756e-06
19170.0 9.9487e-06
19190.0 9.9221e-06
19210.0 9.8951e-06
19230.0 9.8687e-06
19250.0 9.8431e-06
19270.0 9.8172e-06
19290.0 9.7914e-06
19310.0 9.7665e-06
19330.0 9.7416e-06
19350.0 9.7162e-06
19370.0 9.6917e-06
19390.0 9.6677e-06
19410.0 9.6434e-06
19430.0 9.6192e-06
19450.0 9.596e-06
19470.0 9.5727e-06
19490.0 9.5492e-06
19510.0 9.5262e-06
19530.0 9.5038e-06
19550.0 9.4809e-06
19570.0 9.4582e-06
19590.0 9.4364e-06
19610.0 9.4145e-06
19630.0 9.3924e-06
19650.0 9.371e-06
19670.0 9.35e-06
19690.0 9.3285e-06
19710.0 9.3073e-06
19730.0 9.2868e-06
19750.0 9.2662e-06
19770.0 9.2452e-06
19790.0 9.2251e-06
19810.0 9.2052e-06
19830.0 9.1849e-06
19850.0 9.1644e-06
19870.0 9.1439e-06
19890.0 9.1215e-06
19910.0 9.0957e-06
19930.0 9.0658e-06
19950.0 9.029e-06
19970.0 8.9804e-06
19990.0 8.9182e-06
20010.0 8.8442e-06
20030.0 8.7521e-06
20050.0 8.6425e-06
20070.0 8.5226e-06
20090.0 8.3933e-06
20110.0 8.2475e-06
20130.0 8.1004e-06
20150.0 7.9553e-06
20170.0 7.8056e-06
20190.0 7.6542e-06
20210.0 7.5113e-06
20230.0 7.3717e-06
20250.0 7.2313e-06
20270.0 7.0999e-06
20290.0 6.9788e-06
20310.0 6.8621e-06
20330.0 6.7511e-06
20350.0 6.6569e-06
20370.0 6.5713e-06
20390.0 6.4939e-06
20410.0 6.4291e-06
20430.0 6.3769e-06
20450.0 6.333e-06
20470.0 6.3007e-06
20490.0 6.2799e-06
20510.0 6.2688e-06
20530.0 6.2671e-06
20550.0 6.2745e-06
20570.0 6.2889e-06
20590.0 6.3108e-06
20610.0 6.3388e-06
20630.0 6.3704e-06
20650.0 6.4059e-06
20670.0 6.4461e-06
20690.0 6.4858e-06
20710.0 6.5251e-06
20730.0 6.565e-06
20750.0 6.6031e-06
20770.0 6.6368e-06
20790.0 6.6678e-06
20810.0 6.6953e-06
20830.0 6.717e-06
20850.0 6.7332e-06
20870.0 6.7443e-06
20890.0 6.7489e-06
20910.0 6.7474e-06
20930.0 6.7399e-06
20950.0 6.7261e-06
20970.0 6.7071e-06
20990.0 6.6834e-06
21010.0 6.6534e-06
21030.0 6.6193e-06
21050.0 6.5825e-06
21070.0 6.5417e-06
21090.0 6.4968e-06
21110.0 6.4521e-06
21130.0 6.4067e-06
21150.0 6.359e-06
21170.0 6.3119e-06
21190.0 6.2673e-06
21210.0 6.2223e-06
21230.0 6.1785e-06
21250.0 6.1392e-06
21270.0 6.1031e-06
21290.0 6.0695e-06
21310.0 6.0405e-06
21330.0 6.017e-06
21350.0 5.9972e-06
21370.0 5.9822e-06
21390.0 5.9727e-06
21410.0 5.9681e-06
21430.0 5.9685e-06
21450.0 5.9741e-06
21470.0 5.9842e-06
21490.0 5.999e-06
21510.0 6.0186e-06
21530.0 6.0413e-06
21550.0 6.0676e-06
21570.0 6.0986e-06
21590.0 6.1319e-06
21610.0 6.1672e-06
21630.0 6.206e-06
21650.0 6.2483e-06
21670.0 6.2897e-06
21690.0 6.3334e-06
21710.0 6.3797e-06
21730.0 6.4263e-06
21750.0 6.4724e-06
21770.0 6.5219e-06
21790.0 6.5717e-06
21810.0 6.62e-06
21830.0 6.6689e-06
21850.0 6.7194e-06
21870.0 6.7682e-06
21890.0 6.8149e-06
21910.0 6.8628e-06
21930.0 6.9095e-06
21950.0 6.9531e-06
21970.0 6.9958e-06
21990.0 7.0382e-06
22010.0 7.0761e-06
22030.0 7.1107e-06
22050.0 7.1431e-06
22070.0 7.1717e-06
22090.0 7.1951e-06
22110.0 7.2146e-06
22130.0 7.2295e-06
22150.0 7.2385e-06
22170.0 7.2421e-06
22190.0 7.2396e-06
22210.0 7.2305e-06
22230.0 7.2157e-06
22250.0 7.1942e-06
22270.0 7.1655e-06
22290.0 7.1314e-06
22310.0 7.0917e-06
22330.0 7.0435e-06
22350.0 6.99e-06
22370.0 6.9328e-06
22390.0 6.8691e-06
22410.0 6.7983e-06
22430.0 6.7267e-06
22450.0 6.6519e-06
22470.0 6.5712e-06
22490.0 6.4887e-06
22510.0 6.4073e-06
22530.0 6.3211e-06
22550.0 6.2325e-06
22570.0 6.1476e-06
22590.0 6.0632e-06
22610.0 5.977e-06
22630.0 5.8935e-06
