#lamb flux
1010.0 1.0192e-05
1030.0 1.0621e-05
1050.0 1.1119e-05
1070.0 1.168e-05
1090.0 1.2318e-05
1110.0 1.2975e-05
1130.0 1.364e-05
1150.0 1.4339e-05
1170.0 1.5064e-05
1190.0 1.5756e-05
1210.0 1.6462e-05
1230.0 1.7196e-05
1250.0 1.7921e-05
1270.0 1.8632e-05
1290.0 1.9387e-05
1310.0 2.0148e-05
1330.0 2.0886e-05
1350.0 2.1639e-05
1370.0 2.2422e-05
1390.0 2.3195e-05
1410.0 2.3955e-05
1430.0 2.4754e-05
1450.0 2.5561e-05
1470.0 2.6352e-05
1490.0 2.7159e-05
1510.0 2.8014e-05
1530.0 2.8837e-05
1550.0 2.9656e-05
1570.0 3.0505e-05
1590.0 3.1361e-05
1610.0 3.2187e-05
1630.0 3.3039e-05
1650.0 3.3911e-05
1670.0 3.4759e-05
1690.0 3.5595e-05
1710.0 3.6457e-05
1730.0 3.7318e-05
1750.0 3.8126e-05
1770.0 3.8948e-05
1790.0 3.9774e-05
1810.0 4.0564e-05
1830.0 4.1327e-05
1850.0 4.2121e-05
1870.0 4.2877e-05
1890.0 4.3591e-05
1910.0 4.4301e-05
1930.0 4.5011e-05
1950.0 4.5666e-05
1970.0 4.6294e-05
1990.0 4.6932e-05
2010.0 4.7539e-05
2030.0 4.8105e-05
2050.0 4.8679e-05
2070.0 4.926e-05
2090.0 4.979e-05
2110.0 5.0314e-05
2130.0 5.0857e-05
2150.0 5.139e-05
2170.0 5.1899e-05
2190.0 5.2446e-05
2210.0 5.3015e-05
2230.0 5.3578e-05
2250.0 5.4166e-05
2270.0 5.4818e-05
2290.0 5.5486e-05
2310.0 5.6171e-05
2330.0 5.6927e-05
2350.0 5.7745e-05
2370.0 5.8597e-05
2390.0 5.9523e-05
2410.0 6.0556e-05
2430.0 6.1643e-05
2450.0 6.2791e-05
2470.0 6.4026e-05
2490.0 6.5329e-05
2510.0 6.6659e-05
2530.0 6.8125e-05
2550.0 6.9911e-05
2570.0 7.2286e-05
2590.0 7.563e-05
2610.0 8.0795e-05
2630.0 8.8292e-05
2650.0 9.8109e-05
2670.0 0.00011062
2690.0 0.00012582
2710.0 0.00014224
2730.0 0.00015908
2750.0 0.00017662
2770.0 0.0001937
2790.0 0.00020985
2810.0 0.00022581
2830.0 0.00024225
2850.0 0.00025835
2870.0 0.00027487
2890.0 0.00029248
2910.0 0.00031087
2930.0 0.00032957
2950.0 0.00034948
2970.0 0.00037048
2990.0 0.00039182
3010.0 0.00070416
3030.0 0.00074321
3050.0 0.00078251
3070.0 0.00081929
3090.0 0.00085261
3110.0 0.00087632
3130.0 0.00088271
3150.0 0.00086333
3170.0 0.00080133
3190.0 0.00069329
3210.0 0.00053983
3230.0 0.00036421
3250.0 0.00052893
3270.0 0.00026727
3290.0 0.00067083
3310.0 0.00018681
3330.0 0.00019671
3350.0 0.00027028
3370.0 0.00035266
3390.0 0.00043932
3410.0 0.00052557
3430.0 0.00061527
3450.0 0.00070455
3470.0 0.00078679
3490.0 0.00084134
3510.0 0.0010183
3530.0 0.0013576
3550.0 0.0014001
3570.0 0.0012724
3590.0 0.0017632
3610.0 0.0012696
3630.0 0.0018348
3650.0 0.002013
3670.0 0.0025071
3690.0 0.0024655
3710.0 0.0019405
3730.0 0.0025021
3750.0 0.0026059
3770.0 0.0026637
3790.0 0.0024243
3810.0 0.0020995
3830.0 0.0026113
3850.0 0.0026575
3870.0 0.0032385
3890.0 0.0031327
3910.0 0.0029984
3930.0 0.0033286
3950.0 0.0037395
3970.0 0.0048465
3990.0 0.0041984
4010.0 0.0031093
4030.0 0.0038027
4050.0 0.0039178
4070.0 0.0043306
4090.0 0.0039657
4110.0 0.0029441
4130.0 0.0036288
4150.0 0.0033359
4170.0 0.0035353
4190.0 0.003537
4210.0 0.0042079
4230.0 0.0031418
4250.0 0.003698
4270.0 0.0036953
4290.0 0.0037526
4310.0 0.0044202
4330.0 0.0045459
4350.0 0.0037271
4370.0 0.0033504
4390.0 0.0038119
4410.0 0.0037569
4430.0 0.0029678
4450.0 0.0029571
4470.0 0.0033242
4490.0 0.002638
4510.0 0.0031117
4530.0 0.0033871
4550.0 0.0044572
4570.0 0.0063888
4590.0 0.0064983
4610.0 0.0049096
4630.0 0.0070845
4650.0 0.0095786
4670.0 0.0089974
4690.0 0.0058981
4710.0 0.0061063
4730.0 0.0072944
4750.0 0.0064603
4770.0 0.0049977
4790.0 0.0036808
4810.0 0.0049983
4830.0 0.0057061
4850.0 0.0053746
4870.0 0.0026986
4890.0 0.0057732
4910.0 0.0075513
4930.0 0.0081082
4950.0 0.0082613
4970.0 0.0059832
4990.0 0.0066749
5010.0 0.0072581
5030.0 0.0074051
5050.0 0.0070524
5070.0 0.0052076
5090.0 0.0043642
5110.0 0.0041131
5130.0 0.0037318
5150.0 0.004218
5170.0 0.0037616
5190.0 0.0045016
5210.0 0.0045084
5230.0 0.0049106
5250.0 0.0061658
5270.0 0.0055601
5290.0 0.0055841
5310.0 0.0076415
5330.0 0.0087323
5350.0 0.0077353
5370.0 0.0069956
5390.0 0.007617
5410.0 0.0090614
5430.0 0.009847
5450.0 0.010672
5470.0 0.011121
5490.0 0.011282
5510.0 0.013013
5530.0 0.013474
5550.0 0.01418
5570.0 0.01477
5590.0 0.014613
5610.0 0.014013
5630.0 0.013641
5650.0 0.01385
5670.0 0.013734
5690.0 0.012003
5710.0 0.011361
5730.0 0.011191
5750.0 0.01188
5770.0 0.010518
5790.0 0.0098459
5810.0 0.010076
5830.0 0.010534
5850.0 0.0097738
5870.0 0.0097163
5890.0 0.011094
5910.0 0.010661
5930.0 0.0091209
5950.0 0.0081456
5970.0 0.0084716
5990.0 0.007762
6010.0 0.0072122
6030.0 0.0072401
6050.0 0.0068473
6070.0 0.0054715
6090.0 0.0050315
6110.0 0.0061213
6130.0 0.0068733
6150.0 0.0072545
6170.0 0.0072691
6190.0 0.0070984
6210.0 0.0070438
6230.0 0.0078406
6250.0 0.0072426
6270.0 0.0065814
6290.0 0.0059607
6310.0 0.0055654
6330.0 0.0052748
6350.0 0.0047149
6370.0 0.0047345
6390.0 0.0055522
6410.0 0.0068141
6430.0 0.0078651
6450.0 0.0076984
6470.0 0.0077488
6490.0 0.0093073
6510.0 0.01038
6530.0 0.009933
6550.0 0.0096706
6570.0 0.0098085
6590.0 0.0095276
6610.0 0.010196
6630.0 0.0097012
6650.0 0.0088032
6670.0 0.0080102
6690.0 0.0076298
6710.0 0.0088421
6730.0 0.0082052
6750.0 0.0073346
6770.0 0.0068319
6790.0 0.0071285
6810.0 0.0076945
6830.0 0.0075066
6850.0 0.0069338
6870.0 0.0070447
6890.0 0.0068595
6910.0 0.0064931
6930.0 0.007272
6950.0 0.0068807
6970.0 0.0066232
6990.0 0.0066871
7010.0 0.006431
7030.0 0.0060371
7050.0 0.0057148
7070.0 0.0058983
7090.0 0.0055178
7110.0 0.0048725
7130.0 0.0040849
7150.0 0.0037456
7170.0 0.0046943
7190.0 0.0050597
7210.0 0.004996
7230.0 0.005271
7250.0 0.0050661
7270.0 0.0049118
7290.0 0.0052814
7310.0 0.0056771
7330.0 0.0055185
7350.0 0.0052183
7370.0 0.0050653
7390.0 0.0053358
7410.0 0.0061523
7430.0 0.0067382
7450.0 0.0072714
7470.0 0.0073041
7490.0 0.0074581
7510.0 0.0071306
7530.0 0.0070565
7550.0 0.0067996
7570.0 0.0059583
7590.0 0.0058384
7610.0 0.0057118
7630.0 0.0054839
7650.0 0.0060746
7670.0 0.0066543
7690.0 0.0072343
7710.0 0.0079818
7730.0 0.0085021
7750.0 0.0088888
7770.0 0.0088928
7790.0 0.0095831
7810.0 0.0098892
7830.0 0.0093282
7850.0 0.0093844
7870.0 0.008952
7890.0 0.0092018
7910.0 0.0087161
7930.0 0.0087223
7950.0 0.00792
7970.0 0.0081033
7990.0 0.007823
8010.0 0.0077261
8030.0 0.0077055
8050.0 0.0080323
8070.0 0.0077892
8090.0 0.0078037
8110.0 0.0075776
8130.0 0.0075632
8150.0 0.0072715
8170.0 0.0070661
8190.0 0.0069737
8210.0 0.0070236
8230.0 0.0063331
8250.0 0.0058225
8270.0 0.0050943
8290.0 0.0041967
8310.0 0.0035028
8330.0 0.0027742
8350.0 0.0023605
8370.0 0.0024841
8390.0 0.0026205
8410.0 0.0028172
8430.0 0.0033571
8450.0 0.0035757
8470.0 0.003762
8490.0 0.0042665
8510.0 0.004667
8530.0 0.0053899
8550.0 0.0063682
8570.0 0.0071456
8590.0 0.0077261
8610.0 0.0084026
8630.0 0.0091284
8650.0 0.0092589
8670.0 0.0093311
8690.0 0.0096686
8710.0 0.0096209
8730.0 0.0095974
8750.0 0.0091726
8770.0 0.0091762
8790.0 0.0090431
8810.0 0.0083677
8830.0 0.0083056
8850.0 0.0078258
8870.0 0.0075198
8890.0 0.0069629
8910.0 0.0073575
8930.0 0.0067892
8950.0 0.0066379
8970.0 0.0066178
8990.0 0.0064098
9010.0 0.0064644
9030.0 0.006232
9050.0 0.0061972
9070.0 0.0061867
9090.0 0.0061753
9110.0 0.0061656
9130.0 0.0061524
9150.0 0.0061375
9170.0 0.0061098
9190.0 0.0060616
9210.0 0.0061195
9230.0 0.0060869
9250.0 0.0060625
9270.0 0.0060393
9290.0 0.0060168
9310.0 0.0059949
9330.0 0.005973
9350.0 0.0059507
9370.0 0.0059281
9390.0 0.0059051
9410.0 0.0058815
9430.0 0.0058573
9450.0 0.0058322
9470.0 0.0058068
9490.0 0.0057821
9510.0 0.0057567
9530.0 0.005731
9550.0 0.0057047
9570.0 0.0056782
9590.0 0.0056514
9610.0 0.0056244
9630.0 0.0055971
9650.0 0.0055698
9670.0 0.0055423
9690.0 0.0055147
9710.0 0.005487
9730.0 0.0054593
9750.0 0.0054315
9770.0 0.0054037
9790.0 0.0053759
9810.0 0.0053482
9830.0 0.0053205
9850.0 0.0052929
9870.0 0.0052654
9890.0 0.005238
9910.0 0.0052107
9930.0 0.0051834
9950.0 0.0051374
9970.0 0.0051162
9990.0 0.0050942
10010.0 0.0050718
10030.0 0.0050481
10050.0 0.0050225
10070.0 0.0049932
10090.0 0.0049702
10110.0 0.0049461
10130.0 0.0049224
10150.0 0.0048989
10170.0 0.0048748
10190.0 0.00485
10210.0 0.0048266
10230.0 0.0048037
10250.0 0.0047802
10270.0 0.0047572
10290.0 0.0047353
10310.0 0.004713
10330.0 0.0046903
10350.0 0.004669
10370.0 0.0046481
10390.0 0.0046267
10410.0 0.0046059
10430.0 0.0045863
10450.0 0.0045663
10470.0 0.0045462
10490.0 0.0045272
10510.0 0.0045087
10530.0 0.0044892
10550.0 0.0044706
10570.0 0.0044531
10590.0 0.0044353
10610.0 0.0044175
10630.0 0.0044008
10650.0 0.0043844
10670.0 0.0043673
10690.0 0.004351
10710.0 0.0043355
10730.0 0.0043197
10750.0 0.0043035
10770.0 0.004289
10790.0 0.0042745
10810.0 0.0042595
10830.0 0.0042451
10850.0 0.0042314
10870.0 0.0042162
10890.0 0.0042002
10910.0 0.0041833
10930.0 0.0041634
10950.0 0.0041376
10970.0 0.004106
10990.0 0.0040683
11010.0 0.0039312
11030.0 0.0038781
11050.0 0.0038182
11070.0 0.0037505
11090.0 0.0036727
11110.0 0.0035957
11130.0 0.0035184
11150.0 0.0034383
11170.0 0.0033589
11190.0 0.0032849
11210.0 0.0032109
11230.0 0.0031374
11250.0 0.0030692
11270.0 0.0030052
11290.0 0.0029418
11310.0 0.0028821
11330.0 0.0028298
11350.0 0.0027797
11370.0 0.002732
11390.0 0.0026894
11410.0 0.0026504
11430.0 0.0026112
11450.0 0.0025747
11470.0 0.0025408
11490.0 0.0025063
11510.0 0.0024703
11530.0 0.0024353
11550.0 0.0023994
11570.0 0.0023599
11590.0 0.0023187
11610.0 0.002277
11630.0 0.0022311
11650.0 0.0021815
11670.0 0.0021327
11690.0 0.0020825
11710.0 0.0020293
11730.0 0.0019764
11750.0 0.0019262
11770.0 0.0018746
11790.0 0.0018236
11810.0 0.0017764
11830.0 0.0017316
11850.0 0.0016865
11870.0 0.0016459
11890.0 0.0016095
11910.0 0.0015743
11930.0 0.0015412
11950.0 0.001512
11970.0 0.0014845
11990.0 0.0014574
12010.0 0.0014329
12030.0 0.0014104
12050.0 0.0013882
12070.0 0.0013665
12090.0 0.0013476
12110.0 0.0013293
12130.0 0.0013114
12150.0 0.0012954
12170.0 0.0012815
12190.0 0.0012682
12210.0 0.0012573
12230.0 0.0012497
12250.0 0.0012448
12270.0 0.001243
12290.0 0.0012453
12310.0 0.0012516
12330.0 0.001262
12350.0 0.001277
12370.0 0.0012957
12390.0 0.0013185
12410.0 0.0013461
12430.0 0.0013756
12450.0 0.0014073
12470.0 0.0014415
12490.0 0.0014767
12510.0 0.001511
12530.0 0.0015456
12550.0 0.0015798
12570.0 0.0016116
12590.0 0.0016413
12610.0 0.0016694
12630.0 0.0016948
12650.0 0.0017166
12670.0 0.0017362
12690.0 0.0017531
12710.0 0.0017671
12730.0 0.0017786
12750.0 0.0017875
12770.0 0.0017939
12790.0 0.0017981
12810.0 0.0018001
12830.0 0.0017995
12850.0 0.0017974
12870.0 0.0017935
12890.0 0.0017872
12910.0 0.0017793
12930.0 0.0017702
12950.0 0.0017587
12970.0 0.001745
12990.0 0.0017308
13010.0 0.001715
13030.0 0.0016969
13050.0 0.0016777
13070.0 0.0016582
13090.0 0.0016366
13110.0 0.0016138
13130.0 0.0015915
13150.0 0.0015689
13170.0 0.001545
13190.0 0.001523
13210.0 0.0015031
13230.0 0.0014841
13250.0 0.0014672
13270.0 0.0014538
13290.0 0.0014431
13310.0 0.001435
13330.0 0.0014306
13350.0 0.0014292
13370.0 0.0014302
13390.0 0.0014334
13410.0 0.0014381
13430.0 0.0014434
13450.0 0.0014486
13470.0 0.0014528
13490.0 0.0014554
13510.0 0.0014556
13530.0 0.0014531
13550.0 0.0014478
13570.0 0.0014394
13590.0 0.0014276
13610.0 0.0014136
13630.0 0.0013979
13650.0 0.0013797
13670.0 0.0013604
13690.0 0.0013412
13710.0 0.0013215
13730.0 0.001301
13750.0 0.0012825
13770.0 0.0012649
13790.0 0.0012478
13810.0 0.0012318
13830.0 0.0012174
13850.0 0.0012036
13870.0 0.0011903
13890.0 0.0011781
13910.0 0.0011667
13930.0 0.0011552
13950.0 0.0011442
13970.0 0.0011341
13990.0 0.0011241
14010.0 0.0011142
14030.0 0.0011051
14050.0 0.0010965
14070.0 0.001088
14090.0 0.0010804
14110.0 0.0010736
14130.0 0.0010675
14150.0 0.001062
14170.0 0.0010575
14190.0 0.0010538
14210.0 0.0010509
14230.0 0.0010488
14250.0 0.0010475
14270.0 0.0010471
14290.0 0.0010475
14310.0 0.0010486
14330.0 0.0010504
14350.0 0.0010529
14370.0 0.0010559
14390.0 0.0010591
14410.0 0.0010628
14430.0 0.0010665
14450.0 0.00107
14470.0 0.0010733
14490.0 0.0010764
14510.0 0.0010789
14530.0 0.0010807
14550.0 0.0010823
14570.0 0.0010834
14590.0 0.0010841
14610.0 0.0010848
14630.0 0.0010858
14650.0 0.0010871
14670.0 0.0010888
14690.0 0.0010917
14710.0 0.0010959
14730.0 0.0011009
14750.0 0.0011076
14770.0 0.0011162
14790.0 0.0011263
14810.0 0.0011377
14830.0 0.0011519
14850.0 0.0011675
14870.0 0.0011835
14890.0 0.0012008
14910.0 0.0012191
14930.0 0.001236
14950.0 0.0012511
14970.0 0.0012649
14990.0 0.0012753
15010.0 0.0012818
15030.0 0.001285
15050.0 0.0012851
15070.0 0.0012822
15090.0 0.0012773
15110.0 0.0012712
15130.0 0.0012642
15150.0 0.0012568
15170.0 0.0012491
15190.0 0.0012413
15210.0 0.0012335
15230.0 0.0012257
15250.0 0.0012178
15270.0 0.0012099
15290.0 0.0012022
15310.0 0.0011943
15330.0 0.0011865
15350.0 0.0011787
15370.0 0.0011709
15390.0 0.0011631
15410.0 0.0011553
15430.0 0.0011476
15450.0 0.0011399
15470.0 0.0011321
15490.0 0.0011244
15510.0 0.0011168
15530.0 0.0011091
15550.0 0.0011015
15570.0 0.001094
15590.0 0.0010864
15610.0 0.0010788
15630.0 0.0010713
15650.0 0.0010639
15670.0 0.0010564
15690.0 0.001049
15710.0 0.0010417
15730.0 0.0010344
15750.0 0.0010271
15770.0 0.0010198
15790.0 0.0010126
15810.0 0.0010054
15830.0 0.0009983
15850.0 0.00099126
15870.0 0.0009842
15890.0 0.00097719
15910.0 0.00097028
15930.0 0.00096338
15950.0 0.00095648
15970.0 0.00094967
15990.0 0.00094293
16010.0 0.00093619
16030.0 0.00092948
16050.0 0.0009229
16070.0 0.00091634
16090.0 0.00090979
16110.0 0.00090333
16130.0 0.00089694
16150.0 0.00089052
16170.0 0.00088418
16190.0 0.00087794
16210.0 0.00087172
16230.0 0.00086552
16250.0 0.00085941
16270.0 0.00085338
16290.0 0.00084734
16310.0 0.00084137
16330.0 0.00083549
16350.0 0.00082964
16370.0 0.00082377
16390.0 0.00081805
16410.0 0.00081237
16430.0 0.0008067
16450.0 0.0008011
16470.0 0.0007956
16490.0 0.0007901
16510.0 0.00078463
16530.0 0.00077926
16550.0 0.00077395
16570.0 0.00076863
16590.0 0.00076338
16610.0 0.00075825
16630.0 0.00075312
16650.0 0.00074802
16670.0 0.00074302
16690.0 0.00073808
16710.0 0.00073311
16730.0 0.00072823
16750.0 0.00072344
16770.0 0.00071866
16790.0 0.00071391
16810.0 0.00070927
16830.0 0.00070467
16850.0 0.00070007
16870.0 0.00069555
16890.0 0.00069111
16910.0 0.00068666
16930.0 0.00068225
16950.0 0.00067794
16970.0 0.00067367
16990.0 0.00066941
17010.0 0.00066523
17030.0 0.00066112
17050.0 0.00065701
17070.0 0.00065294
17090.0 0.00064896
17110.0 0.00064501
17130.0 0.00064105
17150.0 0.00063718
17170.0 0.00063338
17190.0 0.00062959
17210.0 0.00062584
17230.0 0.00062217
17250.0 0.00061852
17270.0 0.00061487
17290.0 0.00061131
17310.0 0.0006078
17330.0 0.00060429
17350.0 0.00060082
17370.0 0.00059745
17390.0 0.00059409
17410.0 0.00059074
17430.0 0.00058746
17450.0 0.00058424
17470.0 0.00058099
17490.0 0.00057781
17510.0 0.0005747
17530.0 0.0005716
17550.0 0.00056851
17570.0 0.0005655
17590.0 0.00056254
17610.0 0.00055956
17630.0 0.00055664
17650.0 0.00055378
17670.0 0.00055093
17690.0 0.00054807
17710.0 0.00054531
17730.0 0.00054258
17750.0 0.00053985
17770.0 0.00053716
17790.0 0.00053455
17810.0 0.00053192
17830.0 0.00052931
17850.0 0.00052677
17870.0 0.00052426
17890.0 0.00052174
17910.0 0.00051927
17930.0 0.00051687
17950.0 0.00051446
17970.0 0.00051207
17990.0 0.00050975
18010.0 0.00050745
18030.0 0.00050512
18050.0 0.00050286
18070.0 0.00050065
18090.0 0.00049843
18110.0 0.00049623
18130.0 0.0004941
18150.0 0.00049199
18170.0 0.00048986
18190.0 0.00048779
18210.0 0.00048577
18230.0 0.00048372
18250.0 0.00048169
18270.0 0.00047974
18290.0 0.00047779
18310.0 0.00047584
18330.0 0.00047394
18350.0 0.00047208
18370.0 0.0004702
18390.0 0.00046835
18410.0 0.00046655
18430.0 0.00046476
18450.0 0.00046295
18470.0 0.0004612
18490.0 0.0004595
18510.0 0.00045777
18530.0 0.00045607
18550.0 0.00045443
18570.0 0.00045277
18590.0 0.00045111
18610.0 0.00044951
18630.0 0.00044793
18650.0 0.00044634
18670.0 0.00044476
18690.0 0.00044325
18710.0 0.00044173
18730.0 0.00044021
18750.0 0.00043874
18770.0 0.00043729
18790.0 0.0004358
18810.0 0.00043435
18830.0 0.00043296
18850.0 0.00043155
18870.0 0.00043014
18890.0 0.00042879
18910.0 0.00042745
18930.0 0.00042609
18950.0 0.00042476
18970.0 0.00042347
18990.0 0.00042216
19010.0 0.00042084
19030.0 0.00041959
19050.0 0.00041835
19070.0 0.00041709
19090.0 0.00041586
19110.0 0.00041468
19130.0 0.00041346
19150.0 0.00041225
19170.0 0.00041108
19190.0 0.00040993
19210.0 0.00040875
19230.0 0.0004076
19250.0 0.0004065
19270.0 0.00040537
19290.0 0.00040425
19310.0 0.00040318
19330.0 0.00040211
19350.0 0.00040099
19370.0 0.00039993
19390.0 0.0003989
19410.0 0.00039784
19430.0 0.00039679
19450.0 0.00039579
19470.0 0.00039479
19490.0 0.00039376
19510.0 0.00039277
19530.0 0.00039181
19550.0 0.00039081
19570.0 0.00038982
19590.0 0.00038888
19610.0 0.00038794
19630.0 0.00038697
19650.0 0.00038605
19670.0 0.00038515
19690.0 0.00038421
19710.0 0.00038328
19730.0 0.0003824
19750.0 0.0003815
19770.0 0.00038058
19790.0 0.00037971
19810.0 0.00037885
19830.0 0.00037796
19850.0 0.00037707
19870.0 0.00037619
19890.0 0.00037521
19910.0 0.00037409
19930.0 0.00037282
19950.0 0.00037126
19970.0 0.00036921
19990.0 0.00036659
20010.0 0.0003635
20030.0 0.00035965
20050.0 0.00035506
20070.0 0.00035004
20090.0 0.00034462
20110.0 0.00033847
20130.0 0.00033227
20150.0 0.00032615
20170.0 0.00031981
20190.0 0.0003134
20210.0 0.00030735
20230.0 0.00030146
20250.0 0.00029554
20270.0 0.00029004
20290.0 0.00028502
20310.0 0.00028023
20330.0 0.00027577
20350.0 0.00027208
20370.0 0.00026885
20390.0 0.00026607
20410.0 0.00026391
20430.0 0.00026237
20450.0 0.00026132
20470.0 0.00026087
20490.0 0.00026098
20510.0 0.0002616
20530.0 0.00026275
20550.0 0.00026433
20570.0 0.00026623
20590.0 0.00026854
20610.0 0.00027115
20630.0 0.00027388
20650.0 0.00027679
20670.0 0.00027992
20690.0 0.00028294
20710.0 0.00028587
20730.0 0.00028877
20750.0 0.00029151
20770.0 0.00029392
20790.0 0.00029612
20810.0 0.00029808
20830.0 0.00029967
20850.0 0.00030091
20870.0 0.00030185
20890.0 0.00030241
20910.0 0.00030263
20930.0 0.00030253
20950.0 0.00030211
20970.0 0.00030142
20990.0 0.0003005
21010.0 0.00029929
21030.0 0.00029788
21050.0 0.00029634
21070.0 0.00029462
21090.0 0.00029271
21110.0 0.00029081
21130.0 0.00028886
21150.0 0.00028681
21170.0 0.00028479
21190.0 0.00028287
21210.0 0.00028093
21230.0 0.00027904
21250.0 0.00027737
21270.0 0.00027585
21290.0 0.00027445
21310.0 0.00027327
21330.0 0.00027237
21350.0 0.00027166
21370.0 0.0002712
21390.0 0.00027101
21410.0 0.00027107
21430.0 0.0002714
21450.0 0.000272
21470.0 0.00027281
21490.0 0.00027387
21510.0 0.00027517
21530.0 0.00027661
21550.0 0.00027823
21570.0 0.00028007
21590.0 0.00028202
21610.0 0.00028404
21630.0 0.00028622
21650.0 0.00028856
21670.0 0.00029083
21690.0 0.00029319
21710.0 0.00029568
21730.0 0.00029817
21750.0 0.00030063
21770.0 0.00030326
21790.0 0.00030592
21810.0 0.00030851
21830.0 0.00031116
21850.0 0.00031392
21870.0 0.00031663
21890.0 0.00031927
21910.0 0.00032201
21930.0 0.00032475
21950.0 0.00032738
21970.0 0.00033
21990.0 0.00033268
22010.0 0.00033516
22030.0 0.0003375
22050.0 0.00033979
22070.0 0.00034191
22090.0 0.00034375
22110.0 0.00034543
22130.0 0.00034689
22150.0 0.00034802
22170.0 0.00034885
22190.0 0.00034937
22210.0 0.00034951
22230.0 0.00034929
22250.0 0.00034868
22270.0 0.00034766
22290.0 0.00034628
22310.0 0.00034454
22330.0 0.00034231
22350.0 0.00033973
22370.0 0.00033689
22390.0 0.00033365
22410.0 0.00032998
22430.0 0.00032622
22450.0 0.00032224
22470.0 0.00031791
22490.0 0.00031346
22510.0 0.00030905
22530.0 0.00030436
22550.0 0.00029953
22570.0 0.00029491
22590.0 0.00029032
22610.0 0.00028564
22630.0 0.00028112
22650.0 0.00027691
22670.0 0.00027268
22690.0 0.00026859
22710.0 0.00026481
22730.0 0.00026124
22750.0 0.00025766
22770.0 0.00025443
22790.0 0.0002515
22810.0 0.00024866
22830.0 0.000246
22850.0 0.00024363
22870.0 0.0002414
22890.0 0.00023926
22910.0 0.00023734
22930.0 0.0002356
22950.0 0.00023396
22970.0 0.00023242
22990.0 0.00023112
23010.0 0.00022991
23030.0 0.0002288
23050.0 0.00022783
23070.0 0.00022701
23090.0 0.00022626
23110.0 0.00022562
23130.0 0.00022512
23150.0 0.0002247
23170.0 0.00022435
23190.0 0.0002241
23210.0 0.00022393
23230.0 0.00022381
23250.0 0.00022376
23270.0 0.00022377
