#lamb flux
1010.0 1.0297e-07
1030.0 1.1267e-07
1050.0 1.2383e-07
1070.0 1.3639e-07
1090.0 1.5066e-07
1110.0 1.6529e-07
1130.0 1.8002e-07
1150.0 1.9545e-07
1170.0 2.1136e-07
1190.0 2.2645e-07
1210.0 2.4175e-07
1230.0 2.5755e-07
1250.0 2.7304e-07
1270.0 2.8807e-07
1290.0 3.0396e-07
1310.0 3.1984e-07
1330.0 3.3506e-07
1350.0 3.5046e-07
1370.0 3.6636e-07
1390.0 3.8185e-07
1410.0 3.9689e-07
1430.0 4.1261e-07
1450.0 4.2832e-07
1470.0 4.435e-07
1490.0 4.5885e-07
1510.0 4.7506e-07
1530.0 4.9042e-07
1550.0 5.0557e-07
1570.0 5.2123e-07
1590.0 5.3691e-07
1610.0 5.5189e-07
1630.0 5.6732e-07
1650.0 5.8315e-07
1670.0 5.9846e-07
1690.0 6.1356e-07
1710.0 6.2923e-07
1730.0 6.4498e-07
1750.0 6.5977e-07
1770.0 6.7498e-07
1790.0 6.9048e-07
1810.0 7.0545e-07
1830.0 7.2013e-07
1850.0 7.3569e-07
1870.0 7.5079e-07
1890.0 7.6533e-07
1910.0 7.8012e-07
1930.0 7.9521e-07
1950.0 8.0951e-07
1970.0 8.2355e-07
1990.0 8.3807e-07
2010.0 8.5221e-07
2030.0 8.657e-07
2050.0 8.795e-07
2070.0 8.9353e-07
2090.0 9.0652e-07
2110.0 9.1928e-07
2130.0 9.3229e-07
2150.0 9.4479e-07
2170.0 9.5642e-07
2190.0 9.6833e-07
2210.0 9.8006e-07
2230.0 9.9091e-07
2250.0 1.0014e-06
2270.0 1.0122e-06
2290.0 1.0222e-06
2310.0 1.0313e-06
2330.0 1.0405e-06
2350.0 1.0498e-06
2370.0 1.0587e-06
2390.0 1.0684e-06
2410.0 1.0807e-06
2430.0 1.0955e-06
2450.0 1.1142e-06
2470.0 1.1398e-06
2490.0 1.1737e-06
2510.0 1.2129e-06
2530.0 1.2615e-06
2550.0 1.3243e-06
2570.0 1.404e-06
2590.0 1.5089e-06
2610.0 1.6674e-06
2630.0 1.8921e-06
2650.0 2.1811e-06
2670.0 2.5486e-06
2690.0 2.9915e-06
2710.0 3.4526e-06
2730.0 3.8954e-06
2750.0 4.3192e-06
2770.0 4.6724e-06
2790.0 4.9359e-06
2810.0 5.1291e-06
2830.0 5.264e-06
2850.0 5.3368e-06
2870.0 5.3744e-06
2890.0 5.392e-06
2910.0 5.395e-06
2930.0 5.3883e-06
2950.0 5.38e-06
2970.0 5.3714e-06
2990.0 5.3614e-06
3010.0 0.00017033
3030.0 0.00017005
3050.0 0.00016976
3070.0 0.00016936
3090.0 0.00016886
3110.0 0.00016807
3130.0 0.0001668
3150.0 0.00016487
3170.0 0.00016196
3190.0 0.00015812
3210.0 0.00015361
3230.0 0.00014864
3250.0 0.00014355
3270.0 0.00013974
3290.0 0.0001369
3310.0 0.00013633
3330.0 0.00013734
3350.0 0.00013987
3370.0 0.00014391
3390.0 0.00014925
3410.0 0.0001552
3430.0 0.00016199
3450.0 0.00016988
3470.0 0.00017859
3490.0 0.00018792
3510.0 0.00019856
3530.0 0.00021014
3550.0 0.00022247
3570.0 0.00023597
3590.0 0.00025095
3610.0 0.00026747
3630.0 0.00028382
3650.0 0.0003011
3670.0 0.00031664
3690.0 0.00032817
3710.0 0.00033401
3730.0 0.00033096
3750.0 0.00031944
3770.0 0.00032662
3790.0 0.00032137
3810.0 0.000258
3830.0 0.0002533
3850.0 0.00036139
3870.0 0.00036032
3890.0 0.00028408
3910.0 0.00026896
3930.0 0.00032587
3950.0 0.0003826
3970.0 0.000418
3990.0 0.00028712
4010.0 0.0006077
4030.0 0.00062454
4050.0 0.00068791
4070.0 0.00073191
4090.0 0.00068512
4110.0 0.0005895
4130.0 0.00068814
4150.0 0.0009019
4170.0 0.00073147
4190.0 0.0006649
4210.0 0.00073631
4230.0 0.00089089
4250.0 0.0010701
4270.0 0.0011538
4290.0 0.0010223
4310.0 0.00095925
4330.0 0.00095491
4350.0 0.0012009
4370.0 0.0014519
4390.0 0.0011746
4410.0 0.00067388
4430.0 0.00049031
4450.0 0.0004601
4470.0 0.00028485
4490.0 0.0004677
4510.0 0.00099583
4530.0 0.0012106
4550.0 0.0011373
4570.0 0.0010395
4590.0 0.0011151
4610.0 0.0021392
4630.0 0.0029935
4650.0 0.0028687
4670.0 0.0025309
4690.0 0.0025612
4710.0 0.002678
4730.0 0.0022323
4750.0 0.0014719
4770.0 0.001008
4790.0 0.0010987
4810.0 0.0011502
4830.0 0.0011299
4850.0 0.0012257
4870.0 0.0016235
4890.0 0.001883
4910.0 0.0014812
4930.0 0.0014293
4950.0 0.0016413
4970.0 0.0021755
4990.0 0.0029401
5010.0 0.0034049
5030.0 0.0027465
5050.0 0.001699
5070.0 0.0011984
5090.0 0.0009108
5110.0 0.00085716
5130.0 0.0010304
5150.0 0.0010088
5170.0 0.00095086
5190.0 0.00084638
5210.0 0.00094202
5230.0 0.0011568
5250.0 0.0013427
5270.0 0.0012547
5290.0 0.0013536
5310.0 0.0018035
5330.0 0.0019447
5350.0 0.0019176
5370.0 0.0021429
5390.0 0.0026606
5410.0 0.0023054
5430.0 0.0017907
5450.0 0.0017937
5470.0 0.0020709
5490.0 0.0025852
5510.0 0.0031498
5530.0 0.0036526
5550.0 0.0033156
5570.0 0.0029769
5590.0 0.0024549
5610.0 0.0024736
5630.0 0.0027548
5650.0 0.0025394
5670.0 0.0023384
5690.0 0.0019
5710.0 0.0019492
5730.0 0.0018879
5750.0 0.0010442
5770.0 0.00074779
5790.0 0.00092201
5810.0 0.0009738
5830.0 0.0014994
5850.0 0.0019522
5870.0 0.0021048
5890.0 0.0020168
5910.0 0.0019643
5930.0 0.001887
5950.0 0.0019449
5970.0 0.0024062
5990.0 0.0019926
6010.0 0.0015419
6030.0 0.0012611
6050.0 0.0011243
6070.0 0.0013265
6090.0 0.0014881
6110.0 0.001525
6130.0 0.001415
6150.0 0.0011184
6170.0 0.00087077
6190.0 0.0010553
6210.0 0.0016605
6230.0 0.0024447
6250.0 0.0026381
6270.0 0.0020299
6290.0 0.0017375
6310.0 0.0013267
6330.0 0.0009687
6350.0 0.00094782
6370.0 0.00099507
6390.0 0.001188
6410.0 0.0015358
6430.0 0.0018471
6450.0 0.0022602
6470.0 0.0023925
6490.0 0.0028656
6510.0 0.0032139
6530.0 0.0032779
6550.0 0.0030146
6570.0 0.0024195
6590.0 0.0022973
6610.0 0.0019049
6630.0 0.0019719
6650.0 0.0019156
6670.0 0.0016768
6690.0 0.0013026
6710.0 0.0012708
6730.0 0.00055712
6750.0 0.00074789
6770.0 0.0011736
6790.0 0.0015522
6810.0 0.001108
6830.0 0.0011314
6850.0 0.00094243
6870.0 0.00088169
6890.0 0.00074519
6910.0 0.00090663
6930.0 0.0008535
6950.0 0.0010202
6970.0 0.0010599
6990.0 0.0011766
7010.0 0.0011366
7030.0 0.0013011
7050.0 0.0011278
7070.0 0.00094074
7090.0 0.001009
7110.0 0.0010705
7130.0 0.001232
7150.0 0.0013963
7170.0 0.0015655
7190.0 0.0016717
7210.0 0.0014903
7230.0 0.0015093
7250.0 0.0016177
7270.0 0.0017364
7290.0 0.0021393
7310.0 0.0022615
7330.0 0.0021156
7350.0 0.0018948
7370.0 0.0014054
7390.0 0.0014495
7410.0 0.0017754
7430.0 0.0020233
7450.0 0.0021798
7470.0 0.0019945
7490.0 0.0015927
7510.0 0.0025676
7530.0 0.0023398
7550.0 0.002207
7570.0 0.0014996
7590.0 0.00066556
7610.0 0.0004699
7630.0 0.0007134
7650.0 0.00095927
7670.0 0.0015271
7690.0 0.0017015
7710.0 0.0015377
7730.0 0.0015264
7750.0 0.0020039
7770.0 0.0020596
7790.0 0.0018833
7810.0 0.0015225
7830.0 0.0016498
7850.0 0.0018082
7870.0 0.0017681
7890.0 0.0013821
7910.0 0.00092905
7930.0 0.00096261
7950.0 0.0008696
7970.0 0.00073258
7990.0 0.00066234
8010.0 0.00034802
8030.0 0.0003176
8050.0 0.00034486
8070.0 0.00039089
8090.0 0.00048
8110.0 0.00045022
8130.0 0.00026345
8150.0 0.00027446
8170.0 0.00014925
8190.0 8.6174e-05
8210.0 0.00024363
8230.0 0.00029601
8250.0 0.00010842
8270.0 8.3623e-05
8290.0 0.00017488
8310.0 0.0001558
8330.0 9.5073e-05
8350.0 7.6811e-05
8370.0 1.5824e-05
8390.0 8.206e-05
8410.0 9.468e-05
8430.0 0.0001177
8450.0 0.00013251
8470.0 0.00022624
8490.0 0.00018274
8510.0 0.00013825
8530.0 6.3805e-05
8550.0 0.00025073
8570.0 0.00039462
8590.0 0.0002684
8610.0 0.00040813
8630.0 0.00044201
8650.0 0.00022502
8670.0 0.00034388
8690.0 0.0005502
8710.0 0.00047003
8730.0 0.00050927
8750.0 0.00039717
8770.0 0.00035154
8790.0 0.00039293
8810.0 0.00042898
8830.0 0.00023235
8850.0 9.3659e-05
8870.0 6.5087e-05
8890.0 0.00018083
8910.0 0.00029177
8930.0 0.00038901
8950.0 0.00043448
8970.0 0.00041771
8990.0 0.00030966
9010.0 0.00029453
9030.0 0.00022235
9050.0 0.00023117
9070.0 0.00024039
9090.0 0.00024789
9110.0 0.00025698
9130.0 0.00026353
9150.0 0.00026821
9170.0 0.00027318
9190.0 0.00027851
9210.0 0.0002841
9230.0 0.00029001
9250.0 0.00029597
9270.0 0.00030213
9290.0 0.00030844
9310.0 0.00031474
9330.0 0.00032113
9350.0 0.00032773
9370.0 0.00033436
9390.0 0.00034101
9410.0 0.00034783
9430.0 0.00035484
9450.0 0.00036176
9470.0 0.0003688
9490.0 0.00037604
9510.0 0.00038333
9530.0 0.00039061
9550.0 0.00039815
9570.0 0.0004058
9590.0 0.00041343
9610.0 0.00042118
9630.0 0.00042914
9650.0 0.00043714
9670.0 0.00044511
9690.0 0.00045331
9710.0 0.00046163
9730.0 0.00046994
9750.0 0.00047836
9770.0 0.00048706
9790.0 0.0004957
9810.0 0.00050438
9830.0 0.00051325
9850.0 0.00052223
9870.0 0.00053114
9890.0 0.00054021
9910.0 0.00054946
9930.0 0.00055869
9950.0 0.00056794
9970.0 0.0005774
9990.0 0.00058696
10010.0 0.00052291
10030.0 0.00053127
10050.0 0.00053975
10070.0 0.00054814
10090.0 0.00055659
10110.0 0.00056524
10130.0 0.00057389
10150.0 0.00058246
10170.0 0.00059111
10190.0 0.00059988
10210.0 0.00060854
10230.0 0.00061717
10250.0 0.00062593
10270.0 0.00063467
10290.0 0.0006433
10310.0 0.00065203
10330.0 0.00066084
10350.0 0.00066949
10370.0 0.0006781
10390.0 0.0006868
10410.0 0.00069545
10430.0 0.00070391
10450.0 0.00071245
10470.0 0.000721
10490.0 0.00072939
10510.0 0.0007377
10530.0 0.00074613
10550.0 0.00075441
10570.0 0.0007625
10590.0 0.0007706
10610.0 0.00077868
10630.0 0.00078653
10650.0 0.00079431
10670.0 0.00080213
10690.0 0.00080978
10710.0 0.00081723
10730.0 0.00082467
10750.0 0.0008321
10770.0 0.00083919
10790.0 0.00084619
10810.0 0.00085316
10830.0 0.00085989
10850.0 0.00086628
10870.0 0.00087252
10890.0 0.00087815
10910.0 0.00088278
10930.0 0.00088602
10950.0 0.00088712
10970.0 0.00088537
10990.0 0.00088046
11010.0 0.00087534
11030.0 0.00086201
11050.0 0.0008453
11070.0 0.000825
11090.0 0.00080045
11110.0 0.00077495
11130.0 0.00074836
11150.0 0.0007198
11170.0 0.00069049
11190.0 0.00066217
11210.0 0.0006331
11230.0 0.00060349
11250.0 0.00057534
11270.0 0.00054843
11290.0 0.00052161
11310.0 0.00049628
11330.0 0.00047395
11350.0 0.00045284
11370.0 0.00043326
11390.0 0.00041618
11410.0 0.00040105
11430.0 0.00038682
11450.0 0.00037432
11470.0 0.00036325
11490.0 0.00035276
11510.0 0.00034251
11530.0 0.00033287
11550.0 0.00032326
11570.0 0.00031308
11590.0 0.00030263
11610.0 0.00029209
11630.0 0.00028078
11650.0 0.00026883
11670.0 0.00025714
11690.0 0.00024537
11710.0 0.00023332
11730.0 0.00022167
11750.0 0.00021087
11770.0 0.00020029
11790.0 0.00019032
11810.0 0.00018146
11830.0 0.00017344
11850.0 0.00016597
11870.0 0.00015958
11890.0 0.00015412
11910.0 0.0001492
11930.0 0.00014485
11950.0 0.0001411
11970.0 0.00013766
11990.0 0.00013437
12010.0 0.0001313
12030.0 0.00012833
12050.0 0.00012531
12070.0 0.0001222
12090.0 0.00011922
12110.0 0.00011619
12130.0 0.00011316
12150.0 0.00011029
12170.0 0.00010767
12190.0 0.00010523
12210.0 0.00010322
12230.0 0.00010172
12250.0 0.00010076
12270.0 0.00010045
12290.0 0.0001008
12310.0 0.00010177
12330.0 0.00010351
12350.0 0.00010593
12370.0 0.00010884
12390.0 0.00011234
12410.0 0.00011658
12430.0 0.00012092
12450.0 0.00012545
12470.0 0.00013031
12490.0 0.00013519
12510.0 0.00013973
12530.0 0.00014424
12550.0 0.00014856
12570.0 0.00015231
12590.0 0.00015553
12610.0 0.00015835
12630.0 0.0001605
12650.0 0.00016182
12670.0 0.00016252
12690.0 0.00016252
12710.0 0.00016179
12730.0 0.0001604
12750.0 0.00015831
12770.0 0.00015562
12790.0 0.00015247
12810.0 0.00014881
12830.0 0.00014466
12850.0 0.00014037
12870.0 0.00013587
12890.0 0.00013107
12910.0 0.00012623
12930.0 0.00012147
12950.0 0.00011656
12970.0 0.0001116
12990.0 0.00010691
13010.0 0.00010229
13030.0 9.7643e-05
13050.0 9.3177e-05
13070.0 8.8982e-05
13090.0 8.4775e-05
13110.0 8.0692e-05
13130.0 7.6901e-05
13150.0 7.3288e-05
13170.0 6.973e-05
13190.0 6.6519e-05
13210.0 6.3646e-05
13230.0 6.0975e-05
13250.0 5.8611e-05
13270.0 5.6664e-05
13290.0 5.5053e-05
13310.0 5.3801e-05
13330.0 5.3006e-05
13350.0 5.2638e-05
13370.0 5.2708e-05
13390.0 5.3253e-05
13410.0 5.4164e-05
13430.0 5.5479e-05
13450.0 5.7212e-05
13470.0 5.9214e-05
13490.0 6.1395e-05
13510.0 6.3929e-05
13530.0 6.6556e-05
13550.0 6.9116e-05
13570.0 7.1689e-05
13590.0 7.4249e-05
13610.0 7.6566e-05
13630.0 7.8624e-05
13650.0 8.0546e-05
13670.0 8.2177e-05
13690.0 8.347e-05
13710.0 8.4505e-05
13730.0 8.5289e-05
13750.0 8.5727e-05
13770.0 8.5902e-05
13790.0 8.5832e-05
13810.0 8.5513e-05
13830.0 8.4986e-05
13850.0 8.4245e-05
13870.0 8.3292e-05
13890.0 8.2187e-05
13910.0 8.0936e-05
13930.0 7.949e-05
13950.0 7.7913e-05
13970.0 7.6302e-05
13990.0 7.4557e-05
14010.0 7.2712e-05
14030.0 7.0877e-05
14050.0 6.9035e-05
14070.0 6.71e-05
14090.0 6.5248e-05
14110.0 6.3509e-05
14130.0 6.1824e-05
14150.0 6.0233e-05
14170.0 5.8868e-05
14190.0 5.7676e-05
14210.0 5.6651e-05
14230.0 5.5872e-05
14250.0 5.5343e-05
14270.0 5.5046e-05
14290.0 5.5019e-05
14310.0 5.5245e-05
14330.0 5.571e-05
14350.0 5.6434e-05
14370.0 5.7366e-05
14390.0 5.845e-05
14410.0 5.975e-05
14430.0 6.1206e-05
14450.0 6.2721e-05
14470.0 6.432e-05
14490.0 6.605e-05
14510.0 6.7737e-05
14530.0 6.937e-05
14550.0 7.1032e-05
14570.0 7.2657e-05
14590.0 7.4166e-05
14610.0 7.5648e-05
14630.0 7.7136e-05
14650.0 7.8541e-05
14670.0 7.9909e-05
14690.0 8.1337e-05
14710.0 8.2836e-05
14730.0 8.433e-05
14750.0 8.5972e-05
14770.0 8.7816e-05
14790.0 8.9801e-05
14810.0 9.1938e-05
14830.0 9.4447e-05
14850.0 9.7162e-05
14870.0 9.9988e-05
14890.0 0.00010303
14910.0 0.00010625
14930.0 0.00010935
14950.0 0.00011226
14970.0 0.00011503
14990.0 0.00011738
15010.0 0.00011921
15030.0 0.00012061
15050.0 0.00012159
15070.0 0.00012216
15090.0 0.00012247
15110.0 0.00012259
15130.0 0.00012261
15150.0 0.00012257
15170.0 0.00012249
15190.0 0.0001224
15210.0 0.00012231
15230.0 0.00012223
15250.0 0.00012213
15270.0 0.00012205
15290.0 0.00012197
15310.0 0.00012189
15330.0 0.00012181
15350.0 0.00012174
15370.0 0.00012167
15390.0 0.00012159
15410.0 0.00012152
15430.0 0.00012145
15450.0 0.00012139
15470.0 0.00012131
15490.0 0.00012126
15510.0 0.0001212
15530.0 0.00012113
15550.0 0.00012107
15570.0 0.00012102
15590.0 0.00012095
15610.0 0.00012089
15630.0 0.00012083
15650.0 0.00012078
15670.0 0.00012071
15690.0 0.00012066
15710.0 0.00012061
15730.0 0.00012055
15750.0 0.00012049
15770.0 0.00012043
15790.0 0.00012038
15810.0 0.00012031
15830.0 0.00012025
15850.0 0.0001202
15870.0 0.00012014
15890.0 0.00012007
15910.0 0.00012002
15930.0 0.00011996
15950.0 0.00011988
15970.0 0.00011982
15990.0 0.00011976
16010.0 0.00011968
16030.0 0.00011961
16050.0 0.00011955
16070.0 0.00011948
16090.0 0.0001194
16110.0 0.00011932
16130.0 0.00011925
16150.0 0.00011916
16170.0 0.00011908
16190.0 0.000119
16210.0 0.00011891
16230.0 0.00011882
16250.0 0.00011873
16270.0 0.00011865
16290.0 0.00011855
16310.0 0.00011845
16330.0 0.00011835
16350.0 0.00011825
16370.0 0.00011813
16390.0 0.00011803
16410.0 0.00011792
16430.0 0.0001178
16450.0 0.00011768
16470.0 0.00011758
16490.0 0.00011745
16510.0 0.00011732
16530.0 0.00011719
16550.0 0.00011706
16570.0 0.00011692
16590.0 0.00011678
16610.0 0.00011665
16630.0 0.0001165
16650.0 0.00011635
16670.0 0.0001162
16690.0 0.00011605
16710.0 0.00011588
16730.0 0.00011572
16750.0 0.00011556
16770.0 0.00011539
16790.0 0.00011521
16810.0 0.00011504
16830.0 0.00011487
16850.0 0.00011468
16870.0 0.00011449
16890.0 0.00011431
16910.0 0.00011411
16930.0 0.00011391
16950.0 0.00011371
16970.0 0.00011351
16990.0 0.0001133
17010.0 0.00011309
17030.0 0.00011288
17050.0 0.00011266
17070.0 0.00011243
17090.0 0.00011221
17110.0 0.00011198
17130.0 0.00011174
17150.0 0.0001115
17170.0 0.00011127
17190.0 0.00011102
17210.0 0.00011077
17230.0 0.00011053
17250.0 0.00011028
17270.0 0.00011001
17290.0 0.00010975
17310.0 0.00010949
17330.0 0.00010922
17350.0 0.00010894
17370.0 0.00010867
17390.0 0.00010839
17410.0 0.00010811
17430.0 0.00010782
17450.0 0.00010754
17470.0 0.00010724
17490.0 0.00010694
17510.0 0.00010665
17530.0 0.00010635
17550.0 0.00010603
17570.0 0.00010573
17590.0 0.00010543
17610.0 0.00010511
17630.0 0.00010479
17650.0 0.00010447
17670.0 0.00010415
17690.0 0.00010381
17710.0 0.00010349
17730.0 0.00010316
17750.0 0.00010282
17770.0 0.00010248
17790.0 0.00010215
17810.0 0.00010181
17830.0 0.00010145
17850.0 0.00010111
17870.0 0.00010076
17890.0 0.0001004
17910.0 0.00010004
17930.0 9.9693e-05
17950.0 9.9331e-05
17970.0 9.8963e-05
17990.0 9.8605e-05
18010.0 9.8244e-05
18030.0 9.7861e-05
18050.0 9.7489e-05
18070.0 9.7123e-05
18090.0 9.6744e-05
18110.0 9.6359e-05
18130.0 9.5988e-05
18150.0 9.5611e-05
18170.0 9.522e-05
18190.0 9.4836e-05
18210.0 9.4458e-05
18230.0 9.4062e-05
18250.0 9.3663e-05
18270.0 9.3279e-05
18290.0 9.2888e-05
18310.0 9.2486e-05
18330.0 9.2092e-05
18350.0 9.1705e-05
18370.0 9.1299e-05
18390.0 9.0894e-05
18410.0 9.0499e-05
18430.0 9.0098e-05
18450.0 8.9681e-05
18470.0 8.9279e-05
18490.0 8.8881e-05
18510.0 8.8469e-05
18530.0 8.8058e-05
18550.0 8.7658e-05
18570.0 8.7248e-05
18590.0 8.6826e-05
18610.0 8.6417e-05
18630.0 8.6011e-05
18650.0 8.5591e-05
18670.0 8.5171e-05
18690.0 8.4767e-05
18710.0 8.4353e-05
18730.0 8.3931e-05
18750.0 8.3518e-05
18770.0 8.311e-05
18790.0 8.268e-05
18810.0 8.2259e-05
18830.0 8.1849e-05
18850.0 8.1431e-05
18870.0 8.1005e-05
18890.0 8.0592e-05
18910.0 8.018e-05
18930.0 7.9754e-05
18950.0 7.9333e-05
18970.0 7.8922e-05
18990.0 7.8501e-05
19010.0 7.8067e-05
19030.0 7.7656e-05
19050.0 7.7242e-05
19070.0 7.6817e-05
19090.0 7.6398e-05
19110.0 7.599e-05
19130.0 7.5566e-05
19150.0 7.5141e-05
19170.0 7.4727e-05
19190.0 7.4313e-05
19210.0 7.3887e-05
19230.0 7.3467e-05
19250.0 7.3061e-05
19270.0 7.2642e-05
19290.0 7.2221e-05
19310.0 7.1813e-05
19330.0 7.1402e-05
19350.0 7.0975e-05
19370.0 7.0561e-05
19390.0 7.0155e-05
19410.0 6.9738e-05
19430.0 6.9319e-05
19450.0 6.8917e-05
19470.0 6.8509e-05
19490.0 6.8092e-05
19510.0 6.7684e-05
19530.0 6.7282e-05
19550.0 6.6867e-05
19570.0 6.6451e-05
19590.0 6.6053e-05
19610.0 6.5649e-05
19630.0 6.5237e-05
19650.0 6.4836e-05
19670.0 6.4442e-05
19690.0 6.4032e-05
19710.0 6.3627e-05
19730.0 6.3233e-05
19750.0 6.2834e-05
19770.0 6.2423e-05
19790.0 6.2029e-05
19810.0 6.1639e-05
19830.0 6.1237e-05
19850.0 6.0836e-05
19870.0 6.0442e-05
19890.0 6.0027e-05
19910.0 5.9583e-05
19930.0 5.9119e-05
19950.0 5.8607e-05
19970.0 5.8003e-05
19990.0 5.7303e-05
20010.0 5.2821e-05
20030.0 5.1967e-05
20050.0 5.0988e-05
20070.0 4.9944e-05
20090.0 4.8836e-05
20110.0 4.76e-05
20130.0 4.6359e-05
20150.0 4.5139e-05
20170.0 4.3883e-05
20190.0 4.2619e-05
20210.0 4.1428e-05
20230.0 4.0271e-05
20250.0 3.9116e-05
20270.0 3.8044e-05
20290.0 3.7062e-05
20310.0 3.6128e-05
20330.0 3.5251e-05
20350.0 3.4515e-05
20370.0 3.3854e-05
20390.0 3.3265e-05
20410.0 3.2778e-05
20430.0 3.2389e-05
20450.0 3.2067e-05
20470.0 3.1833e-05
20490.0 3.1682e-05
20510.0 3.1601e-05
20530.0 3.1588e-05
20550.0 3.1639e-05
20570.0 3.1739e-05
20590.0 3.1894e-05
20610.0 3.2096e-05
20630.0 3.2327e-05
20650.0 3.2594e-05
20670.0 3.2908e-05
20690.0 3.3232e-05
20710.0 3.357e-05
20730.0 3.3938e-05
20750.0 3.4323e-05
20770.0 3.4699e-05
20790.0 3.5094e-05
20810.0 3.5509e-05
20830.0 3.5918e-05
20850.0 3.6323e-05
20870.0 3.6755e-05
20890.0 3.719e-05
20910.0 3.7604e-05
20930.0 3.803e-05
20950.0 3.8468e-05
20970.0 3.8891e-05
20990.0 3.9304e-05
21010.0 3.9738e-05
21030.0 4.0159e-05
21050.0 4.0557e-05
21070.0 4.0954e-05
21090.0 4.1351e-05
21110.0 4.171e-05
21130.0 4.2046e-05
21150.0 4.2371e-05
21170.0 4.2665e-05
21190.0 4.2916e-05
21210.0 4.3143e-05
21230.0 4.3332e-05
21250.0 4.3465e-05
21270.0 4.3548e-05
21290.0 4.3578e-05
21310.0 4.3544e-05
21330.0 4.3446e-05
21350.0 4.3277e-05
21370.0 4.3031e-05
21390.0 4.2716e-05
21410.0 4.2329e-05
21430.0 4.184e-05
21450.0 4.1288e-05
21470.0 4.0682e-05
21490.0 3.9995e-05
21510.0 3.9239e-05
21530.0 3.8466e-05
21550.0 3.7653e-05
21570.0 3.6783e-05
21590.0 3.5922e-05
21610.0 3.5085e-05
21630.0 3.4243e-05
21650.0 3.3415e-05
21670.0 3.2688e-05
21690.0 3.201e-05
21710.0 3.1391e-05
21730.0 3.0871e-05
21750.0 3.0455e-05
21770.0 3.0119e-05
21790.0 2.9896e-05
21810.0 2.9786e-05
21830.0 2.9778e-05
21850.0 2.988e-05
21870.0 3.0079e-05
21890.0 3.0359e-05
21910.0 3.0737e-05
21930.0 3.1194e-05
21950.0 3.1698e-05
21970.0 3.2266e-05
21990.0 3.2913e-05
22010.0 3.3566e-05
22030.0 3.4235e-05
22050.0 3.4946e-05
22070.0 3.5666e-05
22090.0 3.6351e-05
22110.0 3.7049e-05
22130.0 3.775e-05
22150.0 3.841e-05
22170.0 3.9034e-05
22190.0 3.9659e-05
22210.0 4.0243e-05
22230.0 4.0757e-05
22250.0 4.1244e-05
22270.0 4.1694e-05
22290.0 4.2079e-05
22310.0 4.2408e-05
22330.0 4.27e-05
22350.0 4.2924e-05
22370.0 4.3079e-05
22390.0 4.3176e-05
22410.0 4.3204e-05
22430.0 4.3158e-05
22450.0 4.3043e-05
22470.0 4.285e-05
22490.0 4.2581e-05
22510.0 4.2245e-05
22530.0 4.182e-05
22550.0 4.1304e-05
22570.0 4.0732e-05
22590.0 4.0089e-05
22610.0 3.935e-05
22630.0 3.8551e-05
22650.0 3.7724e-05
22670.0 3.6811e-05
22690.0 3.5836e-05
22710.0 3.4852e-05
22730.0 3.3836e-05
22750.0 3.2736e-05
22770.0 3.1659e-05
22790.0 3.0606e-05
