#lamb flux
1010.0 1.4338e-07
1030.0 1.6107e-07
1050.0 1.8142e-07
1070.0 2.0432e-07
1090.0 2.3034e-07
1110.0 2.5702e-07
1130.0 2.8388e-07
1150.0 3.1202e-07
1170.0 3.4104e-07
1190.0 3.6856e-07
1210.0 3.9645e-07
1230.0 4.2527e-07
1250.0 4.5351e-07
1270.0 4.8094e-07
1290.0 5.0991e-07
1310.0 5.3887e-07
1330.0 5.6664e-07
1350.0 5.9473e-07
1370.0 6.2372e-07
1390.0 6.5199e-07
1410.0 6.7941e-07
1430.0 7.0808e-07
1450.0 7.3675e-07
1470.0 7.6445e-07
1490.0 7.9244e-07
1510.0 8.2201e-07
1530.0 8.5002e-07
1550.0 8.7764e-07
1570.0 9.0621e-07
1590.0 9.3479e-07
1610.0 9.6209e-07
1630.0 9.9021e-07
1650.0 1.0191e-06
1670.0 1.0469e-06
1690.0 1.0744e-06
1710.0 1.1029e-06
1730.0 1.1315e-06
1750.0 1.1584e-06
1770.0 1.186e-06
1790.0 1.2141e-06
1810.0 1.2411e-06
1830.0 1.2676e-06
1850.0 1.2957e-06
1870.0 1.3229e-06
1890.0 1.349e-06
1910.0 1.3754e-06
1930.0 1.4024e-06
1950.0 1.4278e-06
1970.0 1.4527e-06
1990.0 1.4783e-06
2010.0 1.5031e-06
2030.0 1.5266e-06
2050.0 1.5505e-06
2070.0 1.5746e-06
2090.0 1.5968e-06
2110.0 1.6183e-06
2130.0 1.64e-06
2150.0 1.6607e-06
2170.0 1.6795e-06
2190.0 1.6986e-06
2210.0 1.7172e-06
2230.0 1.7338e-06
2250.0 1.7496e-06
2270.0 1.7655e-06
2290.0 1.7798e-06
2310.0 1.7919e-06
2330.0 1.8039e-06
2350.0 1.8151e-06
2370.0 1.8242e-06
2390.0 1.8328e-06
2410.0 1.8418e-06
2430.0 1.8499e-06
2450.0 1.8577e-06
2470.0 1.8675e-06
2490.0 1.8804e-06
2510.0 1.896e-06
2530.0 1.9212e-06
2550.0 1.9663e-06
2570.0 2.0403e-06
2590.0 2.1554e-06
2610.0 2.3447e-06
2630.0 2.6141e-06
2650.0 2.9465e-06
2670.0 3.3433e-06
2690.0 3.7858e-06
2710.0 4.2062e-06
2730.0 4.5727e-06
2750.0 4.8903e-06
2770.0 5.1248e-06
2790.0 5.2756e-06
2810.0 5.3699e-06
2830.0 5.4261e-06
2850.0 5.4447e-06
2870.0 5.4462e-06
2890.0 5.4421e-06
2910.0 5.4331e-06
2930.0 5.4185e-06
2950.0 5.4061e-06
2970.0 5.3954e-06
2990.0 5.3822e-06
3010.0 9.7053e-05
3030.0 9.6741e-05
3050.0 9.6425e-05
3070.0 9.6011e-05
3090.0 9.5557e-05
3110.0 9.4958e-05
3130.0 9.4086e-05
3150.0 9.2889e-05
3170.0 9.127e-05
3190.0 8.927e-05
3210.0 8.7075e-05
3230.0 8.4888e-05
3250.0 8.3214e-05
3270.0 8.2101e-05
3290.0 8.2153e-05
3310.0 8.2901e-05
3330.0 8.4895e-05
3350.0 8.7746e-05
3370.0 9.1513e-05
3390.0 9.608e-05
3410.0 0.00010095
3430.0 0.00010637
3450.0 0.00011252
3470.0 0.00011912
3490.0 0.00012599
3510.0 0.00013364
3530.0 0.00014173
3550.0 0.00014965
3570.0 0.00015776
3590.0 0.00016686
3610.0 0.00017586
3630.0 0.00018556
3650.0 0.00019547
3670.0 0.00020482
3690.0 0.00021201
3710.0 0.0002165
3730.0 0.00021804
3750.0 0.00021645
3770.0 0.00019732
3790.0 0.00017702
3810.0 0.00016526
3830.0 0.0001426
3850.0 0.00010277
3870.0 7.8879e-05
3890.0 0.0001326
3910.0 0.00021101
3930.0 0.00025547
3950.0 0.00025528
3970.0 0.00025517
3990.0 0.00029929
4010.0 0.00037148
4030.0 0.00038224
4050.0 0.0003441
4070.0 0.00029926
4090.0 0.00028047
4110.0 0.00033651
4130.0 0.00034851
4150.0 0.00033195
4170.0 0.00034273
4190.0 0.00035179
4210.0 0.0003467
4230.0 0.00037637
4250.0 0.00040996
4270.0 0.00041421
4290.0 0.00042066
4310.0 0.00043727
4330.0 0.00048345
4350.0 0.00055141
4370.0 0.00062341
4390.0 0.00060051
4410.0 0.00050346
4430.0 0.00042429
4450.0 0.00036097
4470.0 0.00035328
4490.0 0.00038351
4510.0 0.0004197
4530.0 0.00045918
4550.0 0.00053487
4570.0 0.00064329
4590.0 0.00078747
4610.0 0.00098961
4630.0 0.0011856
4650.0 0.0012269
4670.0 0.0012032
4690.0 0.0012813
4710.0 0.0013391
4730.0 0.0011382
4750.0 0.00082774
4770.0 0.00067931
4790.0 0.00064824
4810.0 0.0006021
4830.0 0.00057093
4850.0 0.00065757
4870.0 0.0008394
4890.0 0.00095236
4910.0 0.0008191
4930.0 0.00073131
4950.0 0.00082282
4970.0 0.001096
4990.0 0.0014024
5010.0 0.0014698
5030.0 0.0012172
5050.0 0.00080133
5070.0 0.00055444
5090.0 0.0004931
5110.0 0.00051529
5130.0 0.00055262
5150.0 0.00058173
5170.0 0.00058172
5190.0 0.00057177
5210.0 0.00055331
5230.0 0.00056232
5250.0 0.00059873
5270.0 0.00069926
5290.0 0.00080772
5310.0 0.00087781
5330.0 0.00090053
5350.0 0.00091463
5370.0 0.00099328
5390.0 0.0010553
5410.0 0.0010265
5430.0 0.0008987
5450.0 0.00083244
5470.0 0.00093846
5490.0 0.0012015
5510.0 0.0015231
5530.0 0.001679
5550.0 0.0016394
5570.0 0.0014952
5590.0 0.0013456
5610.0 0.0012411
5630.0 0.0011764
5650.0 0.0012078
5670.0 0.0011831
5690.0 0.0011109
5710.0 0.0010469
5730.0 0.00093924
5750.0 0.00069933
5770.0 0.00061325
5790.0 0.00068414
5810.0 0.00082492
5830.0 0.00092356
5850.0 0.00099571
5870.0 0.0010183
5890.0 0.00098077
5910.0 0.00093912
5930.0 0.00094518
5950.0 0.00099218
5970.0 0.0010386
5990.0 0.00098643
6010.0 0.00083457
6030.0 0.00069366
6050.0 0.00060508
6070.0 0.00059964
6090.0 0.00067272
6110.0 0.00073347
6130.0 0.00070649
6150.0 0.0006637
6170.0 0.00073476
6190.0 0.00088337
6210.0 0.00106
6230.0 0.0011949
6250.0 0.0011898
6270.0 0.0010734
6290.0 0.00088854
6310.0 0.00070896
6330.0 0.00056914
6350.0 0.00051622
6370.0 0.00056287
6390.0 0.00066066
6410.0 0.00075714
6430.0 0.00087581
6450.0 0.0010179
6470.0 0.0012577
6490.0 0.0015423
6510.0 0.0016932
6530.0 0.0015741
6550.0 0.001453
6570.0 0.0014295
6590.0 0.0013736
6610.0 0.0012417
6630.0 0.0011149
6650.0 0.0010306
6670.0 0.0010702
6690.0 0.0010643
6710.0 0.0009436
6730.0 0.0008745
6750.0 0.00077765
6770.0 0.00074865
6790.0 0.00080749
6810.0 0.00085094
6830.0 0.00087174
6850.0 0.00085681
6870.0 0.00082137
6890.0 0.00080472
6910.0 0.00076504
6930.0 0.00072275
6950.0 0.00072694
6970.0 0.00074205
6990.0 0.00082613
7010.0 0.00087904
7030.0 0.00080053
7050.0 0.00074988
7070.0 0.0007213
7090.0 0.00064897
7110.0 0.0006046
7130.0 0.00061541
7150.0 0.00063912
7170.0 0.00067323
7190.0 0.00067428
7210.0 0.00067763
7230.0 0.00071374
7250.0 0.00082198
7270.0 0.00096017
7290.0 0.001029
7310.0 0.00099701
7330.0 0.00088678
7350.0 0.00079714
7370.0 0.00078389
7390.0 0.00079133
7410.0 0.00082029
7430.0 0.00089813
7450.0 0.00097354
7470.0 0.0010788
7490.0 0.0011921
7510.0 0.0010959
7530.0 0.0010491
7550.0 0.00088112
7570.0 0.00074048
7590.0 0.00061025
7610.0 0.00056016
7630.0 0.0005861
7650.0 0.00067029
7670.0 0.00073021
7690.0 0.00082362
7710.0 0.00091811
7730.0 0.00096011
7750.0 0.00096244
7770.0 0.00095887
7790.0 0.00094482
7810.0 0.00098146
7830.0 0.00094876
7850.0 0.00084651
7870.0 0.0007645
7890.0 0.00071229
7910.0 0.00064247
7930.0 0.00054978
7950.0 0.00050328
7970.0 0.00050036
7990.0 0.00052371
8010.0 0.000556
8030.0 0.00056412
8050.0 0.00056182
8070.0 0.00054588
8090.0 0.00054336
8110.0 0.00051636
8130.0 0.00048126
8150.0 0.00045245
8170.0 0.00044142
8190.0 0.00045084
8210.0 0.00045203
8230.0 0.00047006
8250.0 0.00046721
8270.0 0.0004176
8290.0 0.00032078
8310.0 0.00021843
8330.0 0.00014407
8350.0 0.00010226
8370.0 0.00012141
8390.0 0.00013435
8410.0 0.00017207
8430.0 0.0002085
8450.0 0.00022844
8470.0 0.00023694
8490.0 0.00024332
8510.0 0.00025418
8530.0 0.00028424
8550.0 0.00031405
8570.0 0.00036899
8590.0 0.00045255
8610.0 0.00052993
8630.0 0.00061946
8650.0 0.00069674
8670.0 0.00068644
8690.0 0.00064328
8710.0 0.00060795
8730.0 0.0005746
8750.0 0.0005496
8770.0 0.00053337
8790.0 0.00051679
8810.0 0.00048147
8830.0 0.00043415
8850.0 0.00037593
8870.0 0.00032119
8890.0 0.00029012
8910.0 0.00029341
8930.0 0.00029303
8950.0 0.00031819
8970.0 0.00032557
8990.0 0.0003382
9010.0 0.00035075
9030.0 0.00035354
9050.0 0.00035486
9070.0 0.00035585
9090.0 0.00035658
9110.0 0.00035695
9130.0 0.00035753
9150.0 0.00035834
9170.0 0.00035914
9190.0 0.00035993
9210.0 0.00036117
9230.0 0.00036209
9250.0 0.00036315
9270.0 0.00036427
9290.0 0.00036545
9310.0 0.00036675
9330.0 0.00036812
9350.0 0.00036953
9370.0 0.00037103
9390.0 0.00037262
9410.0 0.00037425
9430.0 0.00037593
9450.0 0.00037772
9470.0 0.00037957
9490.0 0.00038146
9510.0 0.00038343
9530.0 0.00038548
9550.0 0.00038755
9570.0 0.00038967
9590.0 0.00039188
9610.0 0.00039414
9630.0 0.00039642
9650.0 0.00039877
9670.0 0.00040121
9690.0 0.00040365
9710.0 0.00040613
9730.0 0.00040869
9750.0 0.00041129
9770.0 0.00041387
9790.0 0.00041653
9810.0 0.00041924
9830.0 0.00042196
9850.0 0.0004247
9870.0 0.00042751
9890.0 0.00043033
9910.0 0.00043314
9930.0 0.000436
9950.0 0.00043887
9970.0 0.00044174
9990.0 0.00044462
10010.0 0.00043735
10030.0 0.00044017
10050.0 0.00044294
10070.0 0.00044564
10090.0 0.00044853
10110.0 0.00045134
10130.0 0.00045415
10150.0 0.00045699
10170.0 0.00045978
10190.0 0.0004625
10210.0 0.00046526
10230.0 0.00046802
10250.0 0.00047069
10270.0 0.00047335
10290.0 0.00047603
10310.0 0.00047863
10330.0 0.00048115
10350.0 0.0004837
10370.0 0.00048621
10390.0 0.00048862
10410.0 0.000491
10430.0 0.00049339
10450.0 0.00049568
10470.0 0.00049789
10490.0 0.00050009
10510.0 0.00050223
10530.0 0.00050423
10550.0 0.0005062
10570.0 0.00050815
10590.0 0.00051
10610.0 0.00051174
10630.0 0.00051347
10650.0 0.00051512
10670.0 0.00051661
10690.0 0.00051807
10710.0 0.00051948
10730.0 0.00052076
10750.0 0.0005219
10770.0 0.00052306
10790.0 0.00052411
10810.0 0.00052501
10830.0 0.00052582
10850.0 0.00052657
10870.0 0.00052701
10890.0 0.00052717
10910.0 0.00052695
10930.0 0.00052603
10950.0 0.00052397
10970.0 0.00052061
10990.0 0.00051586
11010.0 0.00049844
11030.0 0.00048967
11050.0 0.00047946
11070.0 0.00046753
11090.0 0.00045337
11110.0 0.00043891
11130.0 0.00042398
11150.0 0.00040808
11170.0 0.00039196
11190.0 0.00037669
11210.0 0.00036133
11230.0 0.00034608
11250.0 0.00033206
11270.0 0.00031912
11290.0 0.00030668
11310.0 0.0002954
11330.0 0.00028586
11350.0 0.00027714
11370.0 0.00026928
11390.0 0.00026257
11410.0 0.00025666
11430.0 0.00025097
11450.0 0.00024575
11470.0 0.00024082
11490.0 0.00023576
11510.0 0.00023033
11530.0 0.00022483
11550.0 0.00021902
11570.0 0.00021259
11590.0 0.00020583
11610.0 0.00019898
11630.0 0.00019165
11650.0 0.00018402
11670.0 0.00017673
11690.0 0.00016958
11710.0 0.00016245
11730.0 0.00015578
11750.0 0.0001498
11770.0 0.00014409
11790.0 0.00013888
11810.0 0.00013437
11830.0 0.00013037
11850.0 0.00012668
11870.0 0.00012351
11890.0 0.00012076
11910.0 0.00011817
11930.0 0.00011571
11950.0 0.00011341
11970.0 0.0001111
11990.0 0.00010866
12010.0 0.00010618
12030.0 0.00010365
12050.0 0.00010094
12070.0 9.8101e-05
12090.0 9.5375e-05
12110.0 9.2637e-05
12130.0 8.9922e-05
12150.0 8.7426e-05
12170.0 8.522e-05
12190.0 8.3223e-05
12210.0 8.1643e-05
12230.0 8.054e-05
12250.0 7.9895e-05
12270.0 7.9768e-05
12290.0 8.0157e-05
12310.0 8.0997e-05
12330.0 8.2365e-05
12350.0 8.4177e-05
12370.0 8.6276e-05
12390.0 8.8706e-05
12410.0 9.1536e-05
12430.0 9.4337e-05
12450.0 9.7155e-05
12470.0 0.00010006
12490.0 0.00010284
12510.0 0.00010531
12530.0 0.00010762
12550.0 0.00010969
12570.0 0.00011132
12590.0 0.00011256
12610.0 0.00011347
12630.0 0.00011394
12650.0 0.00011396
12670.0 0.00011363
12690.0 0.00011293
12710.0 0.0001119
12730.0 0.0001106
12750.0 0.00010899
12770.0 0.00010718
12790.0 0.00010523
12810.0 0.0001031
12830.0 0.00010079
12850.0 9.8471e-05
12870.0 9.6084e-05
12890.0 9.3553e-05
12910.0 9.0989e-05
12930.0 8.8443e-05
12950.0 8.5766e-05
12970.0 8.2993e-05
12990.0 8.03e-05
13010.0 7.7579e-05
13030.0 7.4769e-05
13050.0 7.2006e-05
13070.0 6.9364e-05
13090.0 6.6683e-05
13110.0 6.4067e-05
13130.0 6.1644e-05
13150.0 5.9359e-05
13170.0 5.7158e-05
13190.0 5.5237e-05
13210.0 5.3593e-05
13230.0 5.2157e-05
13250.0 5.0996e-05
13270.0 5.0152e-05
13290.0 4.9582e-05
13310.0 4.9302e-05
13330.0 4.9317e-05
13350.0 4.9586e-05
13370.0 5.0119e-05
13390.0 5.09e-05
13410.0 5.1803e-05
13430.0 5.2867e-05
13450.0 5.4079e-05
13470.0 5.5325e-05
13490.0 5.6559e-05
13510.0 5.7876e-05
13530.0 5.9129e-05
13550.0 6.0256e-05
13570.0 6.1309e-05
13590.0 6.2278e-05
13610.0 6.3081e-05
13630.0 6.3727e-05
13650.0 6.4271e-05
13670.0 6.4664e-05
13690.0 6.4903e-05
13710.0 6.5021e-05
13730.0 6.5018e-05
13750.0 6.4887e-05
13770.0 6.4654e-05
13790.0 6.432e-05
13810.0 6.3895e-05
13830.0 6.3403e-05
13850.0 6.2827e-05
13870.0 6.2171e-05
13890.0 6.147e-05
13910.0 6.072e-05
13930.0 5.9893e-05
13950.0 5.9024e-05
13970.0 5.8161e-05
13990.0 5.7252e-05
14010.0 5.6316e-05
14030.0 5.5406e-05
14050.0 5.4514e-05
14070.0 5.3604e-05
14090.0 5.2759e-05
14110.0 5.1988e-05
14130.0 5.1269e-05
14150.0 5.0621e-05
14170.0 5.0093e-05
14190.0 4.9664e-05
14210.0 4.9334e-05
14230.0 4.9127e-05
14250.0 4.9038e-05
14270.0 4.9068e-05
14290.0 4.9224e-05
14310.0 4.9481e-05
14330.0 4.9838e-05
14350.0 5.0304e-05
14370.0 5.0843e-05
14390.0 5.1425e-05
14410.0 5.2088e-05
14430.0 5.2798e-05
14450.0 5.3513e-05
14470.0 5.4254e-05
14490.0 5.5052e-05
14510.0 5.5838e-05
14530.0 5.6622e-05
14550.0 5.7465e-05
14570.0 5.8357e-05
14590.0 5.9268e-05
14610.0 6.0267e-05
14630.0 6.1401e-05
14650.0 6.261e-05
14670.0 6.3915e-05
14690.0 6.5399e-05
14710.0 6.705e-05
14730.0 6.8734e-05
14750.0 7.0576e-05
14770.0 7.2582e-05
14790.0 7.4623e-05
14810.0 7.6673e-05
14830.0 7.8884e-05
14850.0 8.1051e-05
14870.0 8.3089e-05
14890.0 8.5071e-05
14910.0 8.6965e-05
14930.0 8.8612e-05
14950.0 9.0015e-05
14970.0 9.1227e-05
14990.0 9.2151e-05
15010.0 9.2789e-05
15030.0 9.3202e-05
15050.0 9.3412e-05
15070.0 9.3453e-05
15090.0 9.3389e-05
15110.0 9.325e-05
15130.0 9.3069e-05
15150.0 9.2877e-05
15170.0 9.2665e-05
15190.0 9.2445e-05
15210.0 9.2233e-05
15230.0 9.2023e-05
15250.0 9.1803e-05
15270.0 9.1587e-05
15290.0 9.1385e-05
15310.0 9.1175e-05
15330.0 9.0962e-05
15350.0 9.0759e-05
15370.0 9.0558e-05
15390.0 9.0343e-05
15410.0 9.0137e-05
15430.0 8.9939e-05
15450.0 8.9733e-05
15470.0 8.9523e-05
15490.0 8.9326e-05
15510.0 8.9128e-05
15530.0 8.8921e-05
15550.0 8.8719e-05
15570.0 8.8525e-05
15590.0 8.8319e-05
15610.0 8.811e-05
15630.0 8.7913e-05
15650.0 8.7715e-05
15670.0 8.7507e-05
15690.0 8.7306e-05
15710.0 8.7112e-05
15730.0 8.6906e-05
15750.0 8.6698e-05
15770.0 8.65e-05
15790.0 8.6298e-05
15810.0 8.6084e-05
15830.0 8.588e-05
15850.0 8.5681e-05
15870.0 8.5472e-05
15890.0 8.5261e-05
15910.0 8.5061e-05
15930.0 8.4854e-05
15950.0 8.4636e-05
15970.0 8.4427e-05
15990.0 8.422e-05
16010.0 8.4004e-05
16030.0 8.3783e-05
16050.0 8.3577e-05
16070.0 8.3363e-05
16090.0 8.3141e-05
16110.0 8.2926e-05
16130.0 8.2714e-05
16150.0 8.2484e-05
16170.0 8.2259e-05
16190.0 8.2042e-05
16210.0 8.1818e-05
16230.0 8.1586e-05
16250.0 8.1362e-05
16270.0 8.114e-05
16290.0 8.0905e-05
16310.0 8.0672e-05
16330.0 8.0445e-05
16350.0 8.0211e-05
16370.0 7.9963e-05
16390.0 7.9731e-05
16410.0 7.9497e-05
16430.0 7.9252e-05
16450.0 7.9009e-05
16470.0 7.8774e-05
16490.0 7.8527e-05
16510.0 7.8274e-05
16530.0 7.8029e-05
16550.0 7.7783e-05
16570.0 7.7524e-05
16590.0 7.7268e-05
16610.0 7.7022e-05
16630.0 7.6765e-05
16650.0 7.6502e-05
16670.0 7.6248e-05
16690.0 7.5992e-05
16710.0 7.5719e-05
16730.0 7.5454e-05
16750.0 7.5194e-05
16770.0 7.4925e-05
16790.0 7.4649e-05
16810.0 7.4385e-05
16830.0 7.4116e-05
16850.0 7.3837e-05
16870.0 7.3562e-05
16890.0 7.3292e-05
16910.0 7.3009e-05
16930.0 7.2721e-05
16950.0 7.2446e-05
16970.0 7.2165e-05
16990.0 7.1875e-05
17010.0 7.159e-05
17030.0 7.1311e-05
17050.0 7.1018e-05
17070.0 7.0724e-05
17090.0 7.0437e-05
17110.0 7.0146e-05
17130.0 6.9842e-05
17150.0 6.9548e-05
17170.0 6.9257e-05
17190.0 6.8956e-05
17210.0 6.8654e-05
17230.0 6.836e-05
17250.0 6.8059e-05
17270.0 6.7747e-05
17290.0 6.7445e-05
17310.0 6.7144e-05
17330.0 6.6833e-05
17350.0 6.6519e-05
17370.0 6.6218e-05
17390.0 6.5909e-05
17410.0 6.5593e-05
17430.0 6.5284e-05
17450.0 6.4978e-05
17470.0 6.4655e-05
17490.0 6.4336e-05
17510.0 6.4027e-05
17530.0 6.371e-05
17550.0 6.3386e-05
17570.0 6.3072e-05
17590.0 6.2759e-05
17610.0 6.2433e-05
17630.0 6.2111e-05
17650.0 6.1796e-05
17670.0 6.1473e-05
17690.0 6.1139e-05
17710.0 6.0821e-05
17730.0 6.0502e-05
17750.0 6.0173e-05
17770.0 5.9847e-05
17790.0 5.953e-05
17810.0 5.92e-05
17830.0 5.8868e-05
17850.0 5.8545e-05
17870.0 5.8221e-05
17890.0 5.7886e-05
17910.0 5.7555e-05
17930.0 5.7236e-05
17950.0 5.6906e-05
17970.0 5.6573e-05
17990.0 5.6249e-05
18010.0 5.5924e-05
18030.0 5.5585e-05
18050.0 5.5255e-05
18070.0 5.4931e-05
18090.0 5.4599e-05
18110.0 5.4263e-05
18130.0 5.394e-05
18150.0 5.3613e-05
18170.0 5.3278e-05
18190.0 5.2949e-05
18210.0 5.2626e-05
18230.0 5.2291e-05
18250.0 5.1955e-05
18270.0 5.1631e-05
18290.0 5.1304e-05
18310.0 5.097e-05
18330.0 5.0643e-05
18350.0 5.0322e-05
18370.0 4.9989e-05
18390.0 4.9657e-05
18410.0 4.9335e-05
18430.0 4.9009e-05
18450.0 4.8673e-05
18470.0 4.8348e-05
18490.0 4.8028e-05
18510.0 4.7699e-05
18530.0 4.7372e-05
18550.0 4.7054e-05
18570.0 4.6729e-05
18590.0 4.6398e-05
18610.0 4.6077e-05
18630.0 4.5758e-05
18650.0 4.5432e-05
18670.0 4.5105e-05
18690.0 4.4793e-05
18710.0 4.4473e-05
18730.0 4.4148e-05
18750.0 4.3832e-05
18770.0 4.352e-05
18790.0 4.3193e-05
18810.0 4.2873e-05
18830.0 4.2563e-05
18850.0 4.2247e-05
18870.0 4.1926e-05
18890.0 4.1617e-05
18910.0 4.1308e-05
18930.0 4.099e-05
18950.0 4.0677e-05
18970.0 4.0372e-05
18990.0 4.0061e-05
19010.0 3.9741e-05
19030.0 3.9438e-05
19050.0 3.9134e-05
19070.0 3.8823e-05
19090.0 3.8517e-05
19110.0 3.822e-05
19130.0 3.7912e-05
19150.0 3.7604e-05
19170.0 3.7305e-05
19190.0 3.7006e-05
19210.0 3.6699e-05
19230.0 3.6398e-05
19250.0 3.6107e-05
19270.0 3.5807e-05
19290.0 3.5507e-05
19310.0 3.5217e-05
19330.0 3.4925e-05
19350.0 3.4622e-05
19370.0 3.4329e-05
19390.0 3.4042e-05
19410.0 3.3749e-05
19430.0 3.3454e-05
19450.0 3.3172e-05
19470.0 3.2886e-05
19490.0 3.2594e-05
19510.0 3.2309e-05
19530.0 3.203e-05
19550.0 3.1741e-05
19570.0 3.1452e-05
19590.0 3.1176e-05
19610.0 3.0896e-05
19630.0 3.0612e-05
19650.0 3.0335e-05
19670.0 3.0063e-05
19690.0 2.9781e-05
19710.0 2.9503e-05
19730.0 2.9233e-05
19750.0 2.8959e-05
19770.0 2.8679e-05
19790.0 2.8409e-05
19810.0 2.8143e-05
19830.0 2.787e-05
19850.0 2.7597e-05
19870.0 2.7332e-05
19890.0 2.7055e-05
19910.0 2.6763e-05
19930.0 2.6466e-05
19950.0 2.615e-05
19970.0 2.5792e-05
19990.0 2.5394e-05
20010.0 2.5353e-05
20030.0 2.4869e-05
20050.0 2.4335e-05
20070.0 2.3786e-05
20090.0 2.3222e-05
20110.0 2.2614e-05
20130.0 2.2025e-05
20150.0 2.1463e-05
20170.0 2.0902e-05
20190.0 2.0355e-05
20210.0 1.9854e-05
20230.0 1.938e-05
20250.0 1.892e-05
20270.0 1.8505e-05
20290.0 1.8135e-05
20310.0 1.7793e-05
20330.0 1.7485e-05
20350.0 1.7236e-05
20370.0 1.7025e-05
20390.0 1.6852e-05
20410.0 1.6724e-05
20430.0 1.6639e-05
20450.0 1.6591e-05
20470.0 1.6584e-05
20490.0 1.6613e-05
20510.0 1.6675e-05
20530.0 1.6773e-05
20550.0 1.6897e-05
20570.0 1.7039e-05
20590.0 1.7209e-05
20610.0 1.7398e-05
20630.0 1.7594e-05
20650.0 1.7803e-05
20670.0 1.8034e-05
20690.0 1.8259e-05
20710.0 1.8483e-05
20730.0 1.8718e-05
20750.0 1.8954e-05
20770.0 1.9178e-05
20790.0 1.9407e-05
20810.0 1.9643e-05
20830.0 1.9872e-05
20850.0 2.0098e-05
20870.0 2.0338e-05
20890.0 2.0582e-05
20910.0 2.0817e-05
20930.0 2.1062e-05
20950.0 2.1318e-05
20970.0 2.157e-05
20990.0 2.1821e-05
21010.0 2.2088e-05
21030.0 2.2352e-05
21050.0 2.2604e-05
21070.0 2.2857e-05
21090.0 2.3111e-05
21110.0 2.3342e-05
21130.0 2.3558e-05
21150.0 2.3766e-05
21170.0 2.3954e-05
21190.0 2.4114e-05
21210.0 2.426e-05
21230.0 2.4384e-05
21250.0 2.4476e-05
21270.0 2.4541e-05
21290.0 2.458e-05
21310.0 2.4588e-05
21330.0 2.4566e-05
21350.0 2.4513e-05
21370.0 2.4425e-05
21390.0 2.4308e-05
21410.0 2.4159e-05
21430.0 2.3967e-05
21450.0 2.3747e-05
21470.0 2.3502e-05
21490.0 2.3222e-05
21510.0 2.2908e-05
21530.0 2.2584e-05
21550.0 2.2238e-05
21570.0 2.1863e-05
21590.0 2.1485e-05
21610.0 2.1111e-05
21630.0 2.0726e-05
21650.0 2.0339e-05
21670.0 1.999e-05
21690.0 1.9654e-05
21710.0 1.9335e-05
21730.0 1.9053e-05
21750.0 1.8814e-05
21770.0 1.8601e-05
21790.0 1.8434e-05
21810.0 1.8317e-05
21830.0 1.8244e-05
21850.0 1.8218e-05
21870.0 1.824e-05
21890.0 1.8305e-05
21910.0 1.8416e-05
21930.0 1.8572e-05
21950.0 1.876e-05
21970.0 1.8987e-05
21990.0 1.9261e-05
22010.0 1.9553e-05
22030.0 1.9866e-05
22050.0 2.0211e-05
22070.0 2.0576e-05
22090.0 2.0937e-05
22110.0 2.1317e-05
22130.0 2.1711e-05
22150.0 2.2092e-05
22170.0 2.2464e-05
22190.0 2.2843e-05
22210.0 2.3204e-05
22230.0 2.3529e-05
22250.0 2.3838e-05
22270.0 2.4123e-05
22290.0 2.4367e-05
22310.0 2.4572e-05
22330.0 2.4748e-05
22350.0 2.4874e-05
22370.0 2.4952e-05
22390.0 2.4985e-05
22410.0 2.4966e-05
22430.0 2.4898e-05
22450.0 2.4781e-05
22470.0 2.461e-05
22490.0 2.4391e-05
22510.0 2.4133e-05
22530.0 2.3818e-05
22550.0 2.345e-05
22570.0 2.3056e-05
22590.0 2.2623e-05
22610.0 2.2139e-05
22630.0 2.1626e-05
22650.0 2.1108e-05
