#lamb flux
1010.0 4.1731e-05
1030.0 4.4281e-05
1050.0 4.7215e-05
1070.0 5.0518e-05
1090.0 5.427e-05
1110.0 5.8119e-05
1130.0 6.1993e-05
1150.0 6.6052e-05
1170.0 7.024e-05
1190.0 7.4212e-05
1210.0 7.8239e-05
1230.0 8.2401e-05
1250.0 8.6481e-05
1270.0 9.0444e-05
1290.0 9.4632e-05
1310.0 9.8819e-05
1330.0 0.00010284
1350.0 0.0001069
1370.0 0.0001111
1390.0 0.00011519
1410.0 0.00011917
1430.0 0.00012332
1450.0 0.00012748
1470.0 0.0001315
1490.0 0.00013557
1510.0 0.00013987
1530.0 0.00014394
1550.0 0.00014797
1570.0 0.00015213
1590.0 0.0001563
1610.0 0.00016029
1630.0 0.0001644
1650.0 0.00016863
1670.0 0.00017272
1690.0 0.00017676
1710.0 0.00018096
1730.0 0.00018519
1750.0 0.00018917
1770.0 0.00019327
1790.0 0.00019746
1810.0 0.00020152
1830.0 0.00020552
1850.0 0.00020977
1870.0 0.00021391
1890.0 0.00021793
1910.0 0.00022204
1930.0 0.00022625
1950.0 0.00023029
1970.0 0.00023429
1990.0 0.00023846
2010.0 0.00024257
2030.0 0.00024655
2050.0 0.00025067
2070.0 0.00025491
2090.0 0.00025894
2110.0 0.00026298
2130.0 0.00026716
2150.0 0.00027129
2170.0 0.00027527
2190.0 0.00027943
2210.0 0.00028364
2230.0 0.00028773
2250.0 0.00029183
2270.0 0.00029614
2290.0 0.00030036
2310.0 0.00030445
2330.0 0.0003087
2350.0 0.00031303
2370.0 0.00031723
2390.0 0.0003215
2410.0 0.000326
2430.0 0.00033037
2450.0 0.00033458
2470.0 0.00033873
2490.0 0.0003426
2510.0 0.00034592
2530.0 0.00034918
2550.0 0.00035326
2570.0 0.00035948
2590.0 0.00036971
2610.0 0.00038786
2630.0 0.00041624
2650.0 0.00045456
2670.0 0.00050417
2690.0 0.00056463
2710.0 0.00062893
2730.0 0.0006931
2750.0 0.00075829
2770.0 0.00081907
2790.0 0.00087333
2810.0 0.00092441
2830.0 0.00097521
2850.0 0.0010221
2870.0 0.0010684
2890.0 0.0011168
2910.0 0.0011658
2930.0 0.0012133
2950.0 0.001263
2970.0 0.0013141
2990.0 0.0013638
3010.0 0.0029277
3030.0 0.0030347
3050.0 0.0031428
3070.0 0.0032463
3090.0 0.0033549
3110.0 0.0034678
3130.0 0.0035793
3150.0 0.0036899
3170.0 0.0038029
3190.0 0.0039007
3210.0 0.0039765
3230.0 0.004036
3250.0 0.0035569
3270.0 0.0030811
3290.0 0.0023531
3310.0 0.0026369
3330.0 0.0028399
3350.0 0.003033
3370.0 0.0032246
3390.0 0.0034164
3410.0 0.0036083
3430.0 0.0037997
3450.0 0.0039917
3470.0 0.0041829
3490.0 0.0043448
3510.0 0.0043993
3530.0 0.0046034
3550.0 0.0056244
3570.0 0.0071297
3590.0 0.0080675
3610.0 0.009183
3630.0 0.008554
3650.0 0.0078245
3670.0 0.0075412
3690.0 0.0089637
3710.0 0.011375
3730.0 0.012228
3750.0 0.012694
3770.0 0.01282
3790.0 0.012607
3810.0 0.011443
3830.0 0.008862
3850.0 0.0070777
3870.0 0.0068944
3890.0 0.0094093
3910.0 0.012794
3930.0 0.015
3950.0 0.015828
3970.0 0.015747
3990.0 0.017969
4010.0 0.020087
4030.0 0.01879
4050.0 0.016437
4070.0 0.013906
4090.0 0.013823
4110.0 0.015661
4130.0 0.015894
4150.0 0.016022
4170.0 0.015096
4190.0 0.014394
4210.0 0.014572
4230.0 0.016748
4250.0 0.016912
4270.0 0.016801
4290.0 0.016642
4310.0 0.016655
4330.0 0.018402
4350.0 0.021193
4370.0 0.021537
4390.0 0.018638
4410.0 0.015396
4430.0 0.0132
4450.0 0.011357
4470.0 0.011004
4490.0 0.013156
4510.0 0.01476
4530.0 0.016181
4550.0 0.017392
4570.0 0.020547
4590.0 0.029299
4610.0 0.039248
4630.0 0.040653
4650.0 0.038592
4670.0 0.041015
4690.0 0.044994
4710.0 0.039784
4730.0 0.029295
4750.0 0.022294
4770.0 0.020296
4790.0 0.020374
4810.0 0.019099
4830.0 0.020838
4850.0 0.026455
4870.0 0.032859
4890.0 0.029368
4910.0 0.025814
4930.0 0.028639
4950.0 0.037626
4970.0 0.048818
4990.0 0.050313
5010.0 0.043347
5030.0 0.032525
5050.0 0.023321
5070.0 0.019611
5090.0 0.018602
5110.0 0.018875
5130.0 0.019638
5150.0 0.019378
5170.0 0.01975
5190.0 0.019122
5210.0 0.01975
5230.0 0.02111
5250.0 0.023251
5270.0 0.028628
5290.0 0.032655
5310.0 0.032793
5330.0 0.034115
5350.0 0.038465
5370.0 0.040871
5390.0 0.037884
5410.0 0.032409
5430.0 0.030798
5450.0 0.035519
5470.0 0.045785
5490.0 0.056782
5510.0 0.062393
5530.0 0.063641
5550.0 0.060605
5570.0 0.056384
5590.0 0.054436
5610.0 0.055029
5630.0 0.056246
5650.0 0.056276
5670.0 0.055359
5690.0 0.053741
5710.0 0.048161
5730.0 0.04023
5750.0 0.033709
5770.0 0.033853
5790.0 0.037135
5810.0 0.039878
5830.0 0.041118
5850.0 0.041008
5870.0 0.037838
5890.0 0.03306
5910.0 0.03229
5930.0 0.034956
5950.0 0.036044
5970.0 0.032969
5990.0 0.028328
6010.0 0.023343
6030.0 0.019604
6050.0 0.019305
6070.0 0.021944
6090.0 0.023103
6110.0 0.021125
6130.0 0.019553
6150.0 0.020771
6170.0 0.024869
6190.0 0.029672
6210.0 0.032264
6230.0 0.031148
6250.0 0.028549
6270.0 0.024706
6290.0 0.020481
6310.0 0.016952
6330.0 0.015313
6350.0 0.015948
6370.0 0.01729
6390.0 0.018714
6410.0 0.021293
6430.0 0.026216
6450.0 0.033017
6470.0 0.037584
6490.0 0.03768
6510.0 0.036789
6530.0 0.037487
6550.0 0.038323
6570.0 0.038661
6590.0 0.038664
6610.0 0.037613
6630.0 0.037666
6650.0 0.037794
6670.0 0.036339
6690.0 0.032586
6710.0 0.027546
6730.0 0.026375
6750.0 0.028344
6770.0 0.03082
6790.0 0.031771
6810.0 0.031413
6830.0 0.030984
6850.0 0.030309
6870.0 0.028578
6890.0 0.026929
6910.0 0.025736
6930.0 0.024806
6950.0 0.026331
6970.0 0.028659
6990.0 0.030227
7010.0 0.03058
7030.0 0.0289
7050.0 0.025089
7070.0 0.02034
7090.0 0.017281
7110.0 0.01667
7130.0 0.017583
7150.0 0.017801
7170.0 0.016373
7190.0 0.016053
7210.0 0.017685
7230.0 0.02031
7250.0 0.023213
7270.0 0.024445
7290.0 0.023017
7310.0 0.020422
7330.0 0.01869
7350.0 0.018294
7370.0 0.018773
7390.0 0.019619
7410.0 0.021022
7430.0 0.023895
7450.0 0.027778
7470.0 0.031715
7490.0 0.033549
7510.0 0.032525
7530.0 0.028169
7550.0 0.022964
7570.0 0.01911
7590.0 0.016854
7610.0 0.017351
7630.0 0.020058
7650.0 0.023077
7670.0 0.026124
7690.0 0.028717
7710.0 0.030604
7730.0 0.032193
7750.0 0.033686
7770.0 0.03501
7790.0 0.035157
7810.0 0.035547
7830.0 0.036681
7850.0 0.036759
7870.0 0.035795
7890.0 0.033258
7910.0 0.031254
7930.0 0.029804
7950.0 0.02979
7970.0 0.029607
7990.0 0.029908
8010.0 0.029813
8030.0 0.029944
8050.0 0.030756
8070.0 0.030323
8090.0 0.030342
8110.0 0.029185
8130.0 0.029025
8150.0 0.028244
8170.0 0.02747
8190.0 0.02711
8210.0 0.027324
8230.0 0.025663
8250.0 0.024076
8270.0 0.021049
8290.0 0.01699
8310.0 0.01319
8330.0 0.010141
8350.0 0.0089576
8370.0 0.010093
8390.0 0.011676
8410.0 0.012909
8430.0 0.014346
8450.0 0.015134
8470.0 0.015865
8490.0 0.017656
8510.0 0.019696
8530.0 0.022908
8550.0 0.026891
8570.0 0.03049
8590.0 0.033387
8610.0 0.035861
8630.0 0.037641
8650.0 0.037953
8670.0 0.038074
8690.0 0.039369
8710.0 0.040142
8730.0 0.04098
8750.0 0.040178
8770.0 0.040337
8790.0 0.039805
8810.0 0.037091
8830.0 0.03612
8850.0 0.034096
8870.0 0.03259
8890.0 0.031148
8910.0 0.031959
8930.0 0.03009
8950.0 0.028994
8970.0 0.028589
8990.0 0.027942
9010.0 0.02745
9030.0 0.026727
9050.0 0.026565
9070.0 0.026492
9090.0 0.02642
9110.0 0.026352
9130.0 0.026277
9150.0 0.026199
9170.0 0.026087
9190.0 0.025936
9210.0 0.026065
9230.0 0.02593
9250.0 0.025822
9270.0 0.025721
9290.0 0.025624
9310.0 0.025529
9330.0 0.025435
9350.0 0.025341
9370.0 0.025248
9390.0 0.025152
9410.0 0.025057
9430.0 0.024959
9450.0 0.024851
9470.0 0.024745
9490.0 0.024655
9510.0 0.02456
9530.0 0.024462
9550.0 0.024363
9570.0 0.024262
9590.0 0.02416
9610.0 0.024058
9630.0 0.023955
9650.0 0.023852
9670.0 0.023748
9690.0 0.023644
9710.0 0.02354
9730.0 0.023436
9750.0 0.023331
9770.0 0.023227
9790.0 0.023122
9810.0 0.023017
9830.0 0.022913
9850.0 0.022808
9870.0 0.022704
9890.0 0.022599
9910.0 0.022494
9930.0 0.022388
9950.0 0.022142
9970.0 0.02208
9990.0 0.02201
10010.0 0.021935
10030.0 0.02185
10050.0 0.021753
10070.0 0.021649
10090.0 0.021556
10110.0 0.021453
10130.0 0.021356
10150.0 0.021257
10170.0 0.021154
10190.0 0.021046
10210.0 0.020944
10230.0 0.020846
10250.0 0.020742
10270.0 0.020639
10290.0 0.020541
10310.0 0.020439
10330.0 0.020333
10350.0 0.020233
10370.0 0.020134
10390.0 0.02003
10410.0 0.019927
10430.0 0.019831
10450.0 0.019729
10470.0 0.019625
10490.0 0.019525
10510.0 0.019427
10530.0 0.019319
10550.0 0.019216
10570.0 0.019118
10590.0 0.019015
10610.0 0.01891
10630.0 0.018811
10650.0 0.018711
10670.0 0.018603
10690.0 0.018499
10710.0 0.018399
10730.0 0.018293
10750.0 0.018183
10770.0 0.018082
10790.0 0.017979
10810.0 0.01787
10830.0 0.017764
10850.0 0.017662
10870.0 0.017548
10890.0 0.017432
10910.0 0.017317
10930.0 0.017192
10950.0 0.017049
10970.0 0.016894
10990.0 0.016729
11010.0 0.015098
11030.0 0.014897
11050.0 0.014704
11070.0 0.014506
11090.0 0.014292
11110.0 0.014095
11130.0 0.013903
11150.0 0.013705
11170.0 0.013508
11190.0 0.013324
11210.0 0.013135
11230.0 0.01294
11250.0 0.012755
11270.0 0.012575
11290.0 0.012387
11310.0 0.012204
11330.0 0.012038
11350.0 0.011873
11370.0 0.011708
11390.0 0.011557
11410.0 0.011415
11430.0 0.011266
11450.0 0.011125
11470.0 0.010992
11490.0 0.010855
11510.0 0.010711
11530.0 0.010571
11550.0 0.010429
11570.0 0.010271
11590.0 0.010108
11610.0 0.0099445
11630.0 0.0097641
11650.0 0.0095692
11670.0 0.0093783
11690.0 0.0091819
11710.0 0.0089726
11730.0 0.008764
11750.0 0.0085657
11770.0 0.0083599
11790.0 0.0081553
11810.0 0.0079648
11830.0 0.0077822
11850.0 0.0075968
11870.0 0.0074282
11890.0 0.0072762
11910.0 0.0071279
11930.0 0.0069875
11950.0 0.0068631
11970.0 0.0067455
11990.0 0.0066296
12010.0 0.0065252
12030.0 0.0064302
12050.0 0.0063374
12070.0 0.0062479
12090.0 0.0061714
12110.0 0.0060988
12130.0 0.0060291
12150.0 0.0059682
12170.0 0.0059166
12190.0 0.005868
12210.0 0.0058295
12230.0 0.0058033
12250.0 0.0057874
12270.0 0.0057832
12290.0 0.0057938
12310.0 0.0058187
12330.0 0.005859
12350.0 0.0059157
12370.0 0.0059867
12390.0 0.0060732
12410.0 0.0061783
12430.0 0.0062921
12450.0 0.0064151
12470.0 0.0065497
12490.0 0.0066901
12510.0 0.0068282
12530.0 0.0069698
12550.0 0.0071115
12570.0 0.0072443
12590.0 0.0073687
12610.0 0.0074874
12630.0 0.0075941
12650.0 0.0076845
12670.0 0.0077638
12690.0 0.0078297
12710.0 0.0078804
12730.0 0.0079175
12750.0 0.0079408
12770.0 0.0079503
12790.0 0.0079481
12810.0 0.0079335
12830.0 0.0079065
12850.0 0.0078722
12870.0 0.0078298
12890.0 0.0077773
12910.0 0.0077191
12930.0 0.007658
12950.0 0.0075887
12970.0 0.0075131
12990.0 0.0074381
13010.0 0.0073596
13030.0 0.0072744
13050.0 0.0071877
13070.0 0.007102
13090.0 0.0070095
13110.0 0.0069139
13130.0 0.0068208
13150.0 0.0067272
13170.0 0.0066293
13190.0 0.0065381
13210.0 0.0064545
13230.0 0.0063744
13250.0 0.0063025
13270.0 0.0062444
13290.0 0.006197
13310.0 0.0061615
13330.0 0.0061416
13350.0 0.0061357
13370.0 0.0061424
13390.0 0.0061611
13410.0 0.0061874
13430.0 0.0062194
13450.0 0.0062539
13470.0 0.0062858
13490.0 0.0063115
13510.0 0.006329
13530.0 0.0063335
13550.0 0.0063238
13570.0 0.0062989
13590.0 0.0062566
13610.0 0.0062004
13630.0 0.0061329
13650.0 0.0060507
13670.0 0.0059597
13690.0 0.0058657
13710.0 0.0057666
13730.0 0.0056616
13750.0 0.0055642
13770.0 0.0054707
13790.0 0.005379
13810.0 0.0052939
13830.0 0.0052185
13850.0 0.0051471
13870.0 0.0050813
13890.0 0.005024
13910.0 0.0049729
13930.0 0.0049253
13950.0 0.0048831
13970.0 0.004847
13990.0 0.0048137
14010.0 0.0047833
14030.0 0.0047567
14050.0 0.0047327
14070.0 0.0047098
14090.0 0.0046894
14110.0 0.0046707
14130.0 0.0046528
14150.0 0.0046354
14170.0 0.004619
14190.0 0.004603
14210.0 0.004587
14230.0 0.0045715
14250.0 0.0045568
14270.0 0.0045425
14290.0 0.0045292
14310.0 0.0045174
14330.0 0.0045071
14350.0 0.0044983
14370.0 0.0044913
14390.0 0.0044856
14410.0 0.0044813
14430.0 0.0044779
14450.0 0.0044748
14470.0 0.0044717
14490.0 0.0044685
14510.0 0.0044642
14530.0 0.0044589
14550.0 0.0044528
14570.0 0.0044459
14590.0 0.0044386
14610.0 0.0044316
14630.0 0.0044257
14650.0 0.0044216
14670.0 0.0044199
14690.0 0.0044222
14710.0 0.0044295
14730.0 0.0044409
14750.0 0.0044585
14770.0 0.0044837
14790.0 0.0045151
14810.0 0.0045524
14830.0 0.004601
14850.0 0.0046568
14870.0 0.004717
14890.0 0.0047842
14910.0 0.0048579
14930.0 0.0049294
14950.0 0.0049963
14970.0 0.0050598
14990.0 0.0051116
15010.0 0.0051485
15030.0 0.0051726
15050.0 0.0051844
15070.0 0.0051833
15090.0 0.0051742
15110.0 0.0051596
15130.0 0.0051414
15150.0 0.0051212
15170.0 0.0050999
15190.0 0.0050781
15210.0 0.0050561
15230.0 0.005034
15250.0 0.0050118
15270.0 0.0049895
15290.0 0.0049674
15310.0 0.0049452
15330.0 0.0049228
15350.0 0.0049006
15370.0 0.0048785
15390.0 0.004856
15410.0 0.0048337
15430.0 0.0048116
15450.0 0.0047893
15470.0 0.0047669
15490.0 0.0047448
15510.0 0.0047227
15530.0 0.0047004
15550.0 0.0046782
15570.0 0.0046562
15590.0 0.0046341
15610.0 0.0046119
15630.0 0.0045899
15650.0 0.004568
15670.0 0.004546
15690.0 0.0045241
15710.0 0.0045024
15730.0 0.0044806
15750.0 0.0044588
15770.0 0.0044372
15790.0 0.0044156
15810.0 0.0043939
15830.0 0.0043724
15850.0 0.0043511
15870.0 0.0043297
15890.0 0.0043084
15910.0 0.0042873
15930.0 0.0042662
15950.0 0.004245
15970.0 0.0042241
15990.0 0.0042033
16010.0 0.0041824
16030.0 0.0041616
16050.0 0.0041411
16070.0 0.0041206
16090.0 0.0041
16110.0 0.0040797
16130.0 0.0040595
16150.0 0.0040392
16170.0 0.0040191
16190.0 0.0039992
16210.0 0.0039793
16230.0 0.0039594
16250.0 0.0039398
16270.0 0.0039203
16290.0 0.0039007
16310.0 0.0038813
16330.0 0.0038621
16350.0 0.0038429
16370.0 0.0038237
16390.0 0.0038048
16410.0 0.003786
16430.0 0.0037672
16450.0 0.0037485
16470.0 0.0037301
16490.0 0.0037117
16510.0 0.0036933
16530.0 0.0036751
16550.0 0.0036571
16570.0 0.003639
16590.0 0.0036211
16610.0 0.0036035
16630.0 0.0035858
16650.0 0.0035682
16670.0 0.0035509
16690.0 0.0035337
16710.0 0.0035163
16730.0 0.0034993
16750.0 0.0034824
16770.0 0.0034655
16790.0 0.0034487
16810.0 0.0034322
16830.0 0.0034157
16850.0 0.0033993
16870.0 0.003383
16890.0 0.0033669
16910.0 0.0033508
16930.0 0.0033348
16950.0 0.0033191
16970.0 0.0033034
16990.0 0.0032877
17010.0 0.0032723
17030.0 0.003257
17050.0 0.0032417
17070.0 0.0032265
17090.0 0.0032116
17110.0 0.0031967
17130.0 0.0031818
17150.0 0.0031671
17170.0 0.0031526
17190.0 0.0031381
17210.0 0.0031238
17230.0 0.0031096
17250.0 0.0030955
17270.0 0.0030814
17290.0 0.0030675
17310.0 0.0030537
17330.0 0.00304
17350.0 0.0030263
17370.0 0.003013
17390.0 0.0029996
17410.0 0.0029863
17430.0 0.0029732
17450.0 0.0029602
17470.0 0.0029471
17490.0 0.0029343
17510.0 0.0029216
17530.0 0.002909
17550.0 0.0028964
17570.0 0.002884
17590.0 0.0028717
17610.0 0.0028594
17630.0 0.0028473
17650.0 0.0028353
17670.0 0.0028234
17690.0 0.0028114
17710.0 0.0027998
17730.0 0.0027882
17750.0 0.0027766
17770.0 0.0027652
17790.0 0.0027539
17810.0 0.0027426
17830.0 0.0027314
17850.0 0.0027204
17870.0 0.0027095
17890.0 0.0026985
17910.0 0.0026877
17930.0 0.0026771
17950.0 0.0026665
17970.0 0.002656
17990.0 0.0026456
18010.0 0.0026353
18030.0 0.002625
18050.0 0.0026148
18070.0 0.0026048
18090.0 0.0025948
18110.0 0.0025849
18130.0 0.0025751
18150.0 0.0025654
18170.0 0.0025557
18190.0 0.0025462
18210.0 0.0025368
18230.0 0.0025273
18250.0 0.002518
18270.0 0.0025088
18290.0 0.0024997
18310.0 0.0024905
18330.0 0.0024816
18350.0 0.0024727
18370.0 0.0024638
18390.0 0.002455
18410.0 0.0024464
18430.0 0.0024378
18450.0 0.0024292
18470.0 0.0024207
18490.0 0.0024124
18510.0 0.0024041
18530.0 0.0023958
18550.0 0.0023877
18570.0 0.0023796
18590.0 0.0023715
18610.0 0.0023636
18630.0 0.0023557
18650.0 0.0023478
18670.0 0.00234
18690.0 0.0023324
18710.0 0.0023248
18730.0 0.0023172
18750.0 0.0023098
18770.0 0.0023024
18790.0 0.0022949
18810.0 0.0022876
18830.0 0.0022805
18850.0 0.0022733
18870.0 0.0022661
18890.0 0.0022591
18910.0 0.0022522
18930.0 0.0022452
18950.0 0.0022383
18970.0 0.0022316
18990.0 0.0022248
19010.0 0.002218
19030.0 0.0022114
19050.0 0.0022049
19070.0 0.0021983
19090.0 0.0021919
19110.0 0.0021855
19130.0 0.0021791
19150.0 0.0021728
19170.0 0.0021666
19190.0 0.0021604
19210.0 0.0021542
19230.0 0.0021481
19250.0 0.0021421
19270.0 0.0021361
19290.0 0.0021302
19310.0 0.0021243
19330.0 0.0021185
19350.0 0.0021126
19370.0 0.0021069
19390.0 0.0021013
19410.0 0.0020956
19430.0 0.0020899
19450.0 0.0020845
19470.0 0.002079
19490.0 0.0020735
19510.0 0.0020681
19530.0 0.0020627
19550.0 0.0020574
19570.0 0.002052
19590.0 0.0020468
19610.0 0.0020417
19630.0 0.0020365
19650.0 0.0020314
19670.0 0.0020264
19690.0 0.0020213
19710.0 0.0020163
19730.0 0.0020114
19750.0 0.0020064
19770.0 0.0020015
19790.0 0.0019967
19810.0 0.0019919
19830.0 0.0019871
19850.0 0.0019822
19870.0 0.0019773
19890.0 0.001972
19910.0 0.0019659
19930.0 0.0019589
19950.0 0.0019504
19970.0 0.0019393
19990.0 0.0019251
20010.0 0.0019083
20030.0 0.0018876
20050.0 0.0018631
20070.0 0.0018365
20090.0 0.0018079
20110.0 0.001776
20130.0 0.001744
20150.0 0.0017126
20170.0 0.0016804
20190.0 0.0016481
20210.0 0.0016177
20230.0 0.0015881
20250.0 0.0015584
20270.0 0.0015307
20290.0 0.001505
20310.0 0.0014801
20330.0 0.0014564
20350.0 0.0014359
20370.0 0.0014169
20390.0 0.0013995
20410.0 0.0013843
20430.0 0.0013716
20450.0 0.0013601
20470.0 0.0013508
20490.0 0.0013437
20510.0 0.0013383
20530.0 0.0013346
20550.0 0.0013326
20570.0 0.0013321
20590.0 0.0013329
20610.0 0.0013349
20630.0 0.0013378
20650.0 0.0013415
20670.0 0.0013461
20690.0 0.0013509
20710.0 0.0013559
20730.0 0.0013611
20750.0 0.0013663
20770.0 0.0013709
20790.0 0.0013752
20810.0 0.0013791
20830.0 0.0013822
20850.0 0.0013844
20870.0 0.001386
20890.0 0.0013865
20910.0 0.001386
20930.0 0.0013846
20950.0 0.001382
20970.0 0.0013786
20990.0 0.0013743
21010.0 0.0013689
21030.0 0.0013627
21050.0 0.0013559
21070.0 0.0013483
21090.0 0.0013398
21110.0 0.0013313
21130.0 0.0013225
21150.0 0.0013132
21170.0 0.0013039
21190.0 0.001295
21210.0 0.0012858
21230.0 0.0012768
21250.0 0.0012685
21270.0 0.0012607
21290.0 0.0012532
21310.0 0.0012465
21330.0 0.0012407
21350.0 0.0012355
21370.0 0.001231
21390.0 0.0012275
21410.0 0.0012249
21430.0 0.001223
21450.0 0.0012221
21470.0 0.0012221
21490.0 0.0012228
21510.0 0.0012244
21530.0 0.0012267
21550.0 0.0012297
21570.0 0.0012336
21590.0 0.0012381
21610.0 0.001243
21630.0 0.0012487
21650.0 0.0012552
21670.0 0.0012616
21690.0 0.0012687
21710.0 0.0012763
21730.0 0.0012841
21750.0 0.0012919
21770.0 0.0013005
21790.0 0.0013092
21810.0 0.0013176
21830.0 0.0013262
21850.0 0.001335
21870.0 0.0013435
21890.0 0.0013516
21910.0 0.0013597
21930.0 0.0013676
21950.0 0.0013748
21970.0 0.0013817
21990.0 0.0013885
22010.0 0.0013943
22030.0 0.0013994
22050.0 0.001404
22070.0 0.0014078
22090.0 0.0014107
22110.0 0.0014128
22130.0 0.0014139
22150.0 0.0014141
22170.0 0.0014133
22190.0 0.0014114
22210.0 0.0014084
22230.0 0.0014044
22250.0 0.0013994
22270.0 0.0013931
22290.0 0.001386
22310.0 0.001378
22330.0 0.0013686
22350.0 0.0013583
22370.0 0.0013475
22390.0 0.0013357
22410.0 0.0013226
22430.0 0.0013095
22450.0 0.0012959
22470.0 0.0012812
22490.0 0.0012662
22510.0 0.0012514
22530.0 0.0012357
22550.0 0.0012196
22570.0 0.001204
22590.0 0.0011885
22610.0 0.0011726
22630.0 0.0011571
22650.0 0.0011425
22670.0 0.0011278
22690.0 0.0011133
22710.0 0.0010998
22730.0 0.0010868
22750.0 0.0010737
22770.0 0.0010618
22790.0 0.0010508
22810.0 0.00104
22830.0 0.0010298
22850.0 0.0010206
22870.0 0.0010118
22890.0 0.0010033
22910.0 0.00099548
22930.0 0.00098835
22950.0 0.00098145
22970.0 0.00097483
22990.0 0.00096904
23010.0 0.00096348
23030.0 0.0009581
23050.0 0.00095315
23070.0 0.0009486
23090.0 0.000944
23110.0 0.00093967
23130.0 0.00093567
23150.0 0.00093176
23170.0 0.00092785
23190.0 0.00092419
23210.0 0.00092072
23230.0 0.00091722
23250.0 0.00091386
23270.0 0.00091077
23290.0 0.0009078
23310.0 0.00090492
23330.0 0.00090246
23350.0 0.00090032
23370.0 0.00089843
23390.0 0.00089692
23410.0 0.00089584
23430.0 0.00089508
23450.0 0.00089467
23470.0 0.00089463
23490.0 0.00089487
23510.0 0.00089541
23530.0 0.00089617
23550.0 0.00089707
23570.0 0.00089811
23590.0 0.00089926
23610.0 0.00090041
23630.0 0.00090157
23650.0 0.00090278
23670.0 0.00090397
23690.0 0.00090515
23710.0 0.0009064
23730.0 0.0009078
23750.0 0.0009093
23770.0 0.00091106
23790.0 0.00091326
23810.0 0.00091592
23830.0 0.00091908
23850.0 0.00092311
23870.0 0.0009281
23890.0 0.00093381
23910.0 0.00094051
23930.0 0.00094852
23950.0 0.00095747
23970.0 0.00096703
23990.0 0.00097789
24010.0 0.00098967
24030.0 0.0010017
24050.0 0.0010142
24070.0 0.0010277
24090.0 0.0010409
24110.0 0.0010536
