#lamb flux
1010.0 9.844e-08
1030.0 1.0684e-07
1050.0 1.1652e-07
1070.0 1.2741e-07
1090.0 1.3979e-07
1110.0 1.525e-07
1130.0 1.6529e-07
1150.0 1.787e-07
1170.0 1.9255e-07
1190.0 2.057e-07
1210.0 2.1904e-07
1230.0 2.3283e-07
1250.0 2.4637e-07
1270.0 2.5953e-07
1290.0 2.7346e-07
1310.0 2.8739e-07
1330.0 3.0078e-07
1350.0 3.1434e-07
1370.0 3.2835e-07
1390.0 3.4205e-07
1410.0 3.5536e-07
1430.0 3.693e-07
1450.0 3.8326e-07
1470.0 3.9678e-07
1490.0 4.1047e-07
1510.0 4.2493e-07
1530.0 4.3868e-07
1550.0 4.5225e-07
1570.0 4.663e-07
1590.0 4.8037e-07
1610.0 4.9384e-07
1630.0 5.0771e-07
1650.0 5.2194e-07
1670.0 5.357e-07
1690.0 5.4927e-07
1710.0 5.6333e-07
1730.0 5.7743e-07
1750.0 5.9065e-07
1770.0 6.0422e-07
1790.0 6.1799e-07
1810.0 6.3125e-07
1830.0 6.4419e-07
1850.0 6.5784e-07
1870.0 6.7103e-07
1890.0 6.8364e-07
1910.0 6.9639e-07
1930.0 7.0932e-07
1950.0 7.2147e-07
1970.0 7.333e-07
1990.0 7.4546e-07
2010.0 7.572e-07
2030.0 7.6827e-07
2050.0 7.7953e-07
2070.0 7.9091e-07
2090.0 8.0129e-07
2110.0 8.114e-07
2130.0 8.2166e-07
2150.0 8.3142e-07
2170.0 8.4036e-07
2190.0 8.4952e-07
2210.0 8.5848e-07
2230.0 8.6666e-07
2250.0 8.7452e-07
2270.0 8.8263e-07
2290.0 8.9006e-07
2310.0 8.967e-07
2330.0 9.0343e-07
2350.0 9.0996e-07
2370.0 9.157e-07
2390.0 9.2129e-07
2410.0 9.272e-07
2430.0 9.3257e-07
2450.0 9.3764e-07
2470.0 9.4329e-07
2490.0 9.5009e-07
2510.0 9.5833e-07
2530.0 9.7184e-07
2550.0 9.9674e-07
2570.0 1.0393e-06
2590.0 1.1067e-06
2610.0 1.218e-06
2630.0 1.3773e-06
2650.0 1.5754e-06
2670.0 1.8136e-06
2690.0 2.0825e-06
2710.0 2.3439e-06
2730.0 2.5799e-06
2750.0 2.7946e-06
2770.0 2.9677e-06
2790.0 3.098e-06
2810.0 3.202e-06
2830.0 3.2917e-06
2850.0 3.3635e-06
2870.0 3.4298e-06
2890.0 3.4984e-06
2910.0 3.5674e-06
2930.0 3.6331e-06
2950.0 3.7036e-06
2970.0 3.7775e-06
2990.0 3.8491e-06
3010.0 2.6413e-05
3030.0 2.6921e-05
3050.0 2.7416e-05
3070.0 2.7837e-05
3090.0 2.8185e-05
3110.0 2.8356e-05
3130.0 2.8221e-05
3150.0 2.767e-05
3170.0 2.6482e-05
3190.0 2.4648e-05
3210.0 2.2243e-05
3230.0 1.9584e-05
3250.0 2.1617e-05
3270.0 1.8961e-05
3290.0 2.445e-05
3310.0 1.8684e-05
3330.0 1.8899e-05
3350.0 2.0035e-05
3370.0 2.1461e-05
3390.0 2.3086e-05
3410.0 2.4739e-05
3430.0 2.6491e-05
3450.0 2.8312e-05
3470.0 3.006e-05
3490.0 3.1516e-05
3510.0 3.4588e-05
3530.0 3.9356e-05
3550.0 3.9659e-05
3570.0 3.748e-05
3590.0 4.3344e-05
3610.0 3.7823e-05
3630.0 4.6737e-05
3650.0 5.126e-05
3670.0 5.8376e-05
3690.0 5.6462e-05
3710.0 4.7108e-05
3730.0 5.1925e-05
3750.0 5.2285e-05
3770.0 5.6459e-05
3790.0 5.9453e-05
3810.0 6.7121e-05
3830.0 9.4341e-05
3850.0 0.00011807
3870.0 0.00014053
3890.0 0.00014534
3910.0 0.00013945
3930.0 0.00014081
3950.0 0.00014732
3970.0 0.0001372
3990.0 8.3466e-05
4010.0 5.6438e-05
4030.0 9.3033e-05
4050.0 0.00012646
4070.0 0.00011974
4090.0 7.1329e-05
4110.0 5.6396e-05
4130.0 9.2713e-05
4150.0 0.00010403
4170.0 8.6885e-05
4190.0 7.2882e-05
4210.0 0.00010458
4230.0 9.6176e-05
4250.0 9.2744e-05
4270.0 9.2338e-05
4290.0 8.3201e-05
4310.0 0.00010091
4330.0 0.00011636
4350.0 0.00011989
4370.0 0.00011071
4390.0 0.00011646
4410.0 0.00010952
4430.0 8.2215e-05
4450.0 6.4621e-05
4470.0 7.6891e-05
4490.0 7.2737e-05
4510.0 0.00010476
4530.0 0.00010778
4550.0 0.00010976
4570.0 0.00013697
4590.0 0.00015915
4610.0 0.00018846
4630.0 0.00025042
4650.0 0.00027584
4670.0 0.00027944
4690.0 0.00026784
4710.0 0.00026586
4730.0 0.00023534
4750.0 0.00017379
4770.0 0.00014112
4790.0 0.00011116
4810.0 0.00011956
4830.0 0.00013741
4850.0 0.00013893
4870.0 0.00012483
4890.0 0.00017067
4910.0 0.00017545
4930.0 0.00019009
4950.0 0.00022319
4970.0 0.00023061
4990.0 0.00026231
5010.0 0.00027184
5030.0 0.00025065
5050.0 0.00020058
5070.0 0.00014462
5090.0 0.00012183
5110.0 0.0001235
5130.0 0.00012918
5150.0 0.0001226
5170.0 0.00011798
5190.0 0.00012457
5210.0 0.00012829
5230.0 0.0001415
5250.0 0.00015225
5270.0 0.00014682
5290.0 0.00017021
5310.0 0.00021352
5330.0 0.00023411
5350.0 0.00022091
5370.0 0.00022309
5390.0 0.00024204
5410.0 0.00024341
5430.0 0.00023702
5450.0 0.0002472
5470.0 0.00027434
5490.0 0.00032728
5510.0 0.00039314
5530.0 0.0004109
5550.0 0.00041134
5570.0 0.0004065
5590.0 0.00039045
5610.0 0.00037081
5630.0 0.00037392
5650.0 0.00038914
5670.0 0.00037732
5690.0 0.00034295
5710.0 0.00033901
5730.0 0.0003146
5750.0 0.00028154
5770.0 0.00025148
5790.0 0.00026753
5810.0 0.00028705
5830.0 0.00031742
5850.0 0.00031383
5870.0 0.00030818
5890.0 0.00031769
5910.0 0.00029434
5930.0 0.00027252
5950.0 0.00027394
5970.0 0.00028691
5990.0 0.00025406
6010.0 0.00021521
6030.0 0.00018711
6050.0 0.00016934
6070.0 0.00015965
6090.0 0.00017062
6110.0 0.00018915
6130.0 0.00019001
6150.0 0.00019165
6170.0 0.00020104
6190.0 0.00021695
6210.0 0.00024931
6230.0 0.00029041
6250.0 0.00027076
6270.0 0.00023719
6290.0 0.0002047
6310.0 0.00016972
6330.0 0.00014923
6350.0 0.00014321
6370.0 0.00015293
6390.0 0.00017064
6410.0 0.00020462
6430.0 0.00025136
6450.0 0.0002915
6470.0 0.00032301
6490.0 0.00036787
6510.0 0.00040098
6530.0 0.00038738
6550.0 0.00037057
6570.0 0.00037402
6590.0 0.00037377
6610.0 0.00037049
6630.0 0.00034857
6650.0 0.00031468
6670.0 0.00030406
6690.0 0.00029808
6710.0 0.00030189
6730.0 0.00026401
6750.0 0.00022664
6770.0 0.00022277
6790.0 0.00023759
6810.0 0.00026564
6830.0 0.00026921
6850.0 0.00024744
6870.0 0.00024651
6890.0 0.00024322
6910.0 0.00022909
6930.0 0.00023228
6950.0 0.00022734
6970.0 0.00022424
6990.0 0.0002308
7010.0 0.00024511
7030.0 0.00024132
7050.0 0.00022179
7070.0 0.00021284
7090.0 0.00018807
7110.0 0.00016293
7130.0 0.00016047
7150.0 0.00017035
7170.0 0.00018591
7190.0 0.00018684
7210.0 0.00018144
7230.0 0.00019897
7250.0 0.00021457
7270.0 0.00022254
7290.0 0.00022754
7310.0 0.00022758
7330.0 0.00021436
7350.0 0.00019876
7370.0 0.00018512
7390.0 0.00018143
7410.0 0.00019906
7430.0 0.00023022
7450.0 0.00025279
7470.0 0.00027637
7490.0 0.00032005
7510.0 0.00031515
7530.0 0.00026307
7550.0 0.00022794
7570.0 0.00019075
7590.0 0.00016646
7610.0 0.00016149
7630.0 0.00016006
7650.0 0.00017309
7670.0 0.00019652
7690.0 0.00021531
7710.0 0.00024496
7730.0 0.00025394
7750.0 0.00026241
7770.0 0.00028065
7790.0 0.00029154
7810.0 0.00028671
7830.0 0.00026306
7850.0 0.00026055
7870.0 0.00025325
7890.0 0.00024175
7910.0 0.00022362
7930.0 0.00021138
7950.0 0.00017669
7970.0 0.00017033
7990.0 0.00017084
8010.0 0.00019805
8030.0 0.0001981
8050.0 0.0002086
8070.0 0.00020273
8090.0 0.00020296
8110.0 0.00019906
8130.0 0.00019123
8150.0 0.0001773
8170.0 0.00017522
8190.0 0.00017648
8210.0 0.00017807
8230.0 0.00016054
8250.0 0.00014852
8270.0 0.00013076
8290.0 0.00010961
8310.0 9.1754e-05
8330.0 6.8957e-05
8350.0 5.3592e-05
8370.0 5.0085e-05
8390.0 5.1124e-05
8410.0 5.6752e-05
8430.0 7.2478e-05
8450.0 7.9735e-05
8470.0 8.5973e-05
8490.0 9.7854e-05
8510.0 0.00010588
8530.0 0.00011837
8550.0 0.00013986
8570.0 0.00015592
8590.0 0.00016631
8610.0 0.00018842
8630.0 0.00021684
8650.0 0.00022509
8670.0 0.00022949
8690.0 0.00023286
8710.0 0.00022661
8730.0 0.00021729
8750.0 0.00020067
8770.0 0.00019872
8790.0 0.00019362
8810.0 0.00017833
8830.0 0.00017323
8850.0 0.00015379
8870.0 0.00014371
8890.0 0.0001302
8910.0 0.00014513
8930.0 0.0001337
8950.0 0.00013534
8970.0 0.00013836
8990.0 0.00013578
9010.0 0.00013819
9030.0 0.00013185
9050.0 0.00013137
9070.0 0.00013151
9090.0 0.00013163
9110.0 0.00013184
9130.0 0.00013195
9150.0 0.00013201
9170.0 0.0001318
9190.0 0.0001312
9210.0 0.00013301
9230.0 0.00013268
9250.0 0.00013256
9270.0 0.0001325
9290.0 0.00013247
9310.0 0.00013247
9330.0 0.00013247
9350.0 0.00013249
9370.0 0.00013251
9390.0 0.00013253
9410.0 0.00013254
9430.0 0.00013256
9450.0 0.00013257
9470.0 0.00013258
9490.0 0.0001326
9510.0 0.00013261
9530.0 0.00013261
9550.0 0.00013263
9570.0 0.00013264
9590.0 0.00013266
9610.0 0.00013267
9630.0 0.0001327
9650.0 0.00013272
9670.0 0.00013274
9690.0 0.00013277
9710.0 0.00013281
9730.0 0.00013284
9750.0 0.00013288
9770.0 0.00013294
9790.0 0.00013299
9810.0 0.00013304
9830.0 0.0001331
9850.0 0.00013317
9870.0 0.00013324
9890.0 0.00013332
9910.0 0.0001334
9930.0 0.00013349
9950.0 0.00013345
9970.0 0.00013359
9990.0 0.00013374
10010.0 0.00013387
10030.0 0.000134
10050.0 0.00013408
10070.0 0.00013387
10090.0 0.00013412
10110.0 0.00013437
10130.0 0.00013458
10150.0 0.00013478
10170.0 0.00013496
10190.0 0.00013513
10210.0 0.0001353
10230.0 0.00013547
10250.0 0.00013564
10270.0 0.00013581
10290.0 0.00013599
10310.0 0.00013617
10330.0 0.00013634
10350.0 0.00013653
10370.0 0.00013671
10390.0 0.0001369
10410.0 0.00013708
10430.0 0.00013728
10450.0 0.00013747
10470.0 0.00013765
10490.0 0.00013785
10510.0 0.00013804
10530.0 0.00013822
10550.0 0.00013841
10570.0 0.0001386
10590.0 0.00013879
10610.0 0.00013897
10630.0 0.00013916
10650.0 0.00013934
10670.0 0.00013951
10690.0 0.00013969
10710.0 0.00013987
10730.0 0.00014004
10750.0 0.0001402
10770.0 0.00014036
10790.0 0.00014052
10810.0 0.00014067
10830.0 0.00014082
10850.0 0.00014095
10870.0 0.00014103
10890.0 0.00014105
10910.0 0.00014097
10930.0 0.00014069
10950.0 0.0001401
10970.0 0.00013914
10990.0 0.00013776
11010.0 0.00014077
11030.0 0.00013798
11050.0 0.00013475
11070.0 0.00013104
11090.0 0.00012675
11110.0 0.0001225
11130.0 0.00011826
11150.0 0.00011394
11170.0 0.00010976
11190.0 0.00010599
11210.0 0.00010239
11230.0 9.9018e-05
11250.0 9.6088e-05
11270.0 9.3526e-05
11290.0 9.1189e-05
11310.0 8.9164e-05
11330.0 8.7501e-05
11350.0 8.5991e-05
11370.0 8.4601e-05
11390.0 8.3342e-05
11410.0 8.2134e-05
11430.0 8.0838e-05
11450.0 7.9501e-05
11470.0 7.8113e-05
11490.0 7.6585e-05
11510.0 7.4884e-05
11530.0 7.3141e-05
11550.0 7.1318e-05
11570.0 6.9345e-05
11590.0 6.7338e-05
11610.0 6.5371e-05
11630.0 6.3337e-05
11650.0 6.1284e-05
11670.0 5.9374e-05
11690.0 5.7531e-05
11710.0 5.5708e-05
11730.0 5.3996e-05
11750.0 5.2436e-05
11770.0 5.0904e-05
11790.0 4.9438e-05
11810.0 4.8093e-05
11830.0 4.6812e-05
11850.0 4.5523e-05
11870.0 4.4315e-05
11890.0 4.3173e-05
11910.0 4.2019e-05
11930.0 4.0864e-05
11950.0 3.9759e-05
11970.0 3.8648e-05
11990.0 3.7493e-05
12010.0 3.6372e-05
12030.0 3.5282e-05
12050.0 3.4179e-05
12070.0 3.3083e-05
12090.0 3.2092e-05
12110.0 3.1142e-05
12130.0 3.0242e-05
12150.0 2.9454e-05
12170.0 2.8789e-05
12190.0 2.8215e-05
12210.0 2.7791e-05
12230.0 2.7532e-05
12250.0 2.7425e-05
12270.0 2.749e-05
12290.0 2.7721e-05
12310.0 2.8094e-05
12330.0 2.8636e-05
12350.0 2.9317e-05
12370.0 3.0082e-05
12390.0 3.0943e-05
12410.0 3.192e-05
12430.0 3.2872e-05
12450.0 3.3813e-05
12470.0 3.476e-05
12490.0 3.5654e-05
12510.0 3.6435e-05
12530.0 3.7156e-05
12550.0 3.7792e-05
12570.0 3.8295e-05
12590.0 3.8684e-05
12610.0 3.8978e-05
12630.0 3.9155e-05
12650.0 3.9217e-05
12670.0 3.9191e-05
12690.0 3.9076e-05
12710.0 3.8883e-05
12730.0 3.8626e-05
12750.0 3.8296e-05
12770.0 3.7916e-05
12790.0 3.7501e-05
12810.0 3.7038e-05
12830.0 3.6526e-05
12850.0 3.5998e-05
12870.0 3.5439e-05
12890.0 3.4823e-05
12910.0 3.4175e-05
12930.0 3.3508e-05
12950.0 3.2774e-05
12970.0 3.1979e-05
12990.0 3.1178e-05
13010.0 3.0339e-05
13030.0 2.9442e-05
13050.0 2.8536e-05
13070.0 2.7653e-05
13090.0 2.6739e-05
13110.0 2.5836e-05
13130.0 2.4996e-05
13150.0 2.4202e-05
13170.0 2.3436e-05
13190.0 2.2773e-05
13210.0 2.2212e-05
13230.0 2.1725e-05
13250.0 2.1332e-05
13270.0 2.1047e-05
13290.0 2.0845e-05
13310.0 2.0724e-05
13330.0 2.0681e-05
13350.0 2.0696e-05
13370.0 2.0759e-05
13390.0 2.0856e-05
13410.0 2.0961e-05
13430.0 2.1067e-05
13450.0 2.1166e-05
13470.0 2.1238e-05
13490.0 2.1281e-05
13510.0 2.1294e-05
13530.0 2.127e-05
13550.0 2.1215e-05
13570.0 2.1133e-05
13590.0 2.1028e-05
13610.0 2.0911e-05
13630.0 2.0791e-05
13650.0 2.0667e-05
13670.0 2.055e-05
13690.0 2.0445e-05
13710.0 2.0351e-05
13730.0 2.0267e-05
13750.0 2.0199e-05
13770.0 2.0139e-05
13790.0 2.0083e-05
13810.0 2.0029e-05
13830.0 1.9971e-05
13850.0 1.9903e-05
13870.0 1.982e-05
13890.0 1.9722e-05
13910.0 1.9607e-05
13930.0 1.9469e-05
13950.0 1.9312e-05
13970.0 1.9148e-05
13990.0 1.8969e-05
14010.0 1.8782e-05
14030.0 1.8601e-05
14050.0 1.8426e-05
14070.0 1.8253e-05
14090.0 1.81e-05
14110.0 1.7966e-05
14130.0 1.7849e-05
14150.0 1.775e-05
14170.0 1.7673e-05
14190.0 1.7613e-05
14210.0 1.7571e-05
14230.0 1.7546e-05
14250.0 1.7537e-05
14270.0 1.7547e-05
14290.0 1.7577e-05
14310.0 1.7624e-05
14330.0 1.769e-05
14350.0 1.778e-05
14370.0 1.7887e-05
14390.0 1.8007e-05
14410.0 1.815e-05
14430.0 1.8309e-05
14450.0 1.8474e-05
14470.0 1.8649e-05
14490.0 1.8843e-05
14510.0 1.9038e-05
14530.0 1.9235e-05
14550.0 1.9452e-05
14570.0 1.9686e-05
14590.0 1.9928e-05
14610.0 2.0199e-05
14630.0 2.0512e-05
14650.0 2.0851e-05
14670.0 2.1222e-05
14690.0 2.1648e-05
14710.0 2.2128e-05
14730.0 2.2619e-05
14750.0 2.316e-05
14770.0 2.3751e-05
14790.0 2.4352e-05
14810.0 2.4954e-05
14830.0 2.5604e-05
14850.0 2.6236e-05
14870.0 2.6826e-05
14890.0 2.7393e-05
14910.0 2.7929e-05
14930.0 2.8386e-05
14950.0 2.8765e-05
14970.0 2.9083e-05
14990.0 2.9313e-05
15010.0 2.9457e-05
15030.0 2.9533e-05
15050.0 2.955e-05
15070.0 2.9519e-05
15090.0 2.9457e-05
15110.0 2.9374e-05
15130.0 2.9279e-05
15150.0 2.9181e-05
15170.0 2.9077e-05
15190.0 2.8971e-05
15210.0 2.8868e-05
15230.0 2.8765e-05
15250.0 2.8659e-05
15270.0 2.8555e-05
15290.0 2.8455e-05
15310.0 2.8353e-05
15330.0 2.825e-05
15350.0 2.815e-05
15370.0 2.8051e-05
15390.0 2.7948e-05
15410.0 2.7848e-05
15430.0 2.775e-05
15450.0 2.7651e-05
15470.0 2.7551e-05
15490.0 2.7454e-05
15510.0 2.7358e-05
15530.0 2.726e-05
15550.0 2.7163e-05
15570.0 2.7069e-05
15590.0 2.6972e-05
15610.0 2.6874e-05
15630.0 2.6781e-05
15650.0 2.6687e-05
15670.0 2.6591e-05
15690.0 2.6497e-05
15710.0 2.6406e-05
15730.0 2.6312e-05
15750.0 2.6217e-05
15770.0 2.6126e-05
15790.0 2.6035e-05
15810.0 2.594e-05
15830.0 2.5849e-05
15850.0 2.5759e-05
15870.0 2.5668e-05
15890.0 2.5576e-05
15910.0 2.5488e-05
15930.0 2.5398e-05
15950.0 2.5306e-05
15970.0 2.5217e-05
15990.0 2.5129e-05
16010.0 2.5038e-05
16030.0 2.4947e-05
16050.0 2.4861e-05
16070.0 2.4773e-05
16090.0 2.4684e-05
16110.0 2.4596e-05
16130.0 2.4511e-05
16150.0 2.442e-05
16170.0 2.4332e-05
16190.0 2.4246e-05
16210.0 2.4159e-05
16230.0 2.407e-05
16250.0 2.3984e-05
16270.0 2.3899e-05
16290.0 2.3811e-05
16310.0 2.3724e-05
16330.0 2.3639e-05
16350.0 2.3553e-05
16370.0 2.3463e-05
16390.0 2.3378e-05
16410.0 2.3294e-05
16430.0 2.3206e-05
16450.0 2.312e-05
16470.0 2.3037e-05
16490.0 2.295e-05
16510.0 2.2862e-05
16530.0 2.2778e-05
16550.0 2.2693e-05
16570.0 2.2605e-05
16590.0 2.2518e-05
16610.0 2.2435e-05
16630.0 2.2349e-05
16650.0 2.2262e-05
16670.0 2.2178e-05
16690.0 2.2094e-05
16710.0 2.2005e-05
16730.0 2.1919e-05
16750.0 2.1835e-05
16770.0 2.1749e-05
16790.0 2.1661e-05
16810.0 2.1577e-05
16830.0 2.1492e-05
16850.0 2.1404e-05
16870.0 2.1318e-05
16890.0 2.1235e-05
16910.0 2.1147e-05
16930.0 2.1058e-05
16950.0 2.0974e-05
16970.0 2.0888e-05
16990.0 2.08e-05
17010.0 2.0714e-05
17030.0 2.063e-05
17050.0 2.0542e-05
17070.0 2.0454e-05
17090.0 2.0369e-05
17110.0 2.0282e-05
17130.0 2.0192e-05
17150.0 2.0106e-05
17170.0 2.0021e-05
17190.0 1.9932e-05
17210.0 1.9844e-05
17230.0 1.9759e-05
17250.0 1.9672e-05
17270.0 1.9582e-05
17290.0 1.9494e-05
17310.0 1.9408e-05
17330.0 1.9319e-05
17350.0 1.9229e-05
17370.0 1.9144e-05
17390.0 1.9056e-05
17410.0 1.8966e-05
17430.0 1.8879e-05
17450.0 1.8792e-05
17470.0 1.8701e-05
17490.0 1.8611e-05
17510.0 1.8525e-05
17530.0 1.8436e-05
17550.0 1.8345e-05
17570.0 1.8257e-05
17590.0 1.817e-05
17610.0 1.8079e-05
17630.0 1.799e-05
17650.0 1.7903e-05
17670.0 1.7813e-05
17690.0 1.772e-05
17710.0 1.7632e-05
17730.0 1.7544e-05
17750.0 1.7453e-05
17770.0 1.7364e-05
17790.0 1.7277e-05
17810.0 1.7186e-05
17830.0 1.7094e-05
17850.0 1.7006e-05
17870.0 1.6917e-05
17890.0 1.6825e-05
17910.0 1.6734e-05
17930.0 1.6647e-05
17950.0 1.6556e-05
17970.0 1.6465e-05
17990.0 1.6377e-05
18010.0 1.6288e-05
18030.0 1.6195e-05
18050.0 1.6105e-05
18070.0 1.6016e-05
18090.0 1.5925e-05
18110.0 1.5833e-05
18130.0 1.5745e-05
18150.0 1.5656e-05
18170.0 1.5565e-05
18190.0 1.5475e-05
18210.0 1.5387e-05
18230.0 1.5295e-05
18250.0 1.5203e-05
18270.0 1.5115e-05
18290.0 1.5025e-05
18310.0 1.4934e-05
18330.0 1.4845e-05
18350.0 1.4757e-05
18370.0 1.4666e-05
18390.0 1.4575e-05
18410.0 1.4487e-05
18430.0 1.4398e-05
18450.0 1.4305e-05
18470.0 1.4216e-05
18490.0 1.4129e-05
18510.0 1.4039e-05
18530.0 1.3949e-05
18550.0 1.3862e-05
18570.0 1.3772e-05
18590.0 1.3681e-05
18610.0 1.3593e-05
18630.0 1.3505e-05
18650.0 1.3415e-05
18670.0 1.3325e-05
18690.0 1.3239e-05
18710.0 1.3151e-05
18730.0 1.3061e-05
18750.0 1.2974e-05
18770.0 1.2888e-05
18790.0 1.2797e-05
18810.0 1.2708e-05
18830.0 1.2622e-05
18850.0 1.2535e-05
18870.0 1.2446e-05
18890.0 1.236e-05
18910.0 1.2274e-05
18930.0 1.2185e-05
18950.0 1.2098e-05
18970.0 1.2013e-05
18990.0 1.1926e-05
19010.0 1.1837e-05
19030.0 1.1752e-05
19050.0 1.1667e-05
19070.0 1.158e-05
19090.0 1.1494e-05
19110.0 1.1411e-05
19130.0 1.1324e-05
19150.0 1.1238e-05
19170.0 1.1154e-05
19190.0 1.1069e-05
19210.0 1.0983e-05
19230.0 1.0897e-05
19250.0 1.0816e-05
19270.0 1.0731e-05
19290.0 1.0646e-05
19310.0 1.0563e-05
19330.0 1.0481e-05
19350.0 1.0394e-05
19370.0 1.0311e-05
19390.0 1.023e-05
19410.0 1.0146e-05
19430.0 1.0062e-05
19450.0 9.9813e-06
19470.0 9.8997e-06
19490.0 9.816e-06
19510.0 9.7344e-06
19530.0 9.6545e-06
19550.0 9.5713e-06
19570.0 9.4881e-06
19590.0 9.4088e-06
19610.0 9.3284e-06
19630.0 9.2461e-06
19650.0 9.1663e-06
19670.0 9.0881e-06
19690.0 9.0064e-06
19710.0 8.9256e-06
19730.0 8.8474e-06
19750.0 8.7681e-06
19770.0 8.6862e-06
19790.0 8.6078e-06
19810.0 8.5306e-06
19830.0 8.4506e-06
19850.0 8.3707e-06
19870.0 8.2926e-06
19890.0 8.2098e-06
19910.0 8.1205e-06
19930.0 8.0275e-06
19950.0 7.9249e-06
19970.0 7.804e-06
19990.0 7.6654e-06
20010.0 7.5154e-06
20030.0 7.3429e-06
20050.0 7.1522e-06
20070.0 6.9579e-06
20090.0 6.7617e-06
20110.0 6.5558e-06
20130.0 6.3636e-06
20150.0 6.1884e-06
20170.0 6.0219e-06
20190.0 5.8682e-06
20210.0 5.7361e-06
20230.0 5.619e-06
20250.0 5.513e-06
20270.0 5.425e-06
20290.0 5.3532e-06
20310.0 5.2934e-06
20330.0 5.2462e-06
20350.0 5.2148e-06
20370.0 5.1948e-06
20390.0 5.1866e-06
20410.0 5.1905e-06
20430.0 5.2053e-06
20450.0 5.2329e-06
20470.0 5.2728e-06
20490.0 5.3227e-06
20510.0 5.3842e-06
20530.0 5.4597e-06
20550.0 5.5445e-06
20570.0 5.6354e-06
20590.0 5.7387e-06
20610.0 5.8499e-06
20630.0 5.9625e-06
20650.0 6.08e-06
20670.0 6.2053e-06
20690.0 6.3246e-06
20710.0 6.4396e-06
20730.0 6.5543e-06
20750.0 6.6641e-06
20770.0 6.7625e-06
20790.0 6.8567e-06
20810.0 6.947e-06
20830.0 7.0286e-06
20850.0 7.1041e-06
20870.0 7.1796e-06
20890.0 7.2527e-06
20910.0 7.3211e-06
20930.0 7.3912e-06
20950.0 7.464e-06
20970.0 7.5354e-06
20990.0 7.6063e-06
21010.0 7.681e-06
21030.0 7.7532e-06
21050.0 7.8202e-06
21070.0 7.8841e-06
21090.0 7.9436e-06
21110.0 7.9921e-06
21130.0 8.0313e-06
21150.0 8.0619e-06
21170.0 8.0811e-06
21190.0 8.0889e-06
21210.0 8.0862e-06
21230.0 8.0722e-06
21250.0 8.0483e-06
21270.0 8.0155e-06
21290.0 7.9729e-06
21310.0 7.9228e-06
21330.0 7.8685e-06
21350.0 7.8071e-06
21370.0 7.7402e-06
21390.0 7.6719e-06
21410.0 7.6017e-06
21430.0 7.5259e-06
21450.0 7.452e-06
21470.0 7.3808e-06
21490.0 7.3089e-06
21510.0 7.2384e-06
21530.0 7.1738e-06
21550.0 7.1125e-06
21570.0 7.0538e-06
21590.0 7.0021e-06
21610.0 6.9576e-06
21630.0 6.9188e-06
21650.0 6.8871e-06
21670.0 6.8655e-06
21690.0 6.8519e-06
21710.0 6.8473e-06
21730.0 6.8522e-06
21750.0 6.866e-06
21770.0 6.8906e-06
21790.0 6.9254e-06
21810.0 6.9683e-06
21830.0 7.0206e-06
21850.0 7.0843e-06
21870.0 7.1548e-06
21890.0 7.2304e-06
21910.0 7.3164e-06
21930.0 7.409e-06
21950.0 7.5035e-06
21970.0 7.6039e-06
21990.0 7.7131e-06
22010.0 7.8196e-06
22030.0 7.9257e-06
22050.0 8.0356e-06
22070.0 8.1444e-06
22090.0 8.2458e-06
22110.0 8.3463e-06
22130.0 8.4443e-06
22150.0 8.5328e-06
22170.0 8.6127e-06
22190.0 8.6873e-06
22210.0 8.7506e-06
22230.0 8.7996e-06
22250.0 8.8377e-06
22270.0 8.8628e-06
22290.0 8.8728e-06
22310.0 8.8685e-06
22330.0 8.8482e-06
22350.0 8.8118e-06
22370.0 8.7609e-06
22390.0 8.6935e-06
22410.0 8.6075e-06
22430.0 8.5109e-06
22450.0 8.4014e-06
22470.0 8.2747e-06
22490.0 8.1373e-06
22510.0 7.9946e-06
22530.0 7.8365e-06
22550.0 7.6672e-06
22570.0 7.4988e-06
22590.0 7.3258e-06
