#lamb flux
1010.0 2.0272e-05
1030.0 2.2053e-05
1050.0 2.4155e-05
1070.0 2.6521e-05
1090.0 2.9194e-05
1110.0 3.1938e-05
1130.0 3.4702e-05
1150.0 3.7599e-05
1170.0 4.0587e-05
1190.0 4.3416e-05
1210.0 4.6279e-05
1230.0 4.923e-05
1250.0 5.2114e-05
1270.0 5.4903e-05
1290.0 5.7838e-05
1310.0 6.0757e-05
1330.0 6.3541e-05
1350.0 6.6345e-05
1370.0 6.923e-05
1390.0 7.2033e-05
1410.0 7.4745e-05
1430.0 7.7582e-05
1450.0 8.0419e-05
1470.0 8.3162e-05
1490.0 8.5942e-05
1510.0 8.889e-05
1530.0 9.1694e-05
1550.0 9.4472e-05
1570.0 9.7362e-05
1590.0 0.00010027
1610.0 0.00010307
1630.0 0.00010598
1650.0 0.00010898
1670.0 0.0001119
1690.0 0.0001148
1710.0 0.00011782
1730.0 0.00012087
1750.0 0.00012375
1770.0 0.00012672
1790.0 0.00012974
1810.0 0.00013267
1830.0 0.00013552
1850.0 0.00013853
1870.0 0.00014143
1890.0 0.0001442
1910.0 0.00014699
1930.0 0.00014979
1950.0 0.0001524
1970.0 0.00015491
1990.0 0.00015746
2010.0 0.00015989
2030.0 0.00016215
2050.0 0.00016442
2070.0 0.00016669
2090.0 0.00016872
2110.0 0.00017068
2130.0 0.00017266
2150.0 0.00017452
2170.0 0.00017622
2190.0 0.00017797
2210.0 0.00017969
2230.0 0.00018128
2250.0 0.00018282
2270.0 0.00018446
2290.0 0.000186
2310.0 0.00018742
2330.0 0.00018892
2350.0 0.00019043
2370.0 0.00019184
2390.0 0.0001933
2410.0 0.00019491
2430.0 0.00019649
2450.0 0.00019809
2470.0 0.00019986
2490.0 0.00020184
2510.0 0.00020394
2530.0 0.00020672
2550.0 0.00021098
2570.0 0.00021758
2590.0 0.00022765
2610.0 0.00024406
2630.0 0.00026777
2650.0 0.00029778
2670.0 0.00033467
2690.0 0.00037719
2710.0 0.00041933
2730.0 0.00045752
2750.0 0.00049089
2770.0 0.00051455
2790.0 0.00052717
2810.0 0.00052991
2830.0 0.00052297
2850.0 0.00050912
2870.0 0.00049067
2890.0 0.00046836
2910.0 0.00044423
2930.0 0.00042036
2950.0 0.00039527
2970.0 0.00036956
2990.0 0.00034488
3010.0 0.00046649
3030.0 0.00043004
3050.0 0.00039403
3070.0 0.00036092
3090.0 0.0003278
3110.0 0.00029616
3130.0 0.0002689
3150.0 0.0002505
3170.0 0.00023582
3190.0 0.00038924
3210.0 0.0010955
3230.0 0.0022396
3250.0 0.0028419
3270.0 0.0025095
3290.0 0.0019262
3310.0 0.0015941
3330.0 0.0014936
3350.0 0.0015337
3370.0 0.001615
3390.0 0.0017016
3410.0 0.001789
3430.0 0.0018708
3450.0 0.0019594
3470.0 0.0020559
3490.0 0.0021216
3510.0 0.002054
3530.0 0.002098
3550.0 0.0026313
3570.0 0.0033044
3590.0 0.003649
3610.0 0.0037632
3630.0 0.0038562
3650.0 0.003851
3670.0 0.0040822
3690.0 0.004885
3710.0 0.0057886
3730.0 0.0063795
3750.0 0.0067993
3770.0 0.0068825
3790.0 0.0066161
3810.0 0.0061159
3830.0 0.005347
3850.0 0.0045329
3870.0 0.0041127
3890.0 0.0046007
3910.0 0.0058195
3930.0 0.0070384
3950.0 0.0077628
3970.0 0.0080692
3990.0 0.0084059
4010.0 0.0086004
4030.0 0.0077594
4050.0 0.0061235
4070.0 0.0052844
4090.0 0.00557
4110.0 0.0061321
4130.0 0.0064477
4150.0 0.0064823
4170.0 0.0063345
4190.0 0.0062268
4210.0 0.0063846
4230.0 0.0067569
4250.0 0.0070597
4270.0 0.0071723
4290.0 0.0070734
4310.0 0.007119
4330.0 0.0075512
4350.0 0.0080623
4370.0 0.008025
4390.0 0.0074429
4410.0 0.0065693
4430.0 0.0054996
4450.0 0.0047445
4470.0 0.0047199
4490.0 0.0051556
4510.0 0.0057127
4530.0 0.0063153
4550.0 0.0072586
4570.0 0.0090708
4590.0 0.011654
4610.0 0.013766
4630.0 0.014831
4650.0 0.015707
4670.0 0.016557
4690.0 0.016194
4710.0 0.014123
4730.0 0.011383
4750.0 0.0091757
4770.0 0.0078439
4790.0 0.0073531
4810.0 0.0073514
4830.0 0.0078657
4850.0 0.0088933
4870.0 0.0098136
4890.0 0.010114
4910.0 0.010351
4930.0 0.011323
4950.0 0.012634
4970.0 0.01331
4990.0 0.012942
5010.0 0.011592
5030.0 0.009708
5050.0 0.008114
5070.0 0.0071389
5090.0 0.006739
5110.0 0.006739
5130.0 0.006804
5150.0 0.0067435
5170.0 0.0065947
5190.0 0.0066675
5210.0 0.0071833
5230.0 0.0081322
5250.0 0.0095497
5270.0 0.011045
5290.0 0.012099
5310.0 0.012969
5330.0 0.014064
5350.0 0.014911
5370.0 0.01484
5390.0 0.014139
5410.0 0.013642
5430.0 0.014175
5450.0 0.015969
5470.0 0.018187
5490.0 0.019788
5510.0 0.020388
5530.0 0.020269
5550.0 0.019752
5570.0 0.019083
5590.0 0.018455
5610.0 0.018029
5630.0 0.017915
5650.0 0.017677
5670.0 0.016702
5690.0 0.015231
5710.0 0.013903
5730.0 0.01297
5750.0 0.012701
5770.0 0.013074
5790.0 0.013508
5810.0 0.013719
5830.0 0.013813
5850.0 0.013647
5870.0 0.013315
5890.0 0.013306
5910.0 0.013587
5930.0 0.013488
5950.0 0.012679
5970.0 0.011302
5990.0 0.0097033
6010.0 0.008495
6030.0 0.0081363
6050.0 0.0085792
6070.0 0.008992
6090.0 0.0086904
6110.0 0.0081989
6130.0 0.0083656
6150.0 0.0090718
6170.0 0.0097202
6190.0 0.010091
6210.0 0.010206
6230.0 0.0099278
6250.0 0.0090458
6270.0 0.0077856
6290.0 0.0067492
6310.0 0.0063819
6330.0 0.0065759
6350.0 0.0069134
6370.0 0.0073476
6390.0 0.0082765
6410.0 0.0096726
6430.0 0.010834
6450.0 0.011413
6470.0 0.011734
6490.0 0.011968
6510.0 0.012065
6530.0 0.01213
6550.0 0.012293
6570.0 0.012498
6590.0 0.012637
6610.0 0.012486
6630.0 0.011926
6650.0 0.011079
6670.0 0.010271
6690.0 0.0097506
6710.0 0.0093568
6730.0 0.0089399
6750.0 0.0087401
6770.0 0.0089406
6790.0 0.0092278
6810.0 0.0093166
6830.0 0.0091687
6850.0 0.0088099
6870.0 0.0084445
6890.0 0.0082392
6910.0 0.0082619
6930.0 0.0084019
6950.0 0.0085128
6970.0 0.0086099
6990.0 0.0085828
7010.0 0.0083108
7030.0 0.0077466
7050.0 0.0070118
7070.0 0.0064973
7090.0 0.0064292
7110.0 0.0065344
7130.0 0.0063103
7150.0 0.0058603
7170.0 0.0058029
7190.0 0.0063211
7210.0 0.0070474
7230.0 0.0076364
7250.0 0.007877
7270.0 0.0077061
7290.0 0.0073095
7310.0 0.0070062
7330.0 0.0070173
7350.0 0.0071866
7370.0 0.0073236
7390.0 0.0076387
7410.0 0.0082698
7430.0 0.0089923
7450.0 0.0095533
7470.0 0.0097162
7490.0 0.0092508
7510.0 0.0085707
7530.0 0.0081688
7550.0 0.0077152
7570.0 0.0072428
7590.0 0.0069949
7610.0 0.0069711
7630.0 0.0071821
7650.0 0.0076476
7670.0 0.0082463
7690.0 0.0087831
7710.0 0.0091563
7730.0 0.0094615
7750.0 0.0097038
7770.0 0.0097911
7790.0 0.009895
7810.0 0.0098659
7830.0 0.0095206
7850.0 0.0091452
7870.0 0.0089188
7890.0 0.008882
7910.0 0.0088597
7930.0 0.0086242
7950.0 0.0083074
7970.0 0.0079801
7990.0 0.0076962
8010.0 0.0073084
8030.0 0.0072953
8050.0 0.007258
8070.0 0.0071367
8090.0 0.0070432
8110.0 0.006911
8130.0 0.006893
8150.0 0.0068189
8170.0 0.0066769
8190.0 0.0064685
8210.0 0.0062358
8230.0 0.0060166
8250.0 0.0059272
8270.0 0.0055676
8290.0 0.0048193
8310.0 0.0039913
8330.0 0.003427
8350.0 0.0032782
8370.0 0.0036211
8390.0 0.0041232
8410.0 0.0043875
8430.0 0.00454
8450.0 0.0048372
8470.0 0.0052061
8490.0 0.0057105
8510.0 0.0062953
8530.0 0.0069027
8550.0 0.0073787
8570.0 0.007724
8590.0 0.0079759
8610.0 0.0081096
8630.0 0.0080628
8650.0 0.0079051
8670.0 0.0078962
8690.0 0.0082791
8710.0 0.008804
8730.0 0.0090426
8750.0 0.0089557
8770.0 0.0090252
8790.0 0.0090062
8810.0 0.008591
8830.0 0.0079536
8850.0 0.0071627
8870.0 0.0065598
8890.0 0.0063654
8910.0 0.0062415
8930.0 0.005831
8950.0 0.0053857
8970.0 0.0051975
8990.0 0.0052019
9010.0 0.005105
9030.0 0.0050144
9050.0 0.0049679
9070.0 0.0049432
9090.0 0.0049215
9110.0 0.0049005
9130.0 0.0048795
9150.0 0.0048591
9170.0 0.004838
9190.0 0.0048206
9210.0 0.00481
9230.0 0.004786
9250.0 0.0047641
9270.0 0.0047437
9290.0 0.0047243
9310.0 0.0047052
9330.0 0.0046867
9350.0 0.004669
9370.0 0.0046515
9390.0 0.0046339
9410.0 0.0046168
9430.0 0.0045989
9450.0 0.0045749
9470.0 0.0045534
9490.0 0.0045436
9510.0 0.0045307
9530.0 0.0045171
9550.0 0.0045026
9570.0 0.0044877
9590.0 0.004473
9610.0 0.0044582
9630.0 0.0044432
9650.0 0.0044285
9670.0 0.0044142
9690.0 0.0043997
9710.0 0.0043852
9730.0 0.0043712
9750.0 0.0043572
9770.0 0.0043428
9790.0 0.0043289
9810.0 0.0043151
9830.0 0.0043012
9850.0 0.0042871
9870.0 0.0042736
9890.0 0.0042599
9910.0 0.004246
9930.0 0.0042321
9950.0 0.0042029
9970.0 0.0041934
9990.0 0.004183
10010.0 0.0041725
10030.0 0.0041605
10050.0 0.0041471
10070.0 0.0041338
10090.0 0.0041206
10110.0 0.004105
10130.0 0.0040857
10150.0 0.0040722
10170.0 0.004059
10190.0 0.0040439
10210.0 0.0040296
10230.0 0.0040153
10250.0 0.0039993
10270.0 0.0039832
10290.0 0.003968
10310.0 0.0039513
10330.0 0.0039333
10350.0 0.0039166
10370.0 0.0038997
10390.0 0.0038813
10410.0 0.0038628
10430.0 0.0038456
10450.0 0.0038267
10470.0 0.0038069
10490.0 0.0037879
10510.0 0.0037687
10530.0 0.003747
10550.0 0.0037259
10570.0 0.0037058
10590.0 0.0036841
10610.0 0.0036613
10630.0 0.0036397
10650.0 0.0036174
10670.0 0.003593
10690.0 0.003569
10710.0 0.0035455
10730.0 0.0035203
10750.0 0.0034935
10770.0 0.0034687
10790.0 0.0034429
10810.0 0.0034154
10830.0 0.0033881
10850.0 0.0033616
10870.0 0.0033322
10890.0 0.0033023
10910.0 0.0032734
10930.0 0.0032436
10950.0 0.0032116
10970.0 0.00318
10990.0 0.0031493
11010.0 0.0033731
11030.0 0.0033389
11050.0 0.003306
11070.0 0.0032725
11090.0 0.0032367
11110.0 0.0032033
11130.0 0.0031707
11150.0 0.0031368
11170.0 0.0031031
11190.0 0.0030714
11210.0 0.003039
11230.0 0.0030059
11250.0 0.0029745
11270.0 0.0029441
11290.0 0.0029129
11310.0 0.0028822
11330.0 0.0028539
11350.0 0.0028252
11370.0 0.0027961
11390.0 0.002768
11410.0 0.0027401
11430.0 0.0027098
11450.0 0.0026791
11470.0 0.0026481
11490.0 0.0026147
11510.0 0.0025784
11530.0 0.0025416
11550.0 0.0025032
11570.0 0.0024613
11590.0 0.002418
11610.0 0.0023744
11630.0 0.002328
11650.0 0.0022794
11670.0 0.0022322
11690.0 0.0021845
11710.0 0.0021352
11730.0 0.0020865
11750.0 0.0020398
11770.0 0.0019918
11790.0 0.0019437
11810.0 0.0018975
11830.0 0.0018518
11850.0 0.0018046
11870.0 0.0017593
11890.0 0.0017159
11910.0 0.0016721
11930.0 0.0016286
11950.0 0.0015877
11970.0 0.0015476
11990.0 0.0015074
12010.0 0.0014696
12030.0 0.0014341
12050.0 0.0013994
12070.0 0.0013662
12090.0 0.0013367
12110.0 0.0013091
12130.0 0.0012832
12150.0 0.0012604
12170.0 0.0012405
12190.0 0.0012226
12210.0 0.0012078
12230.0 0.0011962
12250.0 0.0011874
12270.0 0.0011815
12290.0 0.0011785
12310.0 0.0011779
12330.0 0.0011801
12350.0 0.0011845
12370.0 0.0011904
12390.0 0.0011982
12410.0 0.001208
12430.0 0.001218
12450.0 0.0012284
12470.0 0.0012398
12490.0 0.0012511
12510.0 0.0012614
12530.0 0.0012718
12550.0 0.0012817
12570.0 0.0012901
12590.0 0.0012971
12610.0 0.0013031
12630.0 0.0013073
12650.0 0.0013089
12670.0 0.0013087
12690.0 0.0013063
12710.0 0.0013013
12730.0 0.001294
12750.0 0.0012842
12770.0 0.0012721
12790.0 0.001258
12810.0 0.0012418
12830.0 0.0012236
12850.0 0.0012044
12870.0 0.0011844
12890.0 0.0011631
12910.0 0.0011415
12930.0 0.0011202
12950.0 0.0010985
12970.0 0.0010767
12990.0 0.0010562
13010.0 0.0010361
13030.0 0.0010162
13050.0 0.00099718
13070.0 0.00097927
13090.0 0.0009615
13110.0 0.00094426
13130.0 0.00092801
13150.0 0.00091232
13170.0 0.00089668
13190.0 0.00088196
13210.0 0.00086807
13230.0 0.00085441
13250.0 0.00084122
13270.0 0.00082889
13290.0 0.00081696
13310.0 0.00080525
13330.0 0.00079427
13350.0 0.0007839
13370.0 0.00077381
13390.0 0.00076411
13410.0 0.0007552
13430.0 0.00074661
13450.0 0.0007383
13470.0 0.00073048
13490.0 0.0007231
13510.0 0.00071576
13530.0 0.0007087
13550.0 0.00070197
13570.0 0.0006953
13590.0 0.00068861
13610.0 0.00068208
13630.0 0.00067566
13650.0 0.00066907
13670.0 0.00066249
13690.0 0.00065605
13710.0 0.00064956
13730.0 0.00064289
13750.0 0.00063653
13770.0 0.00063028
13790.0 0.00062402
13810.0 0.00061792
13830.0 0.00061215
13850.0 0.00060644
13870.0 0.00060084
13890.0 0.00059557
13910.0 0.00059052
13930.0 0.0005855
13950.0 0.00058067
13970.0 0.00057614
13990.0 0.0005716
14010.0 0.00056705
14030.0 0.00056263
14050.0 0.00055823
14070.0 0.00055357
14090.0 0.00054893
14110.0 0.0005443
14130.0 0.0005395
14150.0 0.00053453
14170.0 0.00052972
14190.0 0.00052493
14210.0 0.00052005
14230.0 0.00051537
14250.0 0.00051099
14270.0 0.00050671
14290.0 0.00050268
14310.0 0.00049918
14330.0 0.00049605
14350.0 0.00049322
14370.0 0.00049086
14390.0 0.00048895
14410.0 0.0004873
14430.0 0.00048597
14450.0 0.00048495
14470.0 0.00048413
14490.0 0.00048343
14510.0 0.00048288
14530.0 0.00048244
14550.0 0.00048206
14570.0 0.00048175
14590.0 0.00048158
14610.0 0.00048154
14630.0 0.00048172
14650.0 0.00048222
14670.0 0.00048312
14690.0 0.00048455
14710.0 0.00048666
14730.0 0.00048944
14750.0 0.0004931
14770.0 0.00049785
14790.0 0.0005036
14810.0 0.00051036
14830.0 0.00051878
14850.0 0.00052847
14870.0 0.00053908
14890.0 0.00055098
14910.0 0.0005641
14930.0 0.00057731
14950.0 0.00059025
14970.0 0.00060309
14990.0 0.00061464
15010.0 0.00062436
15030.0 0.00063254
15050.0 0.00063919
15070.0 0.00064412
15090.0 0.00064802
15110.0 0.00065124
15130.0 0.00065401
15150.0 0.00065654
15170.0 0.00065899
15190.0 0.00066143
15210.0 0.00066389
15230.0 0.00066639
15250.0 0.00066894
15270.0 0.00067154
15290.0 0.0006742
15310.0 0.0006769
15330.0 0.00067965
15350.0 0.00068245
15370.0 0.0006853
15390.0 0.00068819
15410.0 0.00069113
15430.0 0.00069412
15450.0 0.00069715
15470.0 0.00070023
15490.0 0.00070335
15510.0 0.00070652
15530.0 0.00070973
15550.0 0.00071297
15570.0 0.00071627
15590.0 0.00071959
15610.0 0.00072296
15630.0 0.00072637
15650.0 0.00072981
15670.0 0.00073329
15690.0 0.0007368
15710.0 0.00074035
15730.0 0.00074393
15750.0 0.00074755
15770.0 0.00075119
15790.0 0.00075487
15810.0 0.00075857
15830.0 0.0007623
15850.0 0.00076607
15870.0 0.00076985
15890.0 0.00077366
15910.0 0.0007775
15930.0 0.00078135
15950.0 0.00078523
15970.0 0.00078913
15990.0 0.00079304
16010.0 0.00079698
16030.0 0.00080092
16050.0 0.00080489
16070.0 0.00080887
16090.0 0.00081286
16110.0 0.00081686
16130.0 0.00082088
16150.0 0.00082489
16170.0 0.00082892
16190.0 0.00083295
16210.0 0.00083699
16230.0 0.00084103
16250.0 0.00084507
16270.0 0.00084911
16290.0 0.00085315
16310.0 0.00085718
16330.0 0.00086121
16350.0 0.00086523
16370.0 0.00086924
16390.0 0.00087325
16410.0 0.00087725
16430.0 0.00088123
16450.0 0.0008852
16470.0 0.00088915
16490.0 0.00089309
16510.0 0.000897
16530.0 0.0009009
16550.0 0.00090478
16570.0 0.00090862
16590.0 0.00091245
16610.0 0.00091625
16630.0 0.00092002
16650.0 0.00092376
16670.0 0.00092747
16690.0 0.00093115
16710.0 0.00093479
16730.0 0.00093839
16750.0 0.00094196
16770.0 0.00094549
16790.0 0.00094898
16810.0 0.00095243
16830.0 0.00095583
16850.0 0.00095918
16870.0 0.00096249
16890.0 0.00096576
16910.0 0.00096897
16930.0 0.00097212
16950.0 0.00097523
16970.0 0.00097829
16990.0 0.00098128
17010.0 0.00098422
17030.0 0.00098711
17050.0 0.00098993
17070.0 0.00099269
17090.0 0.00099539
17110.0 0.00099803
17130.0 0.0010006
17150.0 0.0010031
17170.0 0.0010055
17190.0 0.0010079
17210.0 0.0010102
17230.0 0.0010124
17250.0 0.0010146
17270.0 0.0010167
17290.0 0.0010187
17310.0 0.0010206
17330.0 0.0010225
17350.0 0.0010243
17370.0 0.001026
17390.0 0.0010276
17410.0 0.0010292
17430.0 0.0010306
17450.0 0.001032
17470.0 0.0010333
17490.0 0.0010345
17510.0 0.0010357
17530.0 0.0010367
17550.0 0.0010377
17570.0 0.0010386
17590.0 0.0010394
17610.0 0.0010401
17630.0 0.0010408
17650.0 0.0010413
17670.0 0.0010418
17690.0 0.0010422
17710.0 0.0010425
17730.0 0.0010427
17750.0 0.0010428
17770.0 0.0010428
17790.0 0.0010428
17810.0 0.0010426
17830.0 0.0010424
17850.0 0.0010421
17870.0 0.0010417
17890.0 0.0010412
17910.0 0.0010406
17930.0 0.0010399
17950.0 0.0010392
17970.0 0.0010383
17990.0 0.0010374
18010.0 0.0010364
18030.0 0.0010353
18050.0 0.0010341
18070.0 0.0010329
18090.0 0.0010315
18110.0 0.0010301
18130.0 0.0010286
18150.0 0.001027
18170.0 0.0010253
18190.0 0.0010236
18210.0 0.0010218
18230.0 0.0010199
18250.0 0.0010179
18270.0 0.0010158
18290.0 0.0010137
18310.0 0.0010114
18330.0 0.0010092
18350.0 0.0010068
18370.0 0.0010044
18390.0 0.0010018
18410.0 0.00099926
18430.0 0.00099661
18450.0 0.00099389
18470.0 0.0009911
18490.0 0.00098825
18510.0 0.00098533
18530.0 0.00098235
18550.0 0.0009793
18570.0 0.0009762
18590.0 0.00097302
18610.0 0.00096979
18630.0 0.00096651
18650.0 0.00096316
18670.0 0.00095975
18690.0 0.0009563
18710.0 0.00095279
18730.0 0.00094922
18750.0 0.0009456
18770.0 0.00094194
18790.0 0.00093822
18810.0 0.00093446
18830.0 0.00093065
18850.0 0.00092679
18870.0 0.00092289
18890.0 0.00091895
18910.0 0.00091497
18930.0 0.00091095
18950.0 0.00090689
18970.0 0.00090279
18990.0 0.00089866
19010.0 0.00089448
19030.0 0.00089028
19050.0 0.00088605
19070.0 0.00088178
19090.0 0.00087748
19110.0 0.00087316
19130.0 0.0008688
19150.0 0.00086442
19170.0 0.00086002
19190.0 0.00085559
19210.0 0.00085114
19230.0 0.00084667
19250.0 0.00084218
19270.0 0.00083767
19290.0 0.00083314
19310.0 0.00082859
19330.0 0.00082404
19350.0 0.00081946
19370.0 0.00081487
19390.0 0.00081027
19410.0 0.00080566
19430.0 0.00080104
19450.0 0.00079641
19470.0 0.00079177
19490.0 0.00078713
19510.0 0.00078248
19530.0 0.00077783
19550.0 0.00077317
19570.0 0.0007685
19590.0 0.00076385
19610.0 0.00075918
19630.0 0.00075452
19650.0 0.00074986
19670.0 0.0007452
19690.0 0.00074054
19710.0 0.00073589
19730.0 0.00073125
19750.0 0.0007266
19770.0 0.00072196
19790.0 0.00071733
19810.0 0.00071271
19830.0 0.00070808
19850.0 0.00070342
19870.0 0.00069872
19890.0 0.00069389
19910.0 0.0006888
19930.0 0.00068333
19950.0 0.00067728
19970.0 0.00067032
19990.0 0.0006623
20010.0 0.00065334
20030.0 0.00064307
20050.0 0.00063159
20070.0 0.00061946
20090.0 0.0006068
20110.0 0.00059321
20130.0 0.00057976
20150.0 0.00056667
20170.0 0.0005535
20190.0 0.00054046
20210.0 0.00052815
20230.0 0.00051623
20250.0 0.00050441
20270.0 0.00049326
20290.0 0.00048281
20310.0 0.00047269
20330.0 0.00046292
20350.0 0.00045415
20370.0 0.00044585
20390.0 0.00043795
20410.0 0.00043071
20430.0 0.00042411
20450.0 0.00041784
20470.0 0.00041208
20490.0 0.00040689
20510.0 0.00040211
20530.0 0.00039766
20550.0 0.00039363
20570.0 0.00038994
20590.0 0.0003865
20610.0 0.0003833
20630.0 0.00038032
20650.0 0.00037748
20670.0 0.00037477
20690.0 0.00037214
20710.0 0.00036956
20730.0 0.00036699
20750.0 0.0003644
20770.0 0.00036176
20790.0 0.00035905
20810.0 0.00035623
20830.0 0.00035331
20850.0 0.00035029
20870.0 0.00034711
20890.0 0.00034378
20910.0 0.00034038
20930.0 0.00033684
20950.0 0.00033315
20970.0 0.0003294
20990.0 0.0003256
21010.0 0.00032165
21030.0 0.00031767
21050.0 0.00031371
21070.0 0.0003097
21090.0 0.00030562
21110.0 0.00030166
21130.0 0.00029773
21150.0 0.00029379
21170.0 0.00028991
21190.0 0.00028616
21210.0 0.00028242
21230.0 0.00027871
21250.0 0.00027517
21270.0 0.00027172
21290.0 0.00026831
21310.0 0.00026502
21330.0 0.0002619
21350.0 0.00025884
21370.0 0.00025587
21390.0 0.00025305
21410.0 0.00025036
21430.0 0.00024772
21450.0 0.00024525
21470.0 0.00024291
21490.0 0.00024067
21510.0 0.00023853
21530.0 0.00023652
21550.0 0.00023462
21570.0 0.00023279
21590.0 0.00023106
21610.0 0.00022942
21630.0 0.00022785
21650.0 0.00022634
21670.0 0.00022489
21690.0 0.00022349
21710.0 0.00022213
21730.0 0.0002208
21750.0 0.00021951
21770.0 0.00021824
21790.0 0.000217
21810.0 0.00021578
21830.0 0.00021458
21850.0 0.0002134
21870.0 0.00021223
21890.0 0.00021108
21910.0 0.00020993
21930.0 0.0002088
21950.0 0.00020767
21970.0 0.00020654
21990.0 0.00020542
22010.0 0.00020429
22030.0 0.00020314
22050.0 0.00020199
22070.0 0.00020081
22090.0 0.00019962
22110.0 0.0001984
22130.0 0.00019716
22150.0 0.00019589
22170.0 0.0001946
22190.0 0.00019326
22210.0 0.0001919
22230.0 0.00019052
22250.0 0.00018911
22270.0 0.00018765
22290.0 0.00018617
22310.0 0.00018467
22330.0 0.00018309
22350.0 0.00018148
22370.0 0.00017985
22390.0 0.00017814
22410.0 0.00017635
22430.0 0.00017454
22450.0 0.00017268
22470.0 0.00017071
22490.0 0.00016867
22510.0 0.00016662
22530.0 0.00016444
22550.0 0.00016217
22570.0 0.00015991
22590.0 0.0001576
22610.0 0.0001552
22630.0 0.00015279
22650.0 0.00015044
22670.0 0.00014802
22690.0 0.0001456
22710.0 0.00014326
22730.0 0.00014097
22750.0 0.00013863
22770.0 0.00013643
22790.0 0.00013434
22810.0 0.00013228
22830.0 0.0001303
22850.0 0.00012848
22870.0 0.00012672
22890.0 0.00012502
22910.0 0.00012345
22930.0 0.00012198
22950.0 0.00012057
22970.0 0.00011922
22990.0 0.000118
23010.0 0.00011683
23030.0 0.0001157
23050.0 0.00011463
23070.0 0.00011362
23090.0 0.00011262
23110.0 0.00011165
23130.0 0.00011073
23150.0 0.00010982
23170.0 0.00010891
23190.0 0.00010804
23210.0 0.00010719
23230.0 0.00010634
23250.0 0.00010551
23270.0 0.00010472
23290.0 0.00010394
