#lamb flux
1010.0 6.0619e-07
1030.0 6.5793e-07
1050.0 7.1752e-07
1070.0 7.8461e-07
1090.0 8.6084e-07
1110.0 9.3907e-07
1130.0 1.0179e-06
1150.0 1.1005e-06
1170.0 1.1857e-06
1190.0 1.2667e-06
1210.0 1.3488e-06
1230.0 1.4338e-06
1250.0 1.5171e-06
1270.0 1.5982e-06
1290.0 1.6839e-06
1310.0 1.7697e-06
1330.0 1.8522e-06
1350.0 1.9357e-06
1370.0 2.022e-06
1390.0 2.1063e-06
1410.0 2.1883e-06
1430.0 2.2741e-06
1450.0 2.3601e-06
1470.0 2.4434e-06
1490.0 2.5277e-06
1510.0 2.6167e-06
1530.0 2.7014e-06
1550.0 2.785e-06
1570.0 2.8715e-06
1590.0 2.9581e-06
1610.0 3.0411e-06
1630.0 3.1265e-06
1650.0 3.2141e-06
1670.0 3.2988e-06
1690.0 3.3824e-06
1710.0 3.469e-06
1730.0 3.5558e-06
1750.0 3.6373e-06
1770.0 3.7208e-06
1790.0 3.8056e-06
1810.0 3.8872e-06
1830.0 3.9669e-06
1850.0 4.051e-06
1870.0 4.1322e-06
1890.0 4.2099e-06
1910.0 4.2883e-06
1930.0 4.368e-06
1950.0 4.4428e-06
1970.0 4.5157e-06
1990.0 4.5905e-06
2010.0 4.6628e-06
2030.0 4.731e-06
2050.0 4.8004e-06
2070.0 4.8704e-06
2090.0 4.9343e-06
2110.0 4.9966e-06
2130.0 5.0598e-06
2150.0 5.1199e-06
2170.0 5.175e-06
2190.0 5.2313e-06
2210.0 5.2865e-06
2230.0 5.3369e-06
2250.0 5.3853e-06
2270.0 5.4353e-06
2290.0 5.481e-06
2310.0 5.5219e-06
2330.0 5.5633e-06
2350.0 5.6035e-06
2370.0 5.6389e-06
2390.0 5.6733e-06
2410.0 5.7097e-06
2430.0 5.7428e-06
2450.0 5.774e-06
2470.0 5.8088e-06
2490.0 5.8507e-06
2510.0 5.9014e-06
2530.0 5.9846e-06
2550.0 6.1379e-06
2570.0 6.3998e-06
2590.0 6.8149e-06
2610.0 7.5003e-06
2630.0 8.4816e-06
2650.0 9.7011e-06
2670.0 1.1168e-05
2690.0 1.2824e-05
2710.0 1.4434e-05
2730.0 1.5887e-05
2750.0 1.7209e-05
2770.0 1.8275e-05
2790.0 1.9078e-05
2810.0 1.9718e-05
2830.0 2.027e-05
2850.0 2.0712e-05
2870.0 2.1121e-05
2890.0 2.1543e-05
2910.0 2.1968e-05
2930.0 2.2373e-05
2950.0 2.2807e-05
2970.0 2.3262e-05
2990.0 2.3703e-05
3010.0 0.00016265
3030.0 0.00016578
3050.0 0.00016883
3070.0 0.00017142
3090.0 0.00017357
3110.0 0.00017462
3130.0 0.00017378
3150.0 0.00017039
3170.0 0.00016307
3190.0 0.00015178
3210.0 0.00013697
3230.0 0.0001206
3250.0 0.00013312
3270.0 0.00011676
3290.0 0.00015056
3310.0 0.00011505
3330.0 0.00011638
3350.0 0.00012337
3370.0 0.00013216
3390.0 0.00014216
3410.0 0.00015234
3430.0 0.00016313
3450.0 0.00017435
3470.0 0.00018511
3490.0 0.00019407
3510.0 0.00021299
3530.0 0.00024235
3550.0 0.00024422
3570.0 0.0002308
3590.0 0.00026691
3610.0 0.00023291
3630.0 0.00028781
3650.0 0.00031566
3670.0 0.00035948
3690.0 0.00034769
3710.0 0.00029009
3730.0 0.00031976
3750.0 0.00032197
3770.0 0.00034767
3790.0 0.00036611
3810.0 0.00041333
3830.0 0.00058095
3850.0 0.0007271
3870.0 0.00086538
3890.0 0.00089501
3910.0 0.00085871
3930.0 0.00086713
3950.0 0.0009072
3970.0 0.00084489
3990.0 0.00051398
4010.0 0.00034755
4030.0 0.0005729
4050.0 0.00077873
4070.0 0.00073733
4090.0 0.00043925
4110.0 0.00034729
4130.0 0.00057093
4150.0 0.00064059
4170.0 0.00053504
4190.0 0.00044881
4210.0 0.00064399
4230.0 0.00059225
4250.0 0.00057112
4270.0 0.00056862
4290.0 0.00051235
4310.0 0.00062138
4330.0 0.00071657
4350.0 0.0007383
4370.0 0.00068173
4390.0 0.00071715
4410.0 0.00067442
4430.0 0.00050628
4450.0 0.00039794
4470.0 0.00047349
4490.0 0.00044792
4510.0 0.00064513
4530.0 0.00066369
4550.0 0.00067592
4570.0 0.00084345
4590.0 0.00098007
4610.0 0.0011606
4630.0 0.0015421
4650.0 0.0016986
4670.0 0.0017208
4690.0 0.0016493
4710.0 0.0016372
4730.0 0.0014492
4750.0 0.0010702
4770.0 0.00086903
4790.0 0.00068454
4810.0 0.00073627
4830.0 0.00084615
4850.0 0.00085551
4870.0 0.00076868
4890.0 0.001051
4910.0 0.0010804
4930.0 0.0011706
4950.0 0.0013744
4970.0 0.0014201
4990.0 0.0016153
5010.0 0.001674
5030.0 0.0015435
5050.0 0.0012352
5070.0 0.00089058
5090.0 0.0007502
5110.0 0.00076051
5130.0 0.00079551
5150.0 0.00075498
5170.0 0.00072653
5190.0 0.00076713
5210.0 0.00078852
5230.0 0.00086639
5250.0 0.00092862
5270.0 0.00089203
5290.0 0.0010301
5310.0 0.0012873
5330.0 0.0014059
5350.0 0.0013215
5370.0 0.0013293
5390.0 0.0014365
5410.0 0.0014389
5430.0 0.0013956
5450.0 0.0014498
5470.0 0.0016026
5490.0 0.0019042
5510.0 0.0022782
5530.0 0.0023716
5550.0 0.0023646
5570.0 0.0023273
5590.0 0.0022263
5610.0 0.0021057
5630.0 0.0021147
5650.0 0.0021917
5670.0 0.0021163
5690.0 0.0019157
5710.0 0.0018857
5730.0 0.0017427
5750.0 0.001553
5770.0 0.0013814
5790.0 0.0014634
5810.0 0.0015636
5830.0 0.0017216
5850.0 0.0016949
5870.0 0.0016573
5890.0 0.0017011
5910.0 0.0015693
5930.0 0.0014467
5950.0 0.0014479
5970.0 0.0015099
5990.0 0.0013312
6010.0 0.0011251
6030.0 0.00097824
6050.0 0.00088532
6070.0 0.00083469
6090.0 0.00089201
6110.0 0.00098888
6130.0 0.00099338
6150.0 0.001002
6170.0 0.0010511
6190.0 0.0011342
6210.0 0.0013034
6230.0 0.0015183
6250.0 0.0014156
6270.0 0.00124
6290.0 0.0010702
6310.0 0.0008873
6330.0 0.00078021
6350.0 0.00074873
6370.0 0.00079953
6390.0 0.00089214
6410.0 0.0010698
6430.0 0.0013141
6450.0 0.001524
6470.0 0.0016887
6490.0 0.0019232
6510.0 0.0020964
6530.0 0.0020252
6550.0 0.0019374
6570.0 0.0019554
6590.0 0.0019541
6610.0 0.001937
6630.0 0.0018223
6650.0 0.0016452
6670.0 0.0015896
6690.0 0.0015584
6710.0 0.0015783
6730.0 0.0013803
6750.0 0.0011849
6770.0 0.0011647
6790.0 0.0012421
6810.0 0.0013888
6830.0 0.0014074
6850.0 0.0012936
6870.0 0.0012888
6890.0 0.0012716
6910.0 0.0011977
6930.0 0.0012144
6950.0 0.0011886
6970.0 0.0011724
6990.0 0.0012067
7010.0 0.0012814
7030.0 0.0012616
7050.0 0.0011596
7070.0 0.0011127
7090.0 0.00098327
7110.0 0.00085182
7130.0 0.00083898
7150.0 0.00089062
7170.0 0.00097195
7190.0 0.00097684
7210.0 0.00094858
7230.0 0.0010403
7250.0 0.0011218
7270.0 0.0011635
7290.0 0.0011896
7310.0 0.0011898
7330.0 0.0011207
7350.0 0.0010391
7370.0 0.0009678
7390.0 0.00094854
7410.0 0.0010407
7430.0 0.0012036
7450.0 0.0013216
7470.0 0.0014449
7490.0 0.0016732
7510.0 0.0016496
7530.0 0.0013802
7550.0 0.0011987
7570.0 0.0010055
7590.0 0.00087946
7610.0 0.00085516
7630.0 0.00084957
7650.0 0.00092087
7670.0 0.0010479
7690.0 0.0011508
7710.0 0.0013123
7730.0 0.0013634
7750.0 0.0014121
7770.0 0.0015138
7790.0 0.0015761
7810.0 0.0015535
7830.0 0.0014286
7850.0 0.0014182
7870.0 0.0013816
7890.0 0.0013218
7910.0 0.0012255
7930.0 0.001161
7950.0 0.0009726
7970.0 0.00093973
7990.0 0.00094466
8010.0 0.0010975
8030.0 0.0011002
8050.0 0.0011612
8070.0 0.001131
8090.0 0.0011348
8110.0 0.0011154
8130.0 0.0010739
8150.0 0.00099787
8170.0 0.00098836
8190.0 0.00099762
8210.0 0.0010088
8230.0 0.00091151
8250.0 0.0008451
8270.0 0.00074568
8290.0 0.00062643
8310.0 0.00052551
8330.0 0.0003958
8350.0 0.00030827
8370.0 0.00028872
8390.0 0.00029535
8410.0 0.00032857
8430.0 0.00042051
8450.0 0.00046361
8470.0 0.00050095
8490.0 0.0005714
8510.0 0.00061956
8530.0 0.00069415
8550.0 0.00082192
8570.0 0.00091822
8590.0 0.00098151
8610.0 0.0011143
8630.0 0.0012851
8650.0 0.0013368
8670.0 0.0013658
8690.0 0.0013887
8710.0 0.0013543
8730.0 0.0013014
8750.0 0.0012043
8770.0 0.0011951
8790.0 0.0011668
8810.0 0.0010769
8830.0 0.0010483
8850.0 0.00093255
8870.0 0.00087328
8890.0 0.00079278
8910.0 0.0008855
8930.0 0.00081748
8950.0 0.0008292
8970.0 0.00084943
8990.0 0.0008353
9010.0 0.00085095
9030.0 0.00081194
9050.0 0.00080898
9070.0 0.00080981
9090.0 0.00081057
9110.0 0.00081188
9130.0 0.00081256
9150.0 0.00081293
9170.0 0.0008116
9190.0 0.00080791
9210.0 0.00081907
9230.0 0.00081703
9250.0 0.00081631
9270.0 0.00081592
9290.0 0.00081576
9310.0 0.00081573
9330.0 0.00081577
9350.0 0.00081589
9370.0 0.00081601
9390.0 0.00081609
9410.0 0.0008162
9430.0 0.00081632
9450.0 0.00081638
9470.0 0.00081644
9490.0 0.00081652
9510.0 0.00081659
9530.0 0.00081662
9550.0 0.00081672
9570.0 0.00081682
9590.0 0.0008169
9610.0 0.00081699
9630.0 0.00081714
9650.0 0.00081729
9670.0 0.00081741
9690.0 0.0008176
9710.0 0.00081783
9730.0 0.00081803
9750.0 0.00081827
9770.0 0.00081862
9790.0 0.00081893
9810.0 0.00081925
9830.0 0.00081965
9850.0 0.00082008
9870.0 0.00082049
9890.0 0.00082096
9910.0 0.00082151
9930.0 0.00082204
9950.0 0.00082178
9970.0 0.00082268
9990.0 0.00082358
10010.0 0.00082436
10030.0 0.00082516
10050.0 0.00082566
10070.0 0.00082438
10090.0 0.00082591
10110.0 0.00082742
10130.0 0.00082875
10150.0 0.00082998
10170.0 0.00083109
10190.0 0.0008321
10210.0 0.00083316
10230.0 0.00083423
10250.0 0.00083526
10270.0 0.00083631
10290.0 0.00083743
10310.0 0.00083852
10330.0 0.00083958
10350.0 0.00084072
10370.0 0.00084189
10390.0 0.00084301
10410.0 0.00084415
10430.0 0.00084536
10450.0 0.00084652
10470.0 0.00084766
10490.0 0.00084885
10510.0 0.00085005
10530.0 0.00085117
10550.0 0.00085232
10570.0 0.00085351
10590.0 0.00085466
10610.0 0.00085577
10630.0 0.00085693
10650.0 0.00085806
10670.0 0.00085913
10690.0 0.00086021
10710.0 0.0008613
10730.0 0.00086234
10750.0 0.00086332
10770.0 0.00086436
10790.0 0.00086535
10810.0 0.00086627
10830.0 0.00086715
10850.0 0.00086796
10870.0 0.00086849
10890.0 0.0008686
10910.0 0.00086807
10930.0 0.00086638
10950.0 0.00086275
10970.0 0.00085681
10990.0 0.00084835
11010.0 0.00086685
11030.0 0.00084966
11050.0 0.00082977
11070.0 0.00080692
11090.0 0.00078054
11110.0 0.00075436
11130.0 0.00072826
11150.0 0.00070164
11170.0 0.00067591
11190.0 0.00065269
11210.0 0.00063053
11230.0 0.00060975
11250.0 0.00059171
11270.0 0.00057593
11290.0 0.00056154
11310.0 0.00054907
11330.0 0.00053883
11350.0 0.00052953
11370.0 0.00052097
11390.0 0.00051322
11410.0 0.00050578
11430.0 0.0004978
11450.0 0.00048957
11470.0 0.00048102
11490.0 0.00047161
11510.0 0.00046114
11530.0 0.0004504
11550.0 0.00043917
11570.0 0.00042702
11590.0 0.00041466
11610.0 0.00040256
11630.0 0.00039003
11650.0 0.00037739
11670.0 0.00036562
11690.0 0.00035427
11710.0 0.00034305
11730.0 0.00033251
11750.0 0.0003229
11770.0 0.00031346
11790.0 0.00030444
11810.0 0.00029616
11830.0 0.00028827
11850.0 0.00028033
11870.0 0.00027289
11890.0 0.00026586
11910.0 0.00025875
11930.0 0.00025164
11950.0 0.00024484
11970.0 0.00023799
11990.0 0.00023088
12010.0 0.00022398
12030.0 0.00021727
12050.0 0.00021047
12070.0 0.00020372
12090.0 0.00019762
12110.0 0.00019177
12130.0 0.00018623
12150.0 0.00018138
12170.0 0.00017728
12190.0 0.00017375
12210.0 0.00017114
12230.0 0.00016954
12250.0 0.00016888
12270.0 0.00016928
12290.0 0.0001707
12310.0 0.000173
12330.0 0.00017634
12350.0 0.00018053
12370.0 0.00018524
12390.0 0.00019055
12410.0 0.00019657
12430.0 0.00020243
12450.0 0.00020822
12470.0 0.00021405
12490.0 0.00021956
12510.0 0.00022437
12530.0 0.00022881
12550.0 0.00023272
12570.0 0.00023582
12590.0 0.00023822
12610.0 0.00024002
12630.0 0.00024111
12650.0 0.0002415
12670.0 0.00024134
12690.0 0.00024063
12710.0 0.00023944
12730.0 0.00023786
12750.0 0.00023582
12770.0 0.00023349
12790.0 0.00023093
12810.0 0.00022808
12830.0 0.00022492
12850.0 0.00022167
12870.0 0.00021823
12890.0 0.00021444
12910.0 0.00021045
12930.0 0.00020634
12950.0 0.00020182
12970.0 0.00019692
12990.0 0.00019199
13010.0 0.00018683
13030.0 0.0001813
13050.0 0.00017572
13070.0 0.00017029
13090.0 0.00016466
13110.0 0.0001591
13130.0 0.00015393
13150.0 0.00014904
13170.0 0.00014432
13190.0 0.00014024
13210.0 0.00013678
13230.0 0.00013378
13250.0 0.00013136
13270.0 0.00012961
13290.0 0.00012837
13310.0 0.00012762
13330.0 0.00012735
13350.0 0.00012745
13370.0 0.00012784
13390.0 0.00012843
13410.0 0.00012908
13430.0 0.00012973
13450.0 0.00013034
13470.0 0.00013079
13490.0 0.00013105
13510.0 0.00013113
13530.0 0.00013098
13550.0 0.00013064
13570.0 0.00013014
13590.0 0.00012949
13610.0 0.00012877
13630.0 0.00012803
13650.0 0.00012727
13670.0 0.00012654
13690.0 0.0001259
13710.0 0.00012532
13730.0 0.0001248
13750.0 0.00012438
13770.0 0.00012402
13790.0 0.00012367
13810.0 0.00012334
13830.0 0.00012298
13850.0 0.00012256
13870.0 0.00012205
13890.0 0.00012145
13910.0 0.00012074
13930.0 0.00011989
13950.0 0.00011892
13970.0 0.00011791
13990.0 0.00011681
14010.0 0.00011566
14030.0 0.00011454
14050.0 0.00011347
14070.0 0.0001124
14090.0 0.00011146
14110.0 0.00011064
14130.0 0.00010991
14150.0 0.0001093
14170.0 0.00010883
14190.0 0.00010846
14210.0 0.0001082
14230.0 0.00010805
14250.0 0.00010799
14270.0 0.00010806
14290.0 0.00010824
14310.0 0.00010853
14330.0 0.00010893
14350.0 0.00010949
14370.0 0.00011015
14390.0 0.00011089
14410.0 0.00011177
14430.0 0.00011275
14450.0 0.00011376
14470.0 0.00011484
14490.0 0.00011604
14510.0 0.00011724
14530.0 0.00011845
14550.0 0.00011979
14570.0 0.00012123
14590.0 0.00012272
14610.0 0.00012438
14630.0 0.00012632
14650.0 0.0001284
14670.0 0.00013068
14690.0 0.00013331
14710.0 0.00013626
14730.0 0.00013929
14750.0 0.00014262
14770.0 0.00014626
14790.0 0.00014996
14810.0 0.00015367
14830.0 0.00015767
14850.0 0.00016156
14870.0 0.00016519
14890.0 0.00016869
14910.0 0.00017199
14930.0 0.0001748
14950.0 0.00017713
14970.0 0.00017909
14990.0 0.00018051
15010.0 0.00018139
15030.0 0.00018187
15050.0 0.00018197
15070.0 0.00018178
15090.0 0.0001814
15110.0 0.00018088
15130.0 0.0001803
15150.0 0.00017969
15170.0 0.00017906
15190.0 0.0001784
15210.0 0.00017777
15230.0 0.00017713
15250.0 0.00017648
15270.0 0.00017584
15290.0 0.00017523
15310.0 0.0001746
15330.0 0.00017396
15350.0 0.00017335
15370.0 0.00017274
15390.0 0.0001721
15410.0 0.00017149
15430.0 0.00017089
15450.0 0.00017028
15470.0 0.00016966
15490.0 0.00016906
15510.0 0.00016847
15530.0 0.00016787
15550.0 0.00016727
15570.0 0.00016669
15590.0 0.00016609
15610.0 0.00016549
15630.0 0.00016491
15650.0 0.00016434
15670.0 0.00016375
15690.0 0.00016317
15710.0 0.00016261
15730.0 0.00016203
15750.0 0.00016145
15770.0 0.00016089
15790.0 0.00016032
15810.0 0.00015974
15830.0 0.00015918
15850.0 0.00015863
15870.0 0.00015806
15890.0 0.0001575
15910.0 0.00015695
15930.0 0.0001564
15950.0 0.00015583
15970.0 0.00015528
15990.0 0.00015474
16010.0 0.00015419
16030.0 0.00015363
16050.0 0.0001531
16070.0 0.00015255
16090.0 0.000152
16110.0 0.00015146
16130.0 0.00015094
16150.0 0.00015038
16170.0 0.00014983
16190.0 0.00014931
16210.0 0.00014877
16230.0 0.00014822
16250.0 0.00014769
16270.0 0.00014717
16290.0 0.00014663
16310.0 0.00014609
16330.0 0.00014557
16350.0 0.00014504
16370.0 0.00014449
16390.0 0.00014396
16410.0 0.00014344
16430.0 0.0001429
16450.0 0.00014237
16470.0 0.00014186
16490.0 0.00014133
16510.0 0.00014079
16530.0 0.00014026
16550.0 0.00013974
16570.0 0.0001392
16590.0 0.00013867
16610.0 0.00013816
16630.0 0.00013763
16650.0 0.00013709
16670.0 0.00013657
16690.0 0.00013605
16710.0 0.00013551
16730.0 0.00013498
16750.0 0.00013446
16770.0 0.00013393
16790.0 0.00013339
16810.0 0.00013287
16830.0 0.00013235
16850.0 0.00013181
16870.0 0.00013128
16890.0 0.00013076
16910.0 0.00013022
16930.0 0.00012968
16950.0 0.00012916
16970.0 0.00012863
16990.0 0.00012809
17010.0 0.00012756
17030.0 0.00012704
17050.0 0.0001265
17070.0 0.00012596
17090.0 0.00012543
17110.0 0.0001249
17130.0 0.00012434
17150.0 0.00012381
17170.0 0.00012329
17190.0 0.00012274
17210.0 0.0001222
17230.0 0.00012168
17250.0 0.00012114
17270.0 0.00012058
17290.0 0.00012005
17310.0 0.00011952
17330.0 0.00011897
17350.0 0.00011841
17370.0 0.00011789
17390.0 0.00011735
17410.0 0.00011679
17430.0 0.00011625
17450.0 0.00011572
17470.0 0.00011516
17490.0 0.00011461
17510.0 0.00011407
17530.0 0.00011353
17550.0 0.00011297
17570.0 0.00011243
17590.0 0.00011189
17610.0 0.00011133
17630.0 0.00011078
17650.0 0.00011024
17670.0 0.00010969
17690.0 0.00010912
17710.0 0.00010858
17730.0 0.00010804
17750.0 0.00010748
17770.0 0.00010692
17790.0 0.00010639
17810.0 0.00010583
17830.0 0.00010527
17850.0 0.00010472
17870.0 0.00010417
17890.0 0.00010361
17910.0 0.00010305
17930.0 0.00010251
17950.0 0.00010195
17970.0 0.00010139
17990.0 0.00010085
18010.0 0.0001003
18030.0 9.9727e-05
18050.0 9.9172e-05
18070.0 9.8628e-05
18090.0 9.8068e-05
18110.0 9.7502e-05
18130.0 9.696e-05
18150.0 9.6412e-05
18170.0 9.5846e-05
18190.0 9.5293e-05
18210.0 9.4751e-05
18230.0 9.4187e-05
18250.0 9.3619e-05
18270.0 9.3077e-05
18290.0 9.2527e-05
18310.0 9.1963e-05
18330.0 9.1413e-05
18350.0 9.0874e-05
18370.0 9.0312e-05
18390.0 8.9753e-05
18410.0 8.921e-05
18430.0 8.8661e-05
18450.0 8.8091e-05
18470.0 8.7544e-05
18490.0 8.7005e-05
18510.0 8.6449e-05
18530.0 8.5895e-05
18550.0 8.536e-05
18570.0 8.4811e-05
18590.0 8.4248e-05
18610.0 8.3704e-05
18630.0 8.3166e-05
18650.0 8.261e-05
18670.0 8.2056e-05
18690.0 8.1526e-05
18710.0 8.0983e-05
18730.0 8.043e-05
18750.0 7.9893e-05
18770.0 7.9363e-05
18790.0 7.8803e-05
18810.0 7.8257e-05
18830.0 7.7729e-05
18850.0 7.7189e-05
18870.0 7.664e-05
18890.0 7.6111e-05
18910.0 7.5584e-05
18930.0 7.5038e-05
18950.0 7.45e-05
18970.0 7.3978e-05
18990.0 7.3442e-05
19010.0 7.289e-05
19030.0 7.237e-05
19050.0 7.1847e-05
19070.0 7.131e-05
19090.0 7.0781e-05
19110.0 7.027e-05
19130.0 6.9736e-05
19150.0 6.9201e-05
19170.0 6.8684e-05
19190.0 6.8166e-05
19210.0 6.7631e-05
19230.0 6.7107e-05
19250.0 6.6602e-05
19270.0 6.608e-05
19290.0 6.5556e-05
19310.0 6.505e-05
19330.0 6.4541e-05
19350.0 6.4008e-05
19370.0 6.3497e-05
19390.0 6.2995e-05
19410.0 6.2479e-05
19430.0 6.196e-05
19450.0 6.1465e-05
19470.0 6.0963e-05
19490.0 6.0447e-05
19510.0 5.9945e-05
19530.0 5.9452e-05
19550.0 5.894e-05
19570.0 5.8427e-05
19590.0 5.794e-05
19610.0 5.7444e-05
19630.0 5.6938e-05
19650.0 5.6446e-05
19670.0 5.5965e-05
19690.0 5.5461e-05
19710.0 5.4964e-05
19730.0 5.4482e-05
19750.0 5.3994e-05
19770.0 5.3489e-05
19790.0 5.3007e-05
19810.0 5.2531e-05
19830.0 5.2039e-05
19850.0 5.1547e-05
19870.0 5.1066e-05
19890.0 5.0556e-05
19910.0 5.0006e-05
19930.0 4.9434e-05
19950.0 4.8801e-05
19970.0 4.8057e-05
19990.0 4.7204e-05
20010.0 4.628e-05
20030.0 4.5218e-05
20050.0 4.4043e-05
20070.0 4.2847e-05
20090.0 4.1639e-05
20110.0 4.037e-05
20130.0 3.9187e-05
20150.0 3.8108e-05
20170.0 3.7083e-05
20190.0 3.6136e-05
20210.0 3.5323e-05
20230.0 3.4602e-05
20250.0 3.3949e-05
20270.0 3.3407e-05
20290.0 3.2965e-05
20310.0 3.2597e-05
20330.0 3.2306e-05
20350.0 3.2113e-05
20370.0 3.1989e-05
20390.0 3.1939e-05
20410.0 3.1963e-05
20430.0 3.2054e-05
20450.0 3.2224e-05
20470.0 3.247e-05
20490.0 3.2777e-05
20510.0 3.3156e-05
20530.0 3.3621e-05
20550.0 3.4143e-05
20570.0 3.4703e-05
20590.0 3.5339e-05
20610.0 3.6024e-05
20630.0 3.6717e-05
20650.0 3.744e-05
20670.0 3.8212e-05
20690.0 3.8947e-05
20710.0 3.9655e-05
20730.0 4.0362e-05
20750.0 4.1037e-05
20770.0 4.1644e-05
20790.0 4.2223e-05
20810.0 4.2779e-05
20830.0 4.3282e-05
20850.0 4.3747e-05
20870.0 4.4212e-05
20890.0 4.4662e-05
20910.0 4.5083e-05
20930.0 4.5515e-05
20950.0 4.5963e-05
20970.0 4.6403e-05
20990.0 4.684e-05
21010.0 4.73e-05
21030.0 4.7744e-05
21050.0 4.8157e-05
21070.0 4.855e-05
21090.0 4.8917e-05
21110.0 4.9215e-05
21130.0 4.9457e-05
21150.0 4.9646e-05
21170.0 4.9764e-05
21190.0 4.9812e-05
21210.0 4.9795e-05
21230.0 4.9709e-05
21250.0 4.9562e-05
21270.0 4.9359e-05
21290.0 4.9097e-05
21310.0 4.8789e-05
21330.0 4.8454e-05
21350.0 4.8076e-05
21370.0 4.7664e-05
21390.0 4.7244e-05
21410.0 4.6811e-05
21430.0 4.6344e-05
21450.0 4.589e-05
21470.0 4.5451e-05
21490.0 4.5008e-05
21510.0 4.4574e-05
21530.0 4.4176e-05
21550.0 4.3799e-05
21570.0 4.3437e-05
21590.0 4.3119e-05
21610.0 4.2845e-05
21630.0 4.2606e-05
21650.0 4.2411e-05
21670.0 4.2278e-05
21690.0 4.2194e-05
21710.0 4.2165e-05
21730.0 4.2196e-05
21750.0 4.2281e-05
21770.0 4.2433e-05
21790.0 4.2647e-05
21810.0 4.2911e-05
21830.0 4.3233e-05
21850.0 4.3625e-05
21870.0 4.4059e-05
21890.0 4.4525e-05
21910.0 4.5054e-05
21930.0 4.5625e-05
21950.0 4.6207e-05
21970.0 4.6825e-05
21990.0 4.7497e-05
22010.0 4.8153e-05
22030.0 4.8807e-05
22050.0 4.9483e-05
22070.0 5.0153e-05
22090.0 5.0778e-05
22110.0 5.1397e-05
22130.0 5.2e-05
22150.0 5.2545e-05
22170.0 5.3037e-05
22190.0 5.3496e-05
22210.0 5.3886e-05
22230.0 5.4188e-05
22250.0 5.4423e-05
22270.0 5.4577e-05
22290.0 5.4639e-05
22310.0 5.4612e-05
22330.0 5.4487e-05
22350.0 5.4263e-05
22370.0 5.395e-05
22390.0 5.3535e-05
22410.0 5.3005e-05
22430.0 5.241e-05
22450.0 5.1736e-05
22470.0 5.0956e-05
22490.0 5.011e-05
22510.0 4.9231e-05
22530.0 4.8257e-05
22550.0 4.7215e-05
22570.0 4.6178e-05
22590.0 4.5112e-05
22610.0 4.3989e-05
22630.0 4.2869e-05
22650.0 4.1793e-05
22670.0 4.0681e-05
22690.0 3.9571e-05
22710.0 3.8518e-05
22730.0 3.7494e-05
22750.0 3.6446e-05
22770.0 3.5479e-05
