#lamb flux
1010.0 5.6818e-08
1030.0 6.2365e-08
1050.0 6.8745e-08
1070.0 7.5926e-08
1090.0 8.4084e-08
1110.0 9.2451e-08
1130.0 1.0087e-07
1150.0 1.0969e-07
1170.0 1.1879e-07
1190.0 1.2742e-07
1210.0 1.3616e-07
1230.0 1.452e-07
1250.0 1.5405e-07
1270.0 1.6265e-07
1290.0 1.7173e-07
1310.0 1.8081e-07
1330.0 1.8952e-07
1350.0 1.9832e-07
1370.0 2.0741e-07
1390.0 2.1627e-07
1410.0 2.2487e-07
1430.0 2.3386e-07
1450.0 2.4284e-07
1470.0 2.5153e-07
1490.0 2.6031e-07
1510.0 2.6958e-07
1530.0 2.7837e-07
1550.0 2.8704e-07
1570.0 2.96e-07
1590.0 3.0498e-07
1610.0 3.1356e-07
1630.0 3.224e-07
1650.0 3.3148e-07
1670.0 3.4026e-07
1690.0 3.4892e-07
1710.0 3.5793e-07
1730.0 3.6698e-07
1750.0 3.755e-07
1770.0 3.8426e-07
1790.0 3.932e-07
1810.0 4.0186e-07
1830.0 4.1036e-07
1850.0 4.1939e-07
1870.0 4.2818e-07
1890.0 4.3667e-07
1910.0 4.4532e-07
1930.0 4.5418e-07
1950.0 4.6262e-07
1970.0 4.7095e-07
1990.0 4.7959e-07
2010.0 4.8807e-07
2030.0 4.9622e-07
2050.0 5.046e-07
2070.0 5.1317e-07
2090.0 5.2121e-07
2110.0 5.2918e-07
2130.0 5.3737e-07
2150.0 5.4535e-07
2170.0 5.5291e-07
2190.0 5.6072e-07
2210.0 5.6853e-07
2230.0 5.7592e-07
2250.0 5.8321e-07
2270.0 5.9079e-07
2290.0 5.9803e-07
2310.0 6.0486e-07
2330.0 6.1192e-07
2350.0 6.1912e-07
2370.0 6.2621e-07
2390.0 6.3396e-07
2410.0 6.434e-07
2430.0 6.545e-07
2450.0 6.6811e-07
2470.0 6.8607e-07
2490.0 7.092e-07
2510.0 7.3574e-07
2530.0 7.6806e-07
2550.0 8.0894e-07
2570.0 8.6004e-07
2590.0 9.2656e-07
2610.0 1.0262e-06
2630.0 1.1677e-06
2650.0 1.3512e-06
2670.0 1.5867e-06
2690.0 1.8738e-06
2710.0 2.1773e-06
2730.0 2.4738e-06
2750.0 2.7627e-06
2770.0 3.0099e-06
2790.0 3.2015e-06
2810.0 3.3493e-06
2830.0 3.4602e-06
2850.0 3.5305e-06
2870.0 3.5777e-06
2890.0 3.6116e-06
2910.0 3.6355e-06
2930.0 3.6525e-06
2950.0 3.6681e-06
2970.0 3.6832e-06
2990.0 3.6969e-06
3010.0 0.00011126
3030.0 0.00011166
3050.0 0.00011203
3070.0 0.00011232
3090.0 0.00011251
3110.0 0.0001125
3130.0 0.00011214
3150.0 0.0001113
3170.0 0.00010978
3190.0 0.0001076
3210.0 0.00010493
3230.0 0.00010193
3250.0 9.8889e-05
3270.0 9.6643e-05
3290.0 9.5159e-05
3310.0 9.5072e-05
3330.0 9.6141e-05
3350.0 9.8249e-05
3370.0 0.00010139
3390.0 0.00010543
3410.0 0.00010987
3430.0 0.00011489
3450.0 0.00012069
3470.0 0.00012705
3490.0 0.00013382
3510.0 0.0001415
3530.0 0.00014978
3550.0 0.00015836
3570.0 0.0001675
3590.0 0.00017752
3610.0 0.00018818
3630.0 0.00019874
3650.0 0.00020979
3670.0 0.00021979
3690.0 0.00022722
3710.0 0.00023124
3730.0 0.00023035
3750.0 0.00022504
3770.0 0.00022703
3790.0 0.00022511
3810.0 0.00020198
3830.0 0.00020489
3850.0 0.00025626
3870.0 0.00026615
3890.0 0.00023904
3910.0 0.00023153
3930.0 0.00025245
3950.0 0.00027394
3970.0 0.00027048
3990.0 0.00020634
4010.0 0.00054375
4030.0 0.00062391
4050.0 0.00071162
4070.0 0.00066502
4090.0 0.00060947
4110.0 0.00052665
4130.0 0.00053432
4150.0 0.0006305
4170.0 0.00056447
4190.0 0.00056156
4210.0 0.00058435
4230.0 0.00065663
4250.0 0.00078504
4270.0 0.0008197
4290.0 0.00073801
4310.0 0.00073086
4330.0 0.00075265
4350.0 0.0008891
4370.0 0.0010428
4390.0 0.0009113
4410.0 0.00060156
4430.0 0.00048057
4450.0 0.00044627
4470.0 0.00031364
4490.0 0.00039557
4510.0 0.00071007
4530.0 0.00084215
4550.0 0.00081477
4570.0 0.00082912
4590.0 0.00091761
4610.0 0.0014681
4630.0 0.0019876
4650.0 0.0020244
4670.0 0.0018289
4690.0 0.0017891
4710.0 0.0018782
4730.0 0.0016747
4750.0 0.0011855
4770.0 0.00084004
4790.0 0.00083888
4810.0 0.00083796
4830.0 0.00079423
4850.0 0.00086523
4870.0 0.0011444
4890.0 0.0013375
4910.0 0.0011152
4930.0 0.0010309
4950.0 0.001158
4970.0 0.0015068
4990.0 0.0020401
5010.0 0.0023595
5030.0 0.0019934
5050.0 0.0012961
5070.0 0.00088184
5090.0 0.00068814
5110.0 0.00067835
5130.0 0.00080007
5150.0 0.00082923
5170.0 0.0008008
5190.0 0.00073162
5210.0 0.00078834
5230.0 0.00088934
5250.0 0.00099337
5270.0 0.0010004
5290.0 0.0010932
5310.0 0.0013564
5330.0 0.0014871
5350.0 0.0014726
5370.0 0.0015916
5390.0 0.0019011
5410.0 0.001773
5430.0 0.0014809
5450.0 0.0014155
5470.0 0.0015614
5490.0 0.0019238
5510.0 0.0023714
5530.0 0.0027357
5550.0 0.0025676
5570.0 0.0023225
5590.0 0.0019707
5610.0 0.0018931
5630.0 0.0019665
5650.0 0.001838
5670.0 0.0017154
5690.0 0.0014639
5710.0 0.0014633
5730.0 0.0013806
5750.0 0.00087225
5770.0 0.00065379
5790.0 0.00076758
5810.0 0.0008392
5830.0 0.0011421
5850.0 0.0014226
5870.0 0.00156
5890.0 0.0015442
5910.0 0.0015113
5930.0 0.0014425
5950.0 0.0014768
5970.0 0.0017538
5990.0 0.0015506
6010.0 0.0012537
6030.0 0.0010449
6050.0 0.00091997
6070.0 0.00099075
6090.0 0.0010903
6110.0 0.0011684
6130.0 0.0011401
6150.0 0.00094388
6170.0 0.00078289
6190.0 0.00090488
6210.0 0.0012953
6230.0 0.0018026
6250.0 0.001954
6270.0 0.0016066
6290.0 0.0013635
6310.0 0.0010532
6330.0 0.00078898
6350.0 0.00073471
6370.0 0.0007719
6390.0 0.00090442
6410.0 0.0011431
6430.0 0.0013544
6450.0 0.001602
6470.0 0.0017602
6490.0 0.0021144
6510.0 0.0023669
6530.0 0.0023733
6550.0 0.0021643
6570.0 0.0017779
6590.0 0.0016401
6610.0 0.0013864
6630.0 0.0013456
6650.0 0.0012932
6670.0 0.0011857
6690.0 0.00098987
6710.0 0.0009322
6730.0 0.00053393
6750.0 0.00060399
6770.0 0.00079167
6790.0 0.00098304
6810.0 0.00078333
6830.0 0.00080295
6850.0 0.00070725
6870.0 0.0006519
6890.0 0.0005887
6910.0 0.00067115
6930.0 0.00063074
6950.0 0.00069981
6970.0 0.00073368
6990.0 0.00082358
7010.0 0.00080931
7030.0 0.00087951
7050.0 0.00079808
7070.0 0.00070989
7090.0 0.00073797
7110.0 0.0007745
7130.0 0.00086444
7150.0 0.00094929
7170.0 0.0010577
7190.0 0.0011487
7210.0 0.0010743
7230.0 0.0010966
7250.0 0.0011741
7270.0 0.0012655
7290.0 0.0015352
7310.0 0.0016504
7330.0 0.0015748
7350.0 0.0014184
7370.0 0.0011428
7390.0 0.0011381
7410.0 0.0012949
7430.0 0.0014588
7450.0 0.0015805
7470.0 0.0015001
7490.0 0.0012707
7510.0 0.0017194
7530.0 0.0016337
7550.0 0.0015123
7570.0 0.0011006
7590.0 0.00062193
7610.0 0.00049601
7630.0 0.00063097
7650.0 0.00078968
7670.0 0.0011074
7690.0 0.0012244
7710.0 0.0011892
7730.0 0.0012187
7750.0 0.0014785
7770.0 0.0015121
7790.0 0.0013843
7810.0 0.0011873
7830.0 0.0012562
7850.0 0.0012994
7870.0 0.0012325
7890.0 0.00099573
7910.0 0.00073738
7930.0 0.00073434
7950.0 0.00066683
7970.0 0.00058964
7990.0 0.00056143
8010.0 0.00015176
8030.0 0.00013761
8050.0 0.00014889
8070.0 0.00017105
8090.0 0.00021294
8110.0 0.00020112
8130.0 0.00011538
8150.0 0.00012242
8170.0 6.4439e-05
8190.0 3.5419e-05
8210.0 0.00011075
8230.0 0.0001355
8250.0 4.9212e-05
8270.0 3.7384e-05
8290.0 8.1706e-05
8310.0 7.4221e-05
8330.0 4.5898e-05
8350.0 3.647e-05
8370.0 6.7473e-06
8390.0 3.926e-05
8410.0 4.4596e-05
8430.0 5.5156e-05
8450.0 6.2618e-05
8470.0 0.00010737
8490.0 8.7892e-05
8510.0 6.7225e-05
8530.0 3.3691e-05
8550.0 0.00012296
8570.0 0.00018936
8590.0 0.00013121
8610.0 0.00019864
8630.0 0.00021776
8650.0 0.00011964
8670.0 0.00017628
8690.0 0.00027069
8710.0 0.0002307
8730.0 0.00024664
8750.0 0.00019274
8770.0 0.00017083
8790.0 0.00018892
8810.0 0.00020524
8830.0 0.0001128
8850.0 4.5528e-05
8870.0 3.0994e-05
8890.0 8.3543e-05
8910.0 0.00013475
8930.0 0.00018047
8950.0 0.00019843
8970.0 0.0001903
8990.0 0.00013885
9010.0 0.00025958
9030.0 0.00021013
9050.0 0.00021479
9070.0 0.00022015
9090.0 0.0002246
9110.0 0.00023008
9130.0 0.00023407
9150.0 0.00023694
9170.0 0.00023999
9190.0 0.00024326
9210.0 0.0002467
9230.0 0.00025032
9250.0 0.00025398
9270.0 0.00025776
9290.0 0.00026163
9310.0 0.0002655
9330.0 0.00026941
9350.0 0.00027347
9370.0 0.00027754
9390.0 0.00028162
9410.0 0.00028581
9430.0 0.00029011
9450.0 0.00029436
9470.0 0.00029868
9490.0 0.00030313
9510.0 0.0003076
9530.0 0.00031207
9550.0 0.00031671
9570.0 0.00032141
9590.0 0.00032609
9610.0 0.00033085
9630.0 0.00033574
9650.0 0.00034065
9670.0 0.00034555
9690.0 0.00035059
9710.0 0.0003557
9730.0 0.0003608
9750.0 0.00036597
9770.0 0.00037132
9790.0 0.00037663
9810.0 0.00038195
9830.0 0.0003874
9850.0 0.00039292
9870.0 0.0003984
9890.0 0.00040396
9910.0 0.00040965
9930.0 0.00041532
9950.0 0.00042101
9970.0 0.00042683
9990.0 0.0004327
10010.0 0.00037954
10030.0 0.00038464
10050.0 0.00038982
10070.0 0.000395
10090.0 0.00040013
10110.0 0.00040539
10130.0 0.00041066
10150.0 0.00041588
10170.0 0.00042116
10190.0 0.00042652
10210.0 0.00043181
10230.0 0.00043709
10250.0 0.00044245
10270.0 0.0004478
10290.0 0.00045308
10310.0 0.00045843
10330.0 0.00046385
10350.0 0.00046915
10370.0 0.00047444
10390.0 0.0004798
10410.0 0.00048512
10430.0 0.00049033
10450.0 0.0004956
10470.0 0.00050088
10490.0 0.00050606
10510.0 0.0005112
10530.0 0.00051644
10550.0 0.00052158
10570.0 0.00052659
10590.0 0.00053164
10610.0 0.00053668
10630.0 0.00054158
10650.0 0.00054643
10670.0 0.00055134
10690.0 0.00055614
10710.0 0.00056082
10730.0 0.00056552
10750.0 0.00057022
10770.0 0.0005747
10790.0 0.00057914
10810.0 0.00058358
10830.0 0.00058788
10850.0 0.00059195
10870.0 0.00059595
10890.0 0.00059955
10910.0 0.00060247
10930.0 0.00060448
10950.0 0.00060503
10970.0 0.00060365
10990.0 0.00060014
11010.0 0.00056563
11030.0 0.00055682
11050.0 0.00054589
11070.0 0.00053272
11090.0 0.00051684
11110.0 0.00050038
11130.0 0.00048322
11150.0 0.00046478
11170.0 0.00044583
11190.0 0.00042749
11210.0 0.00040861
11230.0 0.00038932
11250.0 0.00037094
11270.0 0.00035333
11290.0 0.00033573
11310.0 0.00031907
11330.0 0.00030438
11350.0 0.0002905
11370.0 0.00027764
11390.0 0.00026645
11410.0 0.0002566
11430.0 0.00024739
11450.0 0.00023936
11470.0 0.00023234
11490.0 0.00022574
11510.0 0.00021935
11530.0 0.00021337
11550.0 0.00020744
11570.0 0.00020114
11590.0 0.00019466
11610.0 0.0001881
11630.0 0.00018102
11650.0 0.0001735
11670.0 0.00016611
11690.0 0.00015865
11710.0 0.00015099
11730.0 0.00014357
11750.0 0.00013669
11770.0 0.00012995
11790.0 0.00012361
11810.0 0.000118
11830.0 0.00011295
11850.0 0.00010826
11870.0 0.00010429
11890.0 0.00010094
11910.0 9.7952e-05
11930.0 9.5345e-05
11950.0 9.3132e-05
11970.0 9.1131e-05
11990.0 8.9229e-05
12010.0 8.7464e-05
12030.0 8.5767e-05
12050.0 8.4031e-05
12070.0 8.2246e-05
12090.0 8.0528e-05
12110.0 7.8792e-05
12130.0 7.7053e-05
12150.0 7.543e-05
12170.0 7.3979e-05
12190.0 7.2674e-05
12210.0 7.1668e-05
12230.0 7.1024e-05
12250.0 7.0764e-05
12270.0 7.0971e-05
12290.0 7.1652e-05
12310.0 7.277e-05
12330.0 7.4449e-05
12350.0 7.6621e-05
12370.0 7.914e-05
12390.0 8.2089e-05
12410.0 8.5586e-05
12430.0 8.9151e-05
12450.0 9.2853e-05
12470.0 9.6802e-05
12490.0 0.00010077
12510.0 0.00010448
12530.0 0.00010817
12550.0 0.00011173
12570.0 0.00011484
12590.0 0.00011756
12610.0 0.00011996
12630.0 0.00012184
12650.0 0.00012309
12670.0 0.00012386
12690.0 0.00012407
12710.0 0.00012372
12730.0 0.00012284
12750.0 0.00012142
12770.0 0.00011951
12790.0 0.00011724
12810.0 0.00011456
12830.0 0.00011149
12850.0 0.00010829
12870.0 0.00010493
12890.0 0.00010131
12910.0 9.7644e-05
12930.0 9.4042e-05
12950.0 9.0302e-05
12970.0 8.6511e-05
12990.0 8.2929e-05
13010.0 7.9401e-05
13030.0 7.5844e-05
13050.0 7.2431e-05
13070.0 6.9233e-05
13090.0 6.6027e-05
13110.0 6.2923e-05
13130.0 6.0055e-05
13150.0 5.7332e-05
13170.0 5.466e-05
13190.0 5.2267e-05
13210.0 5.0146e-05
13230.0 4.8191e-05
13250.0 4.6486e-05
13270.0 4.5112e-05
13290.0 4.401e-05
13310.0 4.3203e-05
13330.0 4.2758e-05
13350.0 4.2654e-05
13370.0 4.2904e-05
13390.0 4.3533e-05
13410.0 4.4445e-05
13430.0 4.5676e-05
13450.0 4.7235e-05
13470.0 4.8995e-05
13490.0 5.0881e-05
13510.0 5.3035e-05
13530.0 5.5241e-05
13550.0 5.737e-05
13570.0 5.9488e-05
13590.0 6.1572e-05
13610.0 6.3442e-05
13630.0 6.5088e-05
13650.0 6.6608e-05
13670.0 6.7884e-05
13690.0 6.8885e-05
13710.0 6.9675e-05
13730.0 7.0258e-05
13750.0 7.0572e-05
13770.0 7.0679e-05
13790.0 7.0592e-05
13810.0 7.031e-05
13830.0 6.9869e-05
13850.0 6.9256e-05
13870.0 6.8473e-05
13890.0 6.757e-05
13910.0 6.6548e-05
13930.0 6.5363e-05
13950.0 6.4068e-05
13970.0 6.2744e-05
13990.0 6.1303e-05
14010.0 5.9772e-05
14030.0 5.8247e-05
14050.0 5.6711e-05
14070.0 5.5091e-05
14090.0 5.354e-05
14110.0 5.2081e-05
14130.0 5.0666e-05
14150.0 4.9333e-05
14170.0 4.8191e-05
14190.0 4.7199e-05
14210.0 4.6352e-05
14230.0 4.5717e-05
14250.0 4.5297e-05
14270.0 4.5077e-05
14290.0 4.5089e-05
14310.0 4.5314e-05
14330.0 4.5741e-05
14350.0 4.6384e-05
14370.0 4.7197e-05
14390.0 4.8129e-05
14410.0 4.9236e-05
14430.0 5.0462e-05
14450.0 5.1722e-05
14470.0 5.3039e-05
14490.0 5.445e-05
14510.0 5.5808e-05
14530.0 5.7107e-05
14550.0 5.8413e-05
14570.0 5.9675e-05
14590.0 6.0829e-05
14610.0 6.195e-05
14630.0 6.306e-05
14650.0 6.4097e-05
14670.0 6.5097e-05
14690.0 6.6137e-05
14710.0 6.7226e-05
14730.0 6.8313e-05
14750.0 6.9514e-05
14770.0 7.0873e-05
14790.0 7.2345e-05
14810.0 7.3942e-05
14830.0 7.5831e-05
14850.0 7.7889e-05
14870.0 8.004e-05
14890.0 8.2364e-05
14910.0 8.4837e-05
14930.0 8.7222e-05
14950.0 8.9459e-05
14970.0 9.1584e-05
14990.0 9.3378e-05
15010.0 9.4765e-05
15030.0 9.581e-05
15050.0 9.6522e-05
15070.0 9.6901e-05
15090.0 9.7074e-05
15110.0 9.7104e-05
15130.0 9.7043e-05
15150.0 9.6939e-05
15170.0 9.6805e-05
15190.0 9.6657e-05
15210.0 9.6513e-05
15230.0 9.637e-05
15250.0 9.6219e-05
15270.0 9.6071e-05
15290.0 9.5935e-05
15310.0 9.5794e-05
15330.0 9.565e-05
15350.0 9.5516e-05
15370.0 9.5383e-05
15390.0 9.524e-05
15410.0 9.5104e-05
15430.0 9.4975e-05
15450.0 9.4841e-05
15470.0 9.4704e-05
15490.0 9.4578e-05
15510.0 9.4452e-05
15530.0 9.4319e-05
15550.0 9.4191e-05
15570.0 9.407e-05
15590.0 9.394e-05
15610.0 9.3807e-05
15630.0 9.3686e-05
15650.0 9.3564e-05
15670.0 9.3435e-05
15690.0 9.3312e-05
15710.0 9.3195e-05
15730.0 9.3069e-05
15750.0 9.2942e-05
15770.0 9.2824e-05
15790.0 9.2703e-05
15810.0 9.2573e-05
15830.0 9.2451e-05
15850.0 9.2335e-05
15870.0 9.221e-05
15890.0 9.2086e-05
15910.0 9.1969e-05
15930.0 9.1848e-05
15950.0 9.1719e-05
15970.0 9.1597e-05
15990.0 9.1478e-05
16010.0 9.1351e-05
16030.0 9.1222e-05
16050.0 9.1105e-05
16070.0 9.0982e-05
16090.0 9.0852e-05
16110.0 9.0729e-05
16130.0 9.0609e-05
16150.0 9.0475e-05
16170.0 9.0345e-05
16190.0 9.0222e-05
16210.0 9.0093e-05
16230.0 8.9959e-05
16250.0 8.9831e-05
16270.0 8.9706e-05
16290.0 8.957e-05
16310.0 8.9436e-05
16330.0 8.9307e-05
16350.0 8.9173e-05
16370.0 8.9028e-05
16390.0 8.8896e-05
16410.0 8.8762e-05
16430.0 8.862e-05
16450.0 8.848e-05
16470.0 8.8347e-05
16490.0 8.8203e-05
16510.0 8.8055e-05
16530.0 8.7914e-05
16550.0 8.7772e-05
16570.0 8.762e-05
16590.0 8.7469e-05
16610.0 8.7328e-05
16630.0 8.7177e-05
16650.0 8.7022e-05
16670.0 8.6874e-05
16690.0 8.6724e-05
16710.0 8.656e-05
16730.0 8.6403e-05
16750.0 8.625e-05
16770.0 8.6089e-05
16790.0 8.5922e-05
16810.0 8.5765e-05
16830.0 8.5605e-05
16850.0 8.5436e-05
16870.0 8.527e-05
16890.0 8.5108e-05
16910.0 8.4934e-05
16930.0 8.4756e-05
16950.0 8.4589e-05
16970.0 8.4418e-05
16990.0 8.4237e-05
17010.0 8.4062e-05
17030.0 8.389e-05
17050.0 8.3707e-05
17070.0 8.3522e-05
17090.0 8.3344e-05
17110.0 8.3161e-05
17130.0 8.2967e-05
17150.0 8.278e-05
17170.0 8.2598e-05
17190.0 8.2405e-05
17210.0 8.221e-05
17230.0 8.2024e-05
17250.0 8.1829e-05
17270.0 8.1626e-05
17290.0 8.143e-05
17310.0 8.1235e-05
17330.0 8.103e-05
17350.0 8.0822e-05
17370.0 8.0626e-05
17390.0 8.0422e-05
17410.0 8.0211e-05
17430.0 8.0006e-05
17450.0 7.9803e-05
17470.0 7.9583e-05
17490.0 7.9368e-05
17510.0 7.916e-05
17530.0 7.8945e-05
17550.0 7.8723e-05
17570.0 7.8509e-05
17590.0 7.8295e-05
17610.0 7.807e-05
17630.0 7.7847e-05
17650.0 7.7629e-05
17670.0 7.7404e-05
17690.0 7.7168e-05
17710.0 7.6946e-05
17730.0 7.6722e-05
17750.0 7.6489e-05
17770.0 7.6257e-05
17790.0 7.6033e-05
17810.0 7.5797e-05
17830.0 7.5558e-05
17850.0 7.5326e-05
17870.0 7.5092e-05
17890.0 7.4848e-05
17910.0 7.4607e-05
17930.0 7.4375e-05
17950.0 7.4133e-05
17970.0 7.3887e-05
17990.0 7.3649e-05
18010.0 7.3409e-05
18030.0 7.3155e-05
18050.0 7.2909e-05
18070.0 7.2667e-05
18090.0 7.2417e-05
18110.0 7.2163e-05
18130.0 7.192e-05
18150.0 7.1672e-05
18170.0 7.1416e-05
18190.0 7.1164e-05
18210.0 7.0918e-05
18230.0 7.0659e-05
18250.0 7.0398e-05
18270.0 7.0148e-05
18290.0 6.9894e-05
18310.0 6.9632e-05
18330.0 6.9376e-05
18350.0 6.9125e-05
18370.0 6.8862e-05
18390.0 6.8599e-05
18410.0 6.8344e-05
18430.0 6.8084e-05
18450.0 6.7814e-05
18470.0 6.7555e-05
18490.0 6.7298e-05
18510.0 6.7032e-05
18530.0 6.6767e-05
18550.0 6.651e-05
18570.0 6.6246e-05
18590.0 6.5974e-05
18610.0 6.571e-05
18630.0 6.5449e-05
18650.0 6.5179e-05
18670.0 6.4908e-05
18690.0 6.4649e-05
18710.0 6.4383e-05
18730.0 6.4111e-05
18750.0 6.3846e-05
18770.0 6.3585e-05
18790.0 6.3307e-05
18810.0 6.3037e-05
18830.0 6.2774e-05
18850.0 6.2505e-05
18870.0 6.223e-05
18890.0 6.1966e-05
18910.0 6.1701e-05
18930.0 6.1427e-05
18950.0 6.1156e-05
18970.0 6.0892e-05
18990.0 6.0621e-05
19010.0 6.0341e-05
19030.0 6.0077e-05
19050.0 5.9811e-05
19070.0 5.9537e-05
19090.0 5.9266e-05
19110.0 5.9005e-05
19130.0 5.8731e-05
19150.0 5.8456e-05
19170.0 5.8189e-05
19190.0 5.7922e-05
19210.0 5.7646e-05
19230.0 5.7374e-05
19250.0 5.7112e-05
19270.0 5.6841e-05
19290.0 5.6569e-05
19310.0 5.6304e-05
19330.0 5.6038e-05
19350.0 5.576e-05
19370.0 5.5492e-05
19390.0 5.5228e-05
19410.0 5.4957e-05
19430.0 5.4684e-05
19450.0 5.4422e-05
19470.0 5.4157e-05
19490.0 5.3884e-05
19510.0 5.3618e-05
19530.0 5.3357e-05
19550.0 5.3085e-05
19570.0 5.2812e-05
19590.0 5.2551e-05
19610.0 5.2287e-05
19630.0 5.2016e-05
19650.0 5.1753e-05
19670.0 5.1494e-05
19690.0 5.1224e-05
19710.0 5.0957e-05
19730.0 5.0698e-05
19750.0 5.0434e-05
19770.0 5.0163e-05
19790.0 4.9902e-05
19810.0 4.9644e-05
19830.0 4.9377e-05
19850.0 4.911e-05
19870.0 4.8848e-05
19890.0 4.8569e-05
19910.0 4.8265e-05
19930.0 4.7945e-05
19950.0 4.7584e-05
19970.0 4.7148e-05
19990.0 4.6631e-05
20010.0 4.1976e-05
20030.0 4.1341e-05
20050.0 4.0605e-05
20070.0 3.9811e-05
20090.0 3.8962e-05
20110.0 3.8007e-05
20130.0 3.7044e-05
20150.0 3.6092e-05
20170.0 3.5108e-05
20190.0 3.4112e-05
20210.0 3.3173e-05
20230.0 3.2258e-05
20250.0 3.1343e-05
20270.0 3.0493e-05
20290.0 2.9717e-05
20310.0 2.8979e-05
20330.0 2.8288e-05
20350.0 2.7711e-05
20370.0 2.7197e-05
20390.0 2.6743e-05
20410.0 2.6373e-05
20430.0 2.6083e-05
20450.0 2.5849e-05
20470.0 2.5686e-05
20490.0 2.559e-05
20510.0 2.5549e-05
20530.0 2.5564e-05
20550.0 2.5627e-05
20570.0 2.5727e-05
20590.0 2.587e-05
20610.0 2.6047e-05
20630.0 2.6246e-05
20650.0 2.6471e-05
20670.0 2.6731e-05
20690.0 2.6998e-05
20710.0 2.7274e-05
20730.0 2.7574e-05
20750.0 2.7887e-05
20770.0 2.8194e-05
20790.0 2.8517e-05
20810.0 2.8857e-05
20830.0 2.9194e-05
20850.0 2.9532e-05
20870.0 2.9892e-05
20890.0 3.0257e-05
20910.0 3.0608e-05
20930.0 3.0971e-05
20950.0 3.1346e-05
20970.0 3.171e-05
20990.0 3.2067e-05
21010.0 3.2443e-05
21030.0 3.2809e-05
21050.0 3.3158e-05
21070.0 3.3505e-05
21090.0 3.3852e-05
21110.0 3.4168e-05
21130.0 3.4464e-05
21150.0 3.475e-05
21170.0 3.5008e-05
21190.0 3.5229e-05
21210.0 3.5428e-05
21230.0 3.5592e-05
21250.0 3.5707e-05
21270.0 3.5777e-05
21290.0 3.58e-05
21310.0 3.5766e-05
21330.0 3.5678e-05
21350.0 3.5527e-05
21370.0 3.5309e-05
21390.0 3.5033e-05
21410.0 3.4695e-05
21430.0 3.427e-05
21450.0 3.3793e-05
21470.0 3.3272e-05
21490.0 3.2685e-05
21510.0 3.204e-05
21530.0 3.1385e-05
21550.0 3.0698e-05
21570.0 2.9966e-05
21590.0 2.9245e-05
21610.0 2.8549e-05
21630.0 2.7851e-05
21650.0 2.7169e-05
21670.0 2.6576e-05
21690.0 2.6028e-05
21710.0 2.5533e-05
21730.0 2.5126e-05
21750.0 2.4809e-05
21770.0 2.4564e-05
21790.0 2.4417e-05
21810.0 2.4367e-05
21830.0 2.4406e-05
21850.0 2.454e-05
21870.0 2.4758e-05
21890.0 2.5044e-05
21910.0 2.5413e-05
21930.0 2.5849e-05
21950.0 2.6323e-05
21970.0 2.685e-05
21990.0 2.7443e-05
22010.0 2.8037e-05
22030.0 2.864e-05
22050.0 2.9276e-05
22070.0 2.9916e-05
22090.0 3.0522e-05
22110.0 3.1134e-05
22130.0 3.1746e-05
22150.0 3.2318e-05
22170.0 3.2858e-05
22190.0 3.3393e-05
22210.0 3.3892e-05
22230.0 3.433e-05
22250.0 3.4743e-05
22270.0 3.5123e-05
22290.0 3.5447e-05
22310.0 3.5725e-05
22330.0 3.5969e-05
22350.0 3.6156e-05
22370.0 3.6287e-05
22390.0 3.6367e-05
22410.0 3.6389e-05
22430.0 3.635e-05
22450.0 3.6253e-05
22470.0 3.6088e-05
22490.0 3.5859e-05
22510.0 3.5574e-05
22530.0 3.5212e-05
22550.0 3.4772e-05
22570.0 3.4285e-05
22590.0 3.3737e-05
22610.0 3.3107e-05
22630.0 3.2425e-05
22650.0 3.1721e-05
22670.0 3.0943e-05
22690.0 3.0113e-05
22710.0 2.9275e-05
22730.0 2.8412e-05
