#lamb flux
1010.0 0.00015578
1030.0 0.00020851
1050.0 0.00027853
1070.0 0.00036948
1090.0 0.00048739
1110.0 0.00062975
1130.0 0.00079693
1150.0 0.00099508
1170.0 0.0012236
1190.0 0.0014706
1210.0 0.0017401
1230.0 0.0020316
1250.0 0.0023307
1270.0 0.0026272
1290.0 0.0029268
1310.0 0.0032106
1330.0 0.0034605
1350.0 0.0036772
1370.0 0.003857
1390.0 0.0039825
1410.0 0.0040493
1430.0 0.0040698
1450.0 0.0040364
1470.0 0.003947
1490.0 0.0038145
1510.0 0.0036503
1530.0 0.0034465
1550.0 0.0032188
1570.0 0.0029827
1590.0 0.0027378
1610.0 0.0024872
1630.0 0.0022428
1650.0 0.0020078
1670.0 0.0017817
1690.0 0.0015691
1710.0 0.0013735
1730.0 0.0011941
1750.0 0.0010296
1770.0 0.00088298
1790.0 0.00075309
1810.0 0.00063845
1830.0 0.00053895
1850.0 0.00044848
1870.0 0.0003664
1890.0 0.00029886
1910.0 0.00024546
1930.0 0.00020542
1950.0 0.00019292
1970.0 0.0001927
1990.0 0.00019486
2010.0 0.00019911
2030.0 0.0002053
2050.0 0.00021358
2070.0 0.00024734
2090.0 0.00029366
2110.0 0.00034869
2130.0 0.0004122
2150.0 0.00048342
2170.0 0.0005615
2190.0 0.00064654
2210.0 0.00073332
2230.0 0.00081943
2250.0 0.00090968
2270.0 0.0010042
2290.0 0.0011014
2310.0 0.0012002
2330.0 0.0013012
2350.0 0.0014035
2370.0 0.0015052
2390.0 0.0016067
2410.0 0.0017079
2430.0 0.0018063
2450.0 0.0019013
2470.0 0.0019935
2490.0 0.0020823
2510.0 0.0021668
2530.0 0.0022513
2550.0 0.002342
2570.0 0.002446
2590.0 0.0025732
2610.0 0.0027499
2630.0 0.0029925
2650.0 0.0033058
2670.0 0.0037157
2690.0 0.0042443
2710.0 0.004856
2730.0 0.0055243
2750.0 0.00627
2770.0 0.0070141
2790.0 0.0076828
2810.0 0.0082755
2830.0 0.0087871
2850.0 0.0091343
2870.0 0.0093653
2890.0 0.0095192
2910.0 0.009596
2930.0 0.0095996
2950.0 0.0095764
2970.0 0.0095295
2990.0 0.0094458
3010.0 0.0093409
3030.0 0.0092355
3050.0 0.0091212
3070.0 0.0089829
3090.0 0.008852
3110.0 0.0087299
3130.0 0.0086141
3150.0 0.0081691
3170.0 0.0078483
3190.0 0.0075438
3210.0 0.0073267
3230.0 0.0073722
3250.0 0.0082999
3270.0 0.010341
3290.0 0.01167
3310.0 0.010562
3330.0 0.01057
3350.0 0.010815
3370.0 0.011116
3390.0 0.011395
3410.0 0.011515
3430.0 0.01151
3450.0 0.01147
3470.0 0.011494
3490.0 0.011286
3510.0 0.010091
3530.0 0.0075463
3550.0 0.0065358
3570.0 0.010263
3590.0 0.015043
3610.0 0.017894
3630.0 0.024011
3650.0 0.024758
3670.0 0.020603
3690.0 0.015848
3710.0 0.013334
3730.0 0.013785
3750.0 0.014366
3770.0 0.014903
3790.0 0.015443
3810.0 0.017359
3830.0 0.015967
3850.0 0.0133
3870.0 0.011873
3890.0 0.013696
3910.0 0.014997
3930.0 0.015122
3950.0 0.016347
3970.0 0.017738
3990.0 0.017495
4010.0 0.018317
4030.0 0.017574
4050.0 0.016788
4070.0 0.016176
4090.0 0.016347
4110.0 0.016837
4130.0 0.016454
4150.0 0.015579
4170.0 0.015125
4190.0 0.015144
4210.0 0.013714
4230.0 0.012412
4250.0 0.010779
4270.0 0.0091348
4290.0 0.008914
4310.0 0.0086547
4330.0 0.0087247
4350.0 0.010362
4370.0 0.010582
4390.0 0.01201
4410.0 0.012972
4430.0 0.013602
4450.0 0.012085
4470.0 0.010302
4490.0 0.0097887
4510.0 0.0091936
4530.0 0.0088237
4550.0 0.0084057
4570.0 0.0083082
4590.0 0.0084643
4610.0 0.0078961
4630.0 0.007539
4650.0 0.0070076
4670.0 0.006838
4690.0 0.0059905
4710.0 0.0053655
4730.0 0.0046033
4750.0 0.0041804
4770.0 0.0029276
4790.0 0.0029764
4810.0 0.0028068
4830.0 0.0011599
4850.0 0.0019732
4870.0 0.0010033
4890.0 0.0012241
4910.0 0.0024553
4930.0 0.0025963
4950.0 0.00097931
4970.0 0.0011118
4990.0 0.0012057
5010.0 0.00071497
5030.0 0.00065206
5050.0 0.0011683
5070.0 0.0010904
5090.0 0.001167
5110.0 0.001332
5130.0 0.0012086
5150.0 0.00152
5170.0 0.00082532
5190.0 0.00076255
5210.0 0.0010692
5230.0 0.00079248
5250.0 0.0013256
5270.0 0.0025125
5290.0 0.002431
5310.0 0.0016959
5330.0 0.0018
5350.0 0.0010941
5370.0 0.001231
5390.0 0.0015916
5410.0 0.001418
5430.0 0.0020494
5450.0 0.0013321
5470.0 0.0013312
5490.0 0.002934
5510.0 0.0029673
5530.0 0.0030497
5550.0 0.0029064
5570.0 0.0033257
5590.0 0.00383
5610.0 0.0038772
5630.0 0.0037146
5650.0 0.0037848
5670.0 0.0037568
5690.0 0.0039148
5710.0 0.0035661
5730.0 0.0038473
5750.0 0.0038168
5770.0 0.0035993
5790.0 0.0039799
5810.0 0.0041041
5830.0 0.0040513
5850.0 0.003655
5870.0 0.0034141
5890.0 0.0034609
5910.0 0.0039804
5930.0 0.0038902
5950.0 0.0041068
5970.0 0.0041811
5990.0 0.004445
6010.0 0.0043118
6030.0 0.0043942
6050.0 0.0043691
6070.0 0.0040652
6090.0 0.0043321
6110.0 0.0044404
6130.0 0.0042218
6150.0 0.0042194
6170.0 0.0042701
6190.0 0.0035909
6210.0 0.003638
6230.0 0.0038506
6250.0 0.0038282
6270.0 0.0038136
6290.0 0.0040901
6310.0 0.0044376
6330.0 0.0044783
6350.0 0.0043567
6370.0 0.0044571
6390.0 0.0040949
6410.0 0.0041827
6430.0 0.0039734
6450.0 0.0040385
6470.0 0.0041099
6490.0 0.0041595
6510.0 0.0038216
6530.0 0.0038475
6550.0 0.0037894
6570.0 0.0035805
6590.0 0.0037789
6610.0 0.0037924
6630.0 0.0037434
6650.0 0.0035044
6670.0 0.0033751
6690.0 0.0032716
6710.0 0.0031239
6730.0 0.0030264
6750.0 0.0030385
6770.0 0.0029416
6790.0 0.0022316
6810.0 0.0024756
6830.0 0.0027482
6850.0 0.0024577
6870.0 0.0024071
6890.0 0.0023563
6910.0 0.0023212
6930.0 0.0022247
6950.0 0.0023252
6970.0 0.0022284
6990.0 0.0021811
7010.0 0.0021561
7030.0 0.0022554
7050.0 0.0022035
7070.0 0.001821
7090.0 0.0014985
7110.0 0.0013825
7130.0 0.0014987
7150.0 0.0015375
7170.0 0.001504
7190.0 0.0012744
7210.0 0.0015788
7230.0 0.0018263
7250.0 0.0017816
7270.0 0.0017995
7290.0 0.0019103
7310.0 0.0016774
7330.0 0.001579
7350.0 0.0014687
7370.0 0.0016296
7390.0 0.0018559
7410.0 0.0014431
7430.0 0.0014888
7450.0 0.0014452
7470.0 0.0016709
7490.0 0.0016981
7510.0 0.0014684
7530.0 0.0015984
7550.0 0.00091707
7570.0 0.00074175
7590.0 0.0011094
7610.0 0.0014169
7630.0 0.0012302
7650.0 0.0014206
7670.0 0.0009478
7690.0 0.00052345
7710.0 0.0007374
7730.0 0.0011233
7750.0 0.00074833
7770.0 0.0012219
7790.0 0.0013778
7810.0 0.001122
7830.0 0.0013768
7850.0 0.00099209
7870.0 0.001309
7890.0 0.0010907
7910.0 0.0010829
7930.0 0.00079266
7950.0 0.00048026
7970.0 0.00072102
7990.0 0.00096651
8010.0 0.0029499
8030.0 0.0028603
8050.0 0.0028135
8070.0 0.0027343
8090.0 0.0025188
8110.0 0.0024542
8130.0 0.002716
8150.0 0.0028952
8170.0 0.002997
8190.0 0.0031483
8210.0 0.0030058
8230.0 0.0030107
8250.0 0.0029851
8270.0 0.0030116
8290.0 0.0029851
8310.0 0.0028295
8330.0 0.0027229
8350.0 0.0028179
8370.0 0.0028702
8390.0 0.0027901
8410.0 0.0027589
8430.0 0.0026569
8450.0 0.0025738
8470.0 0.0027823
8490.0 0.0027952
8510.0 0.0026068
8530.0 0.0026162
8550.0 0.0025848
8570.0 0.0023822
8590.0 0.0024213
8610.0 0.0024244
8630.0 0.0025374
8650.0 0.0025506
8670.0 0.002575
8690.0 0.0025174
8710.0 0.0024676
8730.0 0.0023623
8750.0 0.0023061
8770.0 0.0022884
8790.0 0.0024162
8810.0 0.0022534
8830.0 0.0022116
8850.0 0.0023472
8870.0 0.0022211
8890.0 0.0020385
8910.0 0.002014
8930.0 0.0020625
8950.0 0.0018879
8970.0 0.0018065
8990.0 0.0017636
9010.0 0.0016531
9030.0 0.0016272
9050.0 0.0016198
9070.0 0.0016133
9090.0 0.0016067
9110.0 0.0016
9130.0 0.0015933
9150.0 0.0015865
9170.0 0.0015797
9190.0 0.0015728
9210.0 0.0015658
9230.0 0.0015588
9250.0 0.0015517
9270.0 0.0015446
9290.0 0.0015375
9310.0 0.0015314
9330.0 0.0015268
9350.0 0.0015223
9370.0 0.0015177
9390.0 0.0015129
9410.0 0.0015082
9430.0 0.0015034
9450.0 0.0014985
9470.0 0.0014943
9490.0 0.0014897
9510.0 0.0014843
9530.0 0.0014788
9550.0 0.0014736
9570.0 0.0014683
9590.0 0.001463
9610.0 0.0014594
9630.0 0.001456
9650.0 0.0014525
9670.0 0.0014488
9690.0 0.0014452
9710.0 0.0014415
9730.0 0.0014377
9750.0 0.0014338
9770.0 0.00143
9790.0 0.0014261
9810.0 0.001422
9830.0 0.001418
9850.0 0.0014132
9870.0 0.0014075
9890.0 0.0014043
9910.0 0.0014007
9930.0 0.0013962
9950.0 0.001392
9970.0 0.001388
9990.0 0.0013839
10010.0 0.0013797
10030.0 0.0013754
10050.0 0.001371
10070.0 0.0013666
10090.0 0.0013621
10110.0 0.0013576
10130.0 0.0013531
10150.0 0.0013486
10170.0 0.0013441
10190.0 0.0013395
10210.0 0.001335
10230.0 0.0013304
10250.0 0.0013258
10270.0 0.0013213
10290.0 0.0013167
10310.0 0.0013121
10330.0 0.0013075
10350.0 0.001303
10370.0 0.0012984
10390.0 0.0012938
10410.0 0.0012882
10430.0 0.0012823
10450.0 0.0012789
10470.0 0.0012748
10490.0 0.0012707
10510.0 0.0012664
10530.0 0.0012619
10550.0 0.0012575
10570.0 0.0012531
10590.0 0.0012486
10610.0 0.0012441
10630.0 0.0012397
10650.0 0.0012354
10670.0 0.0012309
10690.0 0.0012265
10710.0 0.0012222
10730.0 0.0012179
10750.0 0.0012135
10770.0 0.0012093
10790.0 0.001205
10810.0 0.0012008
10830.0 0.0011965
10850.0 0.0011924
10870.0 0.0011882
10890.0 0.0011839
10910.0 0.0011796
10930.0 0.0011752
10950.0 0.0011705
10970.0 0.0011656
10990.0 0.0011605
11010.0 0.0011075
11030.0 0.0011013
11050.0 0.0010938
11070.0 0.0010853
11090.0 0.0010756
11110.0 0.0010656
11130.0 0.0010551
11150.0 0.0010441
11170.0 0.0010329
11190.0 0.0010218
11210.0 0.0010104
11230.0 0.00099882
11250.0 0.00098741
11270.0 0.00097616
11290.0 0.00096476
11310.0 0.00095352
11330.0 0.00094288
11350.0 0.00093235
11370.0 0.00092201
11390.0 0.00091218
11410.0 0.00090274
11430.0 0.00089335
11450.0 0.00088435
11470.0 0.00087573
11490.0 0.00086722
11510.0 0.00085876
11530.0 0.00085058
11550.0 0.0008425
11570.0 0.0008343
11590.0 0.00082614
11610.0 0.00081807
11630.0 0.00080981
11650.0 0.00080138
11670.0 0.00079305
11690.0 0.00078463
11710.0 0.00077597
11730.0 0.00076728
11750.0 0.00075868
11770.0 0.00074985
11790.0 0.00074092
11810.0 0.00073212
11830.0 0.00072334
11850.0 0.00071435
11870.0 0.00070561
11890.0 0.00069714
11910.0 0.00068871
11930.0 0.00068044
11950.0 0.00067261
11970.0 0.00066501
11990.0 0.00065759
12010.0 0.00065064
12030.0 0.00064411
12050.0 0.00063789
12070.0 0.00063203
12090.0 0.00062671
12110.0 0.00062173
12130.0 0.0006171
12150.0 0.00061286
12170.0 0.00060895
12190.0 0.00060531
12210.0 0.00060192
12230.0 0.00059872
12250.0 0.00059566
12270.0 0.00059268
12290.0 0.00058972
12310.0 0.00058673
12330.0 0.00058365
12350.0 0.00058043
12370.0 0.00057707
12390.0 0.00057349
12410.0 0.00056963
12430.0 0.00056557
12450.0 0.00056127
12470.0 0.00055665
12490.0 0.00055175
12510.0 0.00054671
12530.0 0.00054134
12550.0 0.00053564
12570.0 0.00052982
12590.0 0.00052385
12610.0 0.00051753
12630.0 0.00051103
12650.0 0.00050465
12670.0 0.00049804
12690.0 0.00049127
12710.0 0.00048462
12730.0 0.00047803
12750.0 0.00047118
12770.0 0.00046451
12790.0 0.00045808
12810.0 0.00045165
12830.0 0.00044524
12850.0 0.00043923
12870.0 0.00043343
12890.0 0.00042769
12910.0 0.00042226
12930.0 0.00041724
12950.0 0.00041237
12970.0 0.00040779
12990.0 0.00040373
13010.0 0.00040004
13030.0 0.00039666
13050.0 0.00039374
13070.0 0.00039128
13090.0 0.00038913
13110.0 0.00038736
13130.0 0.00038595
13150.0 0.00038484
13170.0 0.00038397
13190.0 0.00038333
13210.0 0.00038284
13230.0 0.00038248
13250.0 0.0003822
13270.0 0.00038196
13290.0 0.00038173
13310.0 0.00038148
13330.0 0.00038117
13350.0 0.00038078
13370.0 0.00038029
13390.0 0.00037965
13410.0 0.00037888
13430.0 0.00037794
13450.0 0.00037678
13470.0 0.00037546
13490.0 0.00037399
13510.0 0.00037223
13530.0 0.00037031
13550.0 0.00036831
13570.0 0.00036615
13590.0 0.00036379
13610.0 0.00036142
13630.0 0.00035904
13650.0 0.00035647
13670.0 0.00035384
13690.0 0.00035126
13710.0 0.00034858
13730.0 0.00034567
13750.0 0.00034289
13770.0 0.00034006
13790.0 0.00033707
13810.0 0.00033403
13830.0 0.0003311
13850.0 0.000328
13870.0 0.00032481
13890.0 0.00032174
13910.0 0.00031871
13930.0 0.00031556
13950.0 0.00031248
13970.0 0.00030966
13990.0 0.00030683
14010.0 0.00030405
14030.0 0.00030151
14050.0 0.00029912
14070.0 0.00029672
14090.0 0.00029455
14110.0 0.00029261
14130.0 0.00029075
14150.0 0.00028898
14170.0 0.00028746
14190.0 0.00028606
14210.0 0.00028469
14230.0 0.00028345
14250.0 0.00028235
14270.0 0.00028125
14290.0 0.00028019
14310.0 0.00027929
14330.0 0.00027844
14350.0 0.00027759
14370.0 0.00027684
14390.0 0.00027621
14410.0 0.00027558
14430.0 0.000275
14450.0 0.00027454
14470.0 0.00027414
14490.0 0.00027372
14510.0 0.0002734
14530.0 0.00027316
14550.0 0.0002729
14570.0 0.00027265
14590.0 0.00027247
14610.0 0.00027226
14630.0 0.00027201
14650.0 0.00027178
14670.0 0.00027157
14690.0 0.00027129
14710.0 0.00027097
14730.0 0.00027071
14750.0 0.00027039
14770.0 0.00027
14790.0 0.0002696
14810.0 0.0002692
14830.0 0.00026866
14850.0 0.00026809
14870.0 0.00026754
14890.0 0.00026692
14910.0 0.00026624
14930.0 0.00026562
14950.0 0.00026508
14970.0 0.00026454
14990.0 0.00026413
15010.0 0.00026388
15030.0 0.00026373
15050.0 0.00026366
15070.0 0.00026375
15090.0 0.0002639
15110.0 0.00026408
15130.0 0.00026428
15150.0 0.00026452
15170.0 0.00026473
15190.0 0.00026492
15210.0 0.00026512
15230.0 0.00026532
15250.0 0.00026548
15270.0 0.00026563
15290.0 0.0002658
15310.0 0.00026593
15330.0 0.00026604
15350.0 0.00026616
15370.0 0.00026626
15390.0 0.00026632
15410.0 0.00026638
15430.0 0.00026644
15450.0 0.00026647
15470.0 0.00026647
15490.0 0.00026648
15510.0 0.00026648
15530.0 0.00026644
15550.0 0.00026639
15570.0 0.00026634
15590.0 0.00026625
15610.0 0.00026613
15630.0 0.00026603
15650.0 0.00026591
15670.0 0.00026575
15690.0 0.00026558
15710.0 0.00026542
15730.0 0.00026521
15750.0 0.00026498
15770.0 0.00026476
15790.0 0.00026451
15810.0 0.00026421
15830.0 0.00026393
15850.0 0.00026364
15870.0 0.00026331
15890.0 0.00026296
15910.0 0.00026262
15930.0 0.00026225
15950.0 0.00026184
15970.0 0.00026143
15990.0 0.00026102
16010.0 0.00026056
16030.0 0.00026008
16050.0 0.00025963
16070.0 0.00025914
16090.0 0.00025862
16110.0 0.0002581
16130.0 0.00025758
16150.0 0.00025699
16170.0 0.00025641
16190.0 0.00025583
16210.0 0.00025523
16230.0 0.00025459
16250.0 0.00025396
16270.0 0.00025333
16290.0 0.00025265
16310.0 0.00025196
16330.0 0.00025129
16350.0 0.00025058
16370.0 0.00024982
16390.0 0.0002491
16410.0 0.00024836
16430.0 0.00024759
16450.0 0.00024681
16470.0 0.00024604
16490.0 0.00024524
16510.0 0.00024441
16530.0 0.00024359
16550.0 0.00024276
16570.0 0.0002419
16590.0 0.00024103
16610.0 0.00024018
16630.0 0.0002393
16650.0 0.00023839
16670.0 0.0002375
16690.0 0.00023661
16710.0 0.00023566
16730.0 0.00023473
16750.0 0.0002338
16770.0 0.00023285
16790.0 0.00023187
16810.0 0.00023092
16830.0 0.00022996
16850.0 0.00022896
16870.0 0.00022798
16890.0 0.000227
16910.0 0.00022598
16930.0 0.00022495
16950.0 0.00022395
16970.0 0.00022293
16990.0 0.00022189
17010.0 0.00022086
17030.0 0.00021984
17050.0 0.00021878
17070.0 0.00021772
17090.0 0.00021668
17110.0 0.00021563
17130.0 0.00021453
17150.0 0.00021347
17170.0 0.00021242
17190.0 0.00021133
17210.0 0.00021025
17230.0 0.00020918
17250.0 0.0002081
17270.0 0.00020699
17290.0 0.0002059
17310.0 0.00020482
17330.0 0.00020372
17350.0 0.0002026
17370.0 0.00020153
17390.0 0.00020043
17410.0 0.00019932
17430.0 0.00019822
17450.0 0.00019714
17470.0 0.00019601
17490.0 0.00019489
17510.0 0.0001938
17530.0 0.0001927
17550.0 0.00019158
17570.0 0.00019048
17590.0 0.00018939
17610.0 0.00018827
17630.0 0.00018717
17650.0 0.00018608
17670.0 0.00018498
17690.0 0.00018384
17710.0 0.00018276
17730.0 0.00018167
17750.0 0.00018056
17770.0 0.00017947
17790.0 0.0001784
17810.0 0.0001773
17830.0 0.00017619
17850.0 0.00017511
17870.0 0.00017404
17890.0 0.00017294
17910.0 0.00017185
17930.0 0.00017079
17950.0 0.00016972
17970.0 0.00016863
17990.0 0.00016758
18010.0 0.00016652
18030.0 0.00016544
18050.0 0.00016438
18070.0 0.00016334
18090.0 0.00016228
18110.0 0.00016122
18130.0 0.00016019
18150.0 0.00015915
18170.0 0.0001581
18190.0 0.00015707
18210.0 0.00015606
18230.0 0.00015502
18250.0 0.00015398
18270.0 0.00015298
18290.0 0.00015197
18310.0 0.00015095
18330.0 0.00014995
18350.0 0.00014897
18370.0 0.00014796
18390.0 0.00014696
18410.0 0.00014599
18430.0 0.00014501
18450.0 0.00014401
18470.0 0.00014304
18490.0 0.00014209
18510.0 0.00014112
18530.0 0.00014016
18550.0 0.00013922
18570.0 0.00013828
18590.0 0.00013731
18610.0 0.00013638
18630.0 0.00013546
18650.0 0.00013452
18670.0 0.00013359
18690.0 0.00013269
18710.0 0.00013178
18730.0 0.00013086
18750.0 0.00012996
18770.0 0.00012908
18790.0 0.00012816
18810.0 0.00012727
18830.0 0.0001264
18850.0 0.00012552
18870.0 0.00012464
18890.0 0.00012378
18910.0 0.00012293
18930.0 0.00012206
18950.0 0.00012121
18970.0 0.00012038
18990.0 0.00011953
19010.0 0.00011867
19030.0 0.00011786
19050.0 0.00011704
19070.0 0.00011621
19090.0 0.00011539
19110.0 0.0001146
19130.0 0.00011378
19150.0 0.00011297
19170.0 0.00011218
19190.0 0.0001114
19210.0 0.0001106
19230.0 0.00010981
19250.0 0.00010905
19270.0 0.00010828
19290.0 0.0001075
19310.0 0.00010675
19330.0 0.000106
19350.0 0.00010523
19370.0 0.00010448
19390.0 0.00010375
19410.0 0.000103
19430.0 0.00010226
19450.0 0.00010154
19470.0 0.00010082
19490.0 0.00010009
19510.0 9.9373e-05
19530.0 9.8673e-05
19550.0 9.7952e-05
19570.0 9.7234e-05
19590.0 9.6546e-05
19610.0 9.5853e-05
19630.0 9.5149e-05
19650.0 9.4465e-05
19670.0 9.3795e-05
19690.0 9.3102e-05
19710.0 9.2419e-05
19730.0 9.1755e-05
19750.0 9.1086e-05
19770.0 9.0401e-05
19790.0 8.9743e-05
19810.0 8.9096e-05
19830.0 8.8433e-05
19850.0 8.7777e-05
19870.0 8.7146e-05
19890.0 8.6504e-05
19910.0 8.5861e-05
19930.0 8.5255e-05
19950.0 8.4674e-05
19970.0 8.411e-05
19990.0 8.359e-05
20010.0 8.3135e-05
20030.0 8.2718e-05
20050.0 8.2349e-05
20070.0 8.2035e-05
20090.0 8.1765e-05
20110.0 8.1523e-05
20130.0 8.1317e-05
20150.0 8.1138e-05
20170.0 8.0976e-05
20190.0 8.0831e-05
20210.0 8.07e-05
20230.0 8.0579e-05
20250.0 8.0465e-05
20270.0 8.0356e-05
20290.0 8.0249e-05
20310.0 8.0141e-05
20330.0 8.0029e-05
20350.0 7.9914e-05
20370.0 7.9793e-05
20390.0 7.9663e-05
20410.0 7.9526e-05
20430.0 7.9383e-05
20450.0 7.923e-05
20470.0 7.907e-05
20490.0 7.8906e-05
20510.0 7.8739e-05
20530.0 7.8566e-05
20550.0 7.8394e-05
20570.0 7.8225e-05
20590.0 7.8055e-05
20610.0 7.7887e-05
20630.0 7.7724e-05
20650.0 7.7563e-05
20670.0 7.74e-05
20690.0 7.7241e-05
20710.0 7.7081e-05
20730.0 7.6916e-05
20750.0 7.6745e-05
20770.0 7.6569e-05
20790.0 7.6381e-05
20810.0 7.6179e-05
20830.0 7.5963e-05
20850.0 7.5733e-05
20870.0 7.5479e-05
20890.0 7.5205e-05
20910.0 7.4918e-05
20930.0 7.461e-05
20950.0 7.4277e-05
20970.0 7.3933e-05
20990.0 7.3576e-05
21010.0 7.3194e-05
21030.0 7.2801e-05
21050.0 7.2406e-05
21070.0 7.1996e-05
21090.0 7.1571e-05
21110.0 7.1152e-05
21130.0 7.0729e-05
21150.0 7.0293e-05
21170.0 6.9854e-05
21190.0 6.942e-05
21210.0 6.8969e-05
21230.0 6.8506e-05
21250.0 6.8046e-05
21270.0 6.7576e-05
21290.0 6.7085e-05
21310.0 6.6583e-05
21330.0 6.6079e-05
21350.0 6.555e-05
21370.0 6.5e-05
21390.0 6.4398e-05
21410.0 6.3779e-05
21430.0 6.312e-05
21450.0 6.2452e-05
21470.0 6.1777e-05
21490.0 6.1072e-05
21510.0 6.0343e-05
21530.0 5.9612e-05
21550.0 5.8863e-05
21570.0 5.8082e-05
21590.0 5.7294e-05
21610.0 5.6502e-05
21630.0 5.5683e-05
21650.0 5.4837e-05
21670.0 5.4007e-05
21690.0 5.3157e-05
21710.0 5.2281e-05
21730.0 5.1401e-05
21750.0 5.0521e-05
21770.0 4.9603e-05
21790.0 4.8675e-05
21810.0 4.7749e-05
21830.0 4.6806e-05
21850.0 4.5835e-05
21870.0 4.4863e-05
21890.0 4.3892e-05
21910.0 4.2891e-05
21930.0 4.188e-05
21950.0 4.0874e-05
21970.0 3.9852e-05
21990.0 3.8803e-05
22010.0 3.7768e-05
22030.0 3.6734e-05
22050.0 3.5683e-05
22070.0 3.491e-05
22090.0 3.4652e-05
22110.0 3.4393e-05
22130.0 3.4135e-05
22150.0 3.3882e-05
22170.0 3.3635e-05
22190.0 3.3386e-05
22210.0 3.3142e-05
22230.0 3.2905e-05
22250.0 3.2669e-05
22270.0 3.2434e-05
22290.0 3.2203e-05
22310.0 3.1975e-05
22330.0 3.1744e-05
22350.0 3.1516e-05
22370.0 3.1289e-05
22390.0 3.1061e-05
22410.0 3.083e-05
22430.0 3.0601e-05
22450.0 3.0369e-05
22470.0 3.0134e-05
22490.0 2.9898e-05
22510.0 2.966e-05
22530.0 2.9417e-05
22550.0 2.9172e-05
22570.0 2.8925e-05
22590.0 2.8675e-05
22610.0 2.8421e-05
22630.0 2.8164e-05
22650.0 2.7906e-05
22670.0 2.7644e-05
22690.0 2.7379e-05
22710.0 2.7113e-05
22730.0 2.6844e-05
22750.0 2.6571e-05
22770.0 2.6297e-05
22790.0 2.602e-05
22810.0 2.5741e-05
22830.0 2.5458e-05
22850.0 2.5174e-05
22870.0 2.4886e-05
22890.0 2.4594e-05
22910.0 2.4298e-05
22930.0 2.3998e-05
22950.0 2.3694e-05
22970.0 2.3384e-05
22990.0 2.3068e-05
23010.0 2.2746e-05
23030.0 2.2417e-05
23050.0 2.2081e-05
23070.0 2.1737e-05
23090.0 2.1385e-05
23110.0 2.1377e-05
23130.0 2.1393e-05
23150.0 2.1409e-05
23170.0 2.1424e-05
