#lamb flux
1010.0 2.577e-07
1030.0 2.8734e-07
1050.0 3.2144e-07
1070.0 3.5982e-07
1090.0 4.0342e-07
1110.0 4.4814e-07
1130.0 4.9314e-07
1150.0 5.4029e-07
1170.0 5.8892e-07
1190.0 6.3503e-07
1210.0 6.8176e-07
1230.0 7.3006e-07
1250.0 7.7737e-07
1270.0 8.2332e-07
1290.0 8.7187e-07
1310.0 9.2039e-07
1330.0 9.6691e-07
1350.0 1.014e-06
1370.0 1.0625e-06
1390.0 1.1099e-06
1410.0 1.1558e-06
1430.0 1.2039e-06
1450.0 1.2519e-06
1470.0 1.2983e-06
1490.0 1.3452e-06
1510.0 1.3947e-06
1530.0 1.4416e-06
1550.0 1.4878e-06
1570.0 1.5357e-06
1590.0 1.5835e-06
1610.0 1.6292e-06
1630.0 1.6763e-06
1650.0 1.7246e-06
1670.0 1.7712e-06
1690.0 1.8172e-06
1710.0 1.8649e-06
1730.0 1.9128e-06
1750.0 1.9578e-06
1770.0 2.0039e-06
1790.0 2.0509e-06
1810.0 2.0962e-06
1830.0 2.1405e-06
1850.0 2.1874e-06
1870.0 2.2328e-06
1890.0 2.2764e-06
1910.0 2.3206e-06
1930.0 2.3656e-06
1950.0 2.408e-06
1970.0 2.4494e-06
1990.0 2.492e-06
2010.0 2.5333e-06
2030.0 2.5724e-06
2050.0 2.6121e-06
2070.0 2.6522e-06
2090.0 2.6889e-06
2110.0 2.7245e-06
2130.0 2.7604e-06
2150.0 2.7944e-06
2170.0 2.8254e-06
2190.0 2.8568e-06
2210.0 2.8871e-06
2230.0 2.9142e-06
2250.0 2.9397e-06
2270.0 2.9655e-06
2290.0 2.9884e-06
2310.0 3.0078e-06
2330.0 3.0269e-06
2350.0 3.0449e-06
2370.0 3.0601e-06
2390.0 3.0754e-06
2410.0 3.094e-06
2430.0 3.1142e-06
2450.0 3.1382e-06
2470.0 3.1716e-06
2490.0 3.2167e-06
2510.0 3.2688e-06
2530.0 3.3383e-06
2550.0 3.4388e-06
2570.0 3.5812e-06
2590.0 3.7862e-06
2610.0 4.1167e-06
2630.0 4.595e-06
2650.0 5.2058e-06
2670.0 5.9679e-06
2690.0 6.8614e-06
2710.0 7.7572e-06
2730.0 8.5819e-06
2750.0 9.337e-06
2770.0 9.9292e-06
2790.0 1.0335e-05
2810.0 1.06e-05
2830.0 1.0756e-05
2850.0 1.0801e-05
2870.0 1.0786e-05
2890.0 1.0739e-05
2910.0 1.0669e-05
2930.0 1.0583e-05
2950.0 1.0498e-05
2970.0 1.0414e-05
2990.0 1.0328e-05
3010.0 0.00029103
3030.0 0.00028878
3050.0 0.00028656
3070.0 0.00028419
3090.0 0.00028172
3110.0 0.00027887
3130.0 0.0002753
3150.0 0.0002708
3170.0 0.00026494
3190.0 0.00025784
3210.0 0.00024997
3230.0 0.00024171
3250.0 0.00023376
3270.0 0.00022792
3290.0 0.00022405
3310.0 0.0002236
3330.0 0.00022589
3350.0 0.00023062
3370.0 0.00023783
3390.0 0.00024723
3410.0 0.00025766
3430.0 0.00026956
3450.0 0.00028341
3470.0 0.00029865
3490.0 0.00031495
3510.0 0.00033346
3530.0 0.00035356
3550.0 0.00037476
3570.0 0.00039793
3590.0 0.00042407
3610.0 0.00045282
3630.0 0.00048229
3650.0 0.00051355
3670.0 0.00054232
3690.0 0.0005642
3710.0 0.00057602
3730.0 0.00057213
3750.0 0.0005521
3770.0 0.00054167
3790.0 0.00051036
3810.0 0.00041465
3830.0 0.00037668
3850.0 0.00043881
3870.0 0.00035891
3890.0 0.00034049
3910.0 0.00045195
3930.0 0.00058178
3950.0 0.00062922
3970.0 0.00071597
3990.0 0.00064783
4010.0 0.00094213
4030.0 0.00088127
4050.0 0.00079664
4070.0 0.00085018
4090.0 0.00081588
4110.0 0.00087173
4130.0 0.0010292
4150.0 0.0012266
4170.0 0.0010588
4190.0 0.00098014
4210.0 0.0010474
4230.0 0.0012649
4250.0 0.0014454
4270.0 0.0015373
4290.0 0.0014496
4310.0 0.0013791
4330.0 0.0014348
4350.0 0.0017815
4370.0 0.002108
4390.0 0.0017866
4410.0 0.0011928
4430.0 0.00092287
4450.0 0.00081722
4470.0 0.00068722
4490.0 0.00091872
4510.0 0.0014236
4530.0 0.0016745
4550.0 0.0017363
4570.0 0.0017557
4590.0 0.0019994
4610.0 0.0032694
4630.0 0.0043421
4650.0 0.0041935
4670.0 0.0038013
4690.0 0.0040254
4710.0 0.0042698
4730.0 0.0034896
4750.0 0.0023025
4770.0 0.0017319
4790.0 0.0018319
4810.0 0.0018158
4830.0 0.0017619
4850.0 0.0019597
4870.0 0.0025834
4890.0 0.0030097
4910.0 0.00239
4930.0 0.002208
4950.0 0.0025107
4970.0 0.0033922
4990.0 0.0045276
5010.0 0.0050668
5030.0 0.0040612
5050.0 0.0024734
5070.0 0.0017367
5090.0 0.0014294
5110.0 0.001409
5130.0 0.001597
5150.0 0.0015892
5170.0 0.001538
5190.0 0.0014398
5210.0 0.0014783
5230.0 0.0016996
5250.0 0.0019187
5270.0 0.0019331
5290.0 0.0021652
5310.0 0.0026822
5330.0 0.0027868
5350.0 0.0027571
5370.0 0.0030781
5390.0 0.003652
5410.0 0.0032632
5430.0 0.0025786
5450.0 0.002493
5470.0 0.0028757
5490.0 0.0036744
5510.0 0.0046119
5530.0 0.0052694
5550.0 0.0048635
5570.0 0.0043488
5590.0 0.0036801
5610.0 0.0036048
5630.0 0.0037928
5650.0 0.0036677
5670.0 0.0034615
5690.0 0.0029468
5710.0 0.0029295
5730.0 0.002795
5750.0 0.001647
5770.0 0.0013042
5790.0 0.0015546
5810.0 0.0017823
5830.0 0.0024025
5850.0 0.0029227
5870.0 0.003062
5890.0 0.0029125
5910.0 0.0027999
5930.0 0.0027557
5950.0 0.0028689
5970.0 0.0033741
5990.0 0.0029242
6010.0 0.0023196
6030.0 0.0018976
6050.0 0.0016654
6070.0 0.0018554
6090.0 0.0021152
6110.0 0.0022274
6130.0 0.0020664
6150.0 0.0017309
6170.0 0.0016213
6190.0 0.0020006
6210.0 0.0027944
6230.0 0.0036948
6250.0 0.0038327
6270.0 0.0031167
6290.0 0.0026237
6310.0 0.0020349
6330.0 0.0015381
6350.0 0.0014465
6370.0 0.0015323
6390.0 0.001847
6410.0 0.0022717
6430.0 0.0026992
6450.0 0.003262
6470.0 0.003657
6490.0 0.0044667
6510.0 0.0050067
6530.0 0.0048667
6550.0 0.0044676
6570.0 0.0039344
6590.0 0.0038093
6610.0 0.0032418
6630.0 0.0031676
6650.0 0.0029792
6670.0 0.0028288
6690.0 0.0024873
6710.0 0.0023144
6730.0 0.0015722
6750.0 0.0016284
6770.0 0.0019838
6790.0 0.0024672
6810.0 0.0020665
6830.0 0.0021207
6850.0 0.0019278
6870.0 0.0018367
6890.0 0.0016813
6910.0 0.0017933
6930.0 0.0016751
6950.0 0.0018687
6970.0 0.0018918
6990.0 0.0021059
7010.0 0.0021628
7030.0 0.0022049
7050.0 0.0019778
7070.0 0.0018
7090.0 0.001787
7110.0 0.0017672
7130.0 0.0019219
7150.0 0.002133
7170.0 0.0023368
7190.0 0.0024086
7210.0 0.002208
7230.0 0.0022448
7250.0 0.0024927
7270.0 0.0028163
7290.0 0.0032659
7310.0 0.003296
7330.0 0.0029712
7350.0 0.0026478
7370.0 0.002176
7390.0 0.0022468
7410.0 0.0026038
7430.0 0.0029057
7450.0 0.0031322
7470.0 0.0031225
7490.0 0.0030438
7510.0 0.0040078
7530.0 0.003635
7550.0 0.003207
7570.0 0.0022977
7590.0 0.001317
7610.0 0.0010699
7630.0 0.0013186
7650.0 0.0016276
7670.0 0.0022208
7690.0 0.0025139
7710.0 0.002448
7730.0 0.0024487
7750.0 0.0028704
7770.0 0.0028964
7790.0 0.0027167
7810.0 0.0024456
7830.0 0.0025076
7850.0 0.0025113
7870.0 0.0023788
7890.0 0.0019801
7910.0 0.0014819
7930.0 0.0013962
7950.0 0.001256
7970.0 0.001138
7990.0 0.0010985
8010.0 0.0010969
8030.0 0.0010696
8050.0 0.0011054
8070.0 0.0011317
8090.0 0.0012311
8110.0 0.0011551
8130.0 0.00088831
8150.0 0.00085073
8170.0 0.0006866
8190.0 0.0006186
8210.0 0.00080272
8230.0 0.00089321
8250.0 0.00067437
8270.0 0.00058889
8290.0 0.00058513
8310.0 0.00043191
8330.0 0.00027361
8350.0 0.00020839
8370.0 0.00015503
8390.0 0.00024301
8410.0 0.00030085
8430.0 0.00037217
8450.0 0.00041478
8470.0 0.00053296
8490.0 0.00048493
8510.0 0.00044591
8530.0 0.00038682
8550.0 0.0006238
8570.0 0.00084924
8590.0 0.00080526
8610.0 0.0010483
8630.0 0.0011856
8650.0 0.0010247
8670.0 0.0011467
8690.0 0.0013328
8710.0 0.0012115
8730.0 0.0012163
8750.0 0.0010562
8770.0 0.00098844
8790.0 0.0010254
8810.0 0.0010269
8830.0 0.00074417
8850.0 0.00052732
8870.0 0.00042424
8890.0 0.00052564
8910.0 0.00065962
8930.0 0.00077312
8950.0 0.0008784
8970.0 0.00087319
8990.0 0.00077008
9010.0 0.0006299
9030.0 0.00058012
9050.0 0.00059258
9070.0 0.00060364
9090.0 0.00061222
9110.0 0.00062156
9130.0 0.00062865
9150.0 0.0006342
9170.0 0.0006401
9190.0 0.00064641
9210.0 0.00065302
9230.0 0.00066002
9250.0 0.00066724
9270.0 0.00067472
9290.0 0.00068243
9310.0 0.0006903
9330.0 0.00069836
9350.0 0.00070667
9370.0 0.00071515
9390.0 0.0007238
9410.0 0.00073267
9430.0 0.00074177
9450.0 0.00075099
9470.0 0.00076042
9490.0 0.00077007
9510.0 0.00077989
9530.0 0.00078986
9550.0 0.00080008
9570.0 0.00081048
9590.0 0.00082102
9610.0 0.00083175
9630.0 0.00084269
9650.0 0.00085379
9670.0 0.00086502
9690.0 0.00087646
9710.0 0.00088807
9730.0 0.0008998
9750.0 0.00091169
9770.0 0.0009238
9790.0 0.00093601
9810.0 0.00094834
9830.0 0.00096084
9850.0 0.00097348
9870.0 0.0009862
9890.0 0.00099906
9910.0 0.0010121
9930.0 0.0010252
9950.0 0.0010383
9970.0 0.0010516
9990.0 0.0010651
10010.0 0.00099872
10030.0 0.001011
10050.0 0.0010233
10070.0 0.0010355
10090.0 0.0010479
10110.0 0.0010604
10130.0 0.0010729
10150.0 0.0010853
10170.0 0.0010978
10190.0 0.0011103
10210.0 0.0011228
10230.0 0.0011352
10250.0 0.0011477
10270.0 0.00116
10290.0 0.0011724
10310.0 0.0011846
10330.0 0.0011969
10350.0 0.001209
10370.0 0.0012211
10390.0 0.0012331
10410.0 0.0012449
10430.0 0.0012567
10450.0 0.0012683
10470.0 0.0012798
10490.0 0.0012912
10510.0 0.0013024
10530.0 0.0013134
10550.0 0.0013243
10570.0 0.001335
10590.0 0.0013455
10610.0 0.0013559
10630.0 0.001366
10650.0 0.0013759
10670.0 0.0013856
10690.0 0.0013951
10710.0 0.0014043
10730.0 0.0014133
10750.0 0.0014221
10770.0 0.0014305
10790.0 0.0014388
10810.0 0.0014467
10830.0 0.0014543
10850.0 0.0014615
10870.0 0.0014681
10890.0 0.0014738
10910.0 0.0014781
10930.0 0.0014803
10950.0 0.0014792
10970.0 0.001474
10990.0 0.0014642
11010.0 0.0014651
11030.0 0.0014428
11050.0 0.0014156
11070.0 0.0013828
11090.0 0.0013431
11110.0 0.0013019
11130.0 0.0012589
11150.0 0.0012124
11170.0 0.0011647
11190.0 0.0011185
11210.0 0.0010712
11230.0 0.0010231
11250.0 0.00097769
11270.0 0.00093456
11290.0 0.00089188
11310.0 0.00085195
11330.0 0.00081714
11350.0 0.00078451
11370.0 0.00075452
11390.0 0.00072855
11410.0 0.00070568
11430.0 0.00068415
11450.0 0.00066513
11470.0 0.00064811
11490.0 0.00063168
11510.0 0.00061521
11530.0 0.00059934
11550.0 0.00058318
11570.0 0.00056572
11590.0 0.00054755
11610.0 0.00052908
11630.0 0.00050916
11650.0 0.0004881
11670.0 0.00046755
11690.0 0.00044696
11710.0 0.00042598
11730.0 0.00040586
11750.0 0.00038734
11770.0 0.00036932
11790.0 0.00035251
11810.0 0.00033768
11830.0 0.00032436
11850.0 0.00031203
11870.0 0.00030151
11890.0 0.00029253
11910.0 0.0002844
11930.0 0.0002771
11950.0 0.00027067
11970.0 0.00026461
11990.0 0.0002586
12010.0 0.00025277
12030.0 0.00024698
12050.0 0.00024089
12070.0 0.00023452
12090.0 0.0002283
12110.0 0.00022195
12130.0 0.0002155
12150.0 0.00020937
12170.0 0.00020372
12190.0 0.00019837
12210.0 0.00019383
12230.0 0.00019029
12250.0 0.00018773
12270.0 0.00018633
12290.0 0.00018617
12310.0 0.00018714
12330.0 0.00018944
12350.0 0.00019293
12370.0 0.00019729
12390.0 0.00020263
12410.0 0.00020917
12430.0 0.00021588
12450.0 0.00022286
12470.0 0.00023031
12490.0 0.00023773
12510.0 0.00024454
12530.0 0.00025122
12550.0 0.00025751
12570.0 0.00026281
12590.0 0.00026723
12610.0 0.00027095
12630.0 0.00027358
12650.0 0.00027497
12670.0 0.00027542
12690.0 0.00027484
12710.0 0.00027322
12730.0 0.0002707
12750.0 0.00026723
12770.0 0.00026297
12790.0 0.00025812
12810.0 0.00025261
12830.0 0.00024647
12850.0 0.00024014
12870.0 0.00023353
12890.0 0.00022649
12910.0 0.00021934
12930.0 0.00021226
12950.0 0.00020488
12970.0 0.00019733
12990.0 0.00019007
13010.0 0.00018282
13030.0 0.00017542
13050.0 0.0001682
13070.0 0.00016132
13090.0 0.00015435
13110.0 0.00014752
13130.0 0.00014113
13150.0 0.00013502
13170.0 0.00012901
13190.0 0.0001236
13210.0 0.00011878
13230.0 0.00011435
13250.0 0.00011049
13270.0 0.00010736
13290.0 0.00010484
13310.0 0.00010297
13330.0 0.00010186
13350.0 0.00010145
13370.0 0.00010173
13390.0 0.00010275
13410.0 0.00010427
13430.0 0.00010636
13450.0 0.00010901
13470.0 0.00011198
13490.0 0.00011512
13510.0 0.0001187
13530.0 0.00012232
13550.0 0.00012577
13570.0 0.00012918
13590.0 0.00013249
13610.0 0.00013542
13630.0 0.00013796
13650.0 0.00014026
13670.0 0.00014214
13690.0 0.00014353
13710.0 0.00014455
13730.0 0.0001452
13750.0 0.00014539
13770.0 0.00014521
13790.0 0.0001447
13810.0 0.00014386
13830.0 0.00014275
13850.0 0.00014137
13870.0 0.00013972
13890.0 0.0001379
13910.0 0.00013591
13930.0 0.00013368
13950.0 0.00013132
13970.0 0.00012895
13990.0 0.00012643
14010.0 0.00012381
14030.0 0.00012124
14050.0 0.00011869
14070.0 0.00011605
14090.0 0.00011356
14110.0 0.00011125
14130.0 0.00010904
14150.0 0.00010699
14170.0 0.00010525
14190.0 0.00010377
14210.0 0.00010252
14230.0 0.00010161
14250.0 0.00010104
14270.0 0.00010078
14290.0 0.00010088
14310.0 0.0001013
14330.0 0.00010202
14350.0 0.00010308
14370.0 0.0001044
14390.0 0.00010589
14410.0 0.00010767
14430.0 0.00010965
14450.0 0.0001117
14470.0 0.00011387
14490.0 0.00011624
14510.0 0.00011859
14530.0 0.00012092
14550.0 0.00012337
14570.0 0.00012587
14590.0 0.00012831
14610.0 0.00013085
14630.0 0.00013357
14650.0 0.00013631
14670.0 0.00013914
14690.0 0.00014223
14710.0 0.00014558
14730.0 0.00014896
14750.0 0.00015265
14770.0 0.00015671
14790.0 0.00016093
14810.0 0.00016528
14830.0 0.00017016
14850.0 0.00017517
14870.0 0.00018013
14890.0 0.00018522
14910.0 0.00019037
14930.0 0.00019513
14950.0 0.00019944
14970.0 0.0002034
14990.0 0.00020666
15010.0 0.00020911
15030.0 0.00021092
15050.0 0.00021212
15070.0 0.00021275
15090.0 0.00021302
15110.0 0.00021304
15130.0 0.00021291
15150.0 0.00021272
15170.0 0.00021247
15190.0 0.0002122
15210.0 0.00021195
15230.0 0.0002117
15250.0 0.00021143
15270.0 0.00021116
15290.0 0.00021093
15310.0 0.00021069
15330.0 0.00021044
15350.0 0.00021021
15370.0 0.00020998
15390.0 0.00020973
15410.0 0.0002095
15430.0 0.00020928
15450.0 0.00020905
15470.0 0.00020881
15490.0 0.0002086
15510.0 0.00020839
15530.0 0.00020816
15550.0 0.00020794
15570.0 0.00020773
15590.0 0.00020751
15610.0 0.00020727
15630.0 0.00020706
15650.0 0.00020685
15670.0 0.00020662
15690.0 0.0002064
15710.0 0.0002062
15730.0 0.00020597
15750.0 0.00020574
15770.0 0.00020552
15790.0 0.0002053
15810.0 0.00020505
15830.0 0.00020482
15850.0 0.00020461
15870.0 0.00020437
15890.0 0.00020413
15910.0 0.0002039
15930.0 0.00020366
15950.0 0.0002034
15970.0 0.00020316
15990.0 0.00020292
16010.0 0.00020266
16030.0 0.00020238
16050.0 0.00020214
16070.0 0.00020188
16090.0 0.0002016
16110.0 0.00020133
16130.0 0.00020107
16150.0 0.00020077
16170.0 0.00020048
16190.0 0.0002002
16210.0 0.00019991
16230.0 0.0001996
16250.0 0.0001993
16270.0 0.00019901
16290.0 0.00019868
16310.0 0.00019836
16330.0 0.00019805
16350.0 0.00019772
16370.0 0.00019736
16390.0 0.00019703
16410.0 0.00019669
16430.0 0.00019633
16450.0 0.00019597
16470.0 0.00019563
16490.0 0.00019526
16510.0 0.00019487
16530.0 0.0001945
16550.0 0.00019412
16570.0 0.00019371
16590.0 0.00019331
16610.0 0.00019292
16630.0 0.00019251
16650.0 0.00019208
16670.0 0.00019167
16690.0 0.00019126
16710.0 0.0001908
16730.0 0.00019036
16750.0 0.00018992
16770.0 0.00018947
16790.0 0.00018899
16810.0 0.00018854
16830.0 0.00018808
16850.0 0.00018759
16870.0 0.0001871
16890.0 0.00018663
16910.0 0.00018612
16930.0 0.0001856
16950.0 0.0001851
16970.0 0.0001846
16990.0 0.00018406
17010.0 0.00018354
17030.0 0.00018302
17050.0 0.00018247
17070.0 0.00018192
17090.0 0.00018137
17110.0 0.00018082
17130.0 0.00018024
17150.0 0.00017967
17170.0 0.00017911
17190.0 0.00017852
17210.0 0.00017793
17230.0 0.00017735
17250.0 0.00017675
17270.0 0.00017613
17290.0 0.00017553
17310.0 0.00017492
17330.0 0.00017429
17350.0 0.00017365
17370.0 0.00017304
17390.0 0.00017241
17410.0 0.00017175
17430.0 0.00017112
17450.0 0.00017048
17470.0 0.0001698
17490.0 0.00016913
17510.0 0.00016848
17530.0 0.00016781
17550.0 0.00016712
17570.0 0.00016645
17590.0 0.00016578
17610.0 0.00016508
17630.0 0.00016439
17650.0 0.0001637
17670.0 0.000163
17690.0 0.00016227
17710.0 0.00016158
17730.0 0.00016087
17750.0 0.00016015
17770.0 0.00015942
17790.0 0.00015872
17810.0 0.00015799
17830.0 0.00015724
17850.0 0.00015652
17870.0 0.00015579
17890.0 0.00015503
17910.0 0.00015428
17930.0 0.00015356
17950.0 0.00015281
17970.0 0.00015205
17990.0 0.00015131
18010.0 0.00015056
18030.0 0.00014978
18050.0 0.00014902
18070.0 0.00014827
18090.0 0.0001475
18110.0 0.00014672
18130.0 0.00014596
18150.0 0.0001452
18170.0 0.00014441
18190.0 0.00014364
18210.0 0.00014288
18230.0 0.00014209
18250.0 0.00014129
18270.0 0.00014053
18290.0 0.00013975
18310.0 0.00013896
18330.0 0.00013818
18350.0 0.00013741
18370.0 0.00013661
18390.0 0.00013582
18410.0 0.00013504
18430.0 0.00013426
18450.0 0.00013345
18470.0 0.00013266
18490.0 0.00013189
18510.0 0.00013109
18530.0 0.0001303
18550.0 0.00012953
18570.0 0.00012874
18590.0 0.00012793
18610.0 0.00012714
18630.0 0.00012636
18650.0 0.00012556
18670.0 0.00012477
18690.0 0.000124
18710.0 0.00012321
18730.0 0.00012241
18750.0 0.00012163
18770.0 0.00012086
18790.0 0.00012005
18810.0 0.00011926
18830.0 0.00011849
18850.0 0.00011771
18870.0 0.00011692
18890.0 0.00011615
18910.0 0.00011538
18930.0 0.00011459
18950.0 0.00011381
18970.0 0.00011305
18990.0 0.00011227
19010.0 0.00011148
19030.0 0.00011072
19050.0 0.00010996
19070.0 0.00010918
19090.0 0.00010841
19110.0 0.00010767
19130.0 0.00010689
19150.0 0.00010612
19170.0 0.00010537
19190.0 0.00010462
19210.0 0.00010385
19230.0 0.00010309
19250.0 0.00010236
19270.0 0.0001016
19290.0 0.00010085
19310.0 0.00010012
19330.0 9.9379e-05
19350.0 9.8618e-05
19370.0 9.788e-05
19390.0 9.7155e-05
19410.0 9.6415e-05
19430.0 9.5672e-05
19450.0 9.4957e-05
19470.0 9.4235e-05
19490.0 9.3499e-05
19510.0 9.2779e-05
19530.0 9.2072e-05
19550.0 9.1343e-05
19570.0 9.0615e-05
19590.0 8.9916e-05
19610.0 8.9209e-05
19630.0 8.8491e-05
19650.0 8.7792e-05
19670.0 8.7104e-05
19690.0 8.6393e-05
19710.0 8.569e-05
19730.0 8.5007e-05
19750.0 8.4317e-05
19770.0 8.3609e-05
19790.0 8.2929e-05
19810.0 8.2256e-05
19830.0 8.1567e-05
19850.0 8.088e-05
19870.0 8.0208e-05
19890.0 7.9506e-05
19910.0 7.8765e-05
19930.0 7.8003e-05
19950.0 7.7181e-05
19970.0 7.624e-05
19990.0 7.5177e-05
20010.0 7.4193e-05
20030.0 7.2867e-05
20050.0 7.1379e-05
20070.0 6.9818e-05
20090.0 6.8184e-05
20110.0 6.6391e-05
20130.0 6.4613e-05
20150.0 6.2882e-05
20170.0 6.1119e-05
20190.0 5.936e-05
20210.0 5.7714e-05
20230.0 5.6124e-05
20250.0 5.4545e-05
20270.0 5.3084e-05
20290.0 5.1749e-05
20310.0 5.0481e-05
20330.0 4.9294e-05
20350.0 4.8294e-05
20370.0 4.7399e-05
20390.0 4.6605e-05
20410.0 4.5949e-05
20430.0 4.5428e-05
20450.0 4.5003e-05
20470.0 4.47e-05
20490.0 4.4514e-05
20510.0 4.4427e-05
20530.0 4.4441e-05
20550.0 4.4543e-05
20570.0 4.4713e-05
20590.0 4.4965e-05
20610.0 4.5283e-05
20630.0 4.5639e-05
20650.0 4.6046e-05
20670.0 4.6521e-05
20690.0 4.7005e-05
20710.0 4.7505e-05
20730.0 4.8045e-05
20750.0 4.8605e-05
20770.0 4.9148e-05
20790.0 4.9713e-05
20810.0 5.0304e-05
20830.0 5.0882e-05
20850.0 5.1452e-05
20870.0 5.2058e-05
20890.0 5.2668e-05
20910.0 5.3244e-05
20930.0 5.3838e-05
20950.0 5.4451e-05
20970.0 5.5043e-05
20990.0 5.5623e-05
21010.0 5.6236e-05
21030.0 5.6834e-05
21050.0 5.7403e-05
21070.0 5.7974e-05
21090.0 5.8555e-05
21110.0 5.9085e-05
21130.0 5.9588e-05
21150.0 6.0088e-05
21170.0 6.0551e-05
21190.0 6.096e-05
21210.0 6.135e-05
21230.0 6.1702e-05
21250.0 6.1984e-05
21270.0 6.221e-05
21290.0 6.2382e-05
21310.0 6.2479e-05
21330.0 6.2493e-05
21350.0 6.243e-05
21370.0 6.2274e-05
21390.0 6.2025e-05
21410.0 6.1682e-05
21430.0 6.1214e-05
21450.0 6.0649e-05
21470.0 5.9997e-05
21490.0 5.923e-05
21510.0 5.8353e-05
21530.0 5.7425e-05
21550.0 5.642e-05
21570.0 5.5313e-05
21590.0 5.4183e-05
21610.0 5.3052e-05
21630.0 5.1879e-05
21650.0 5.0686e-05
21670.0 4.9599e-05
21690.0 4.8544e-05
21710.0 4.7531e-05
21730.0 4.6627e-05
21750.0 4.5844e-05
21770.0 4.5134e-05
21790.0 4.4558e-05
21810.0 4.413e-05
21830.0 4.3828e-05
21850.0 4.366e-05
21870.0 4.3633e-05
21890.0 4.3729e-05
21910.0 4.3955e-05
21930.0 4.4303e-05
21950.0 4.4743e-05
21970.0 4.5287e-05
21990.0 4.5957e-05
22010.0 4.6673e-05
22030.0 4.7444e-05
22050.0 4.8298e-05
22070.0 4.9201e-05
22090.0 5.0093e-05
22110.0 5.103e-05
22130.0 5.2006e-05
22150.0 5.2951e-05
22170.0 5.3872e-05
22190.0 5.4819e-05
22210.0 5.5727e-05
22230.0 5.6548e-05
22250.0 5.7342e-05
22270.0 5.8092e-05
22290.0 5.8747e-05
22310.0 5.9321e-05
22330.0 5.9842e-05
22350.0 6.0257e-05
22370.0 6.0563e-05
22390.0 6.0776e-05
22410.0 6.0883e-05
22430.0 6.087e-05
22450.0 6.0749e-05
22470.0 6.0509e-05
22490.0 6.0151e-05
22510.0 5.9692e-05
22530.0 5.91e-05
22550.0 5.8376e-05
22570.0 5.7567e-05
22590.0 5.6653e-05
22610.0 5.5601e-05
22630.0 5.4458e-05
22650.0 5.3274e-05
22670.0 5.1961e-05
22690.0 5.0555e-05
22710.0 4.9129e-05
22730.0 4.7653e-05
22750.0 4.6045e-05
22770.0 4.4465e-05
22790.0 4.2913e-05
22810.0 4.1312e-05
22830.0 3.9708e-05
22850.0 3.8199e-05
22870.0 3.6715e-05
22890.0 3.5236e-05
22910.0 3.387e-05
