#lamb flux
1010.0 2.1102e-07
1030.0 2.3336e-07
1050.0 2.5907e-07
1070.0 2.88e-07
1090.0 3.2087e-07
1110.0 3.5457e-07
1130.0 3.885e-07
1150.0 4.2404e-07
1170.0 4.607e-07
1190.0 4.9546e-07
1210.0 5.3069e-07
1230.0 5.671e-07
1250.0 6.0276e-07
1270.0 6.374e-07
1290.0 6.7401e-07
1310.0 7.1058e-07
1330.0 7.4566e-07
1350.0 7.8113e-07
1370.0 8.1775e-07
1390.0 8.5346e-07
1410.0 8.881e-07
1430.0 9.2432e-07
1450.0 9.6054e-07
1470.0 9.9555e-07
1490.0 1.0309e-06
1510.0 1.0683e-06
1530.0 1.1037e-06
1550.0 1.1387e-06
1570.0 1.1749e-06
1590.0 1.2111e-06
1610.0 1.2457e-06
1630.0 1.2814e-06
1650.0 1.318e-06
1670.0 1.3535e-06
1690.0 1.3885e-06
1710.0 1.4249e-06
1730.0 1.4616e-06
1750.0 1.496e-06
1770.0 1.5316e-06
1790.0 1.5679e-06
1810.0 1.6031e-06
1830.0 1.6377e-06
1850.0 1.6745e-06
1870.0 1.7104e-06
1890.0 1.7451e-06
1910.0 1.7806e-06
1930.0 1.8171e-06
1950.0 1.8519e-06
1970.0 1.8865e-06
1990.0 1.9224e-06
2010.0 1.9577e-06
2030.0 1.9919e-06
2050.0 2.0273e-06
2070.0 2.0636e-06
2090.0 2.0979e-06
2110.0 2.1322e-06
2130.0 2.1675e-06
2150.0 2.2023e-06
2170.0 2.2357e-06
2190.0 2.2703e-06
2210.0 2.3053e-06
2230.0 2.3388e-06
2250.0 2.3723e-06
2270.0 2.4073e-06
2290.0 2.4413e-06
2310.0 2.4739e-06
2330.0 2.5079e-06
2350.0 2.5428e-06
2370.0 2.5775e-06
2390.0 2.6151e-06
2410.0 2.6597e-06
2430.0 2.711e-06
2450.0 2.7723e-06
2470.0 2.8509e-06
2490.0 2.95e-06
2510.0 3.0626e-06
2530.0 3.1982e-06
2550.0 3.368e-06
2570.0 3.5791e-06
2590.0 3.8538e-06
2610.0 4.265e-06
2630.0 4.8521e-06
2650.0 5.6197e-06
2670.0 6.612e-06
2690.0 7.8313e-06
2710.0 9.1328e-06
2730.0 1.0419e-05
2750.0 1.1685e-05
2770.0 1.2787e-05
2790.0 1.3661e-05
2810.0 1.4355e-05
2830.0 1.4897e-05
2850.0 1.5267e-05
2870.0 1.5538e-05
2890.0 1.5753e-05
2910.0 1.5924e-05
2930.0 1.6063e-05
2950.0 1.6197e-05
2970.0 1.6327e-05
2990.0 1.645e-05
3010.0 0.00046526
3030.0 0.00046873
3050.0 0.00047207
3070.0 0.00047494
3090.0 0.0004774
3110.0 0.00047892
3130.0 0.00047885
3150.0 0.00047671
3170.0 0.00047159
3190.0 0.00046356
3210.0 0.00045339
3230.0 0.00044173
3250.0 0.00043023
3270.0 0.00042183
3290.0 0.00041715
3310.0 0.00041789
3330.0 0.00042393
3350.0 0.00043445
3370.0 0.00044948
3390.0 0.00046842
3410.0 0.00048903
3430.0 0.00051218
3450.0 0.00053882
3470.0 0.00056793
3490.0 0.00059876
3510.0 0.00063362
3530.0 0.00067095
3550.0 0.00070876
3570.0 0.0007482
3590.0 0.0007911
3610.0 0.00083531
3630.0 0.00087939
3650.0 0.00092512
3670.0 0.00096687
3690.0 0.00099807
3710.0 0.0010159
3730.0 0.0010165
3750.0 0.0010023
3770.0 0.00099686
3790.0 0.00099092
3810.0 0.00096587
3830.0 0.00099566
3850.0 0.0011144
3870.0 0.0011789
3890.0 0.0011724
3910.0 0.001177
3930.0 0.0012085
3950.0 0.0012283
3970.0 0.0011199
3990.0 0.00096248
4010.0 0.0028815
4030.0 0.0034899
4050.0 0.004001
4070.0 0.0034738
4090.0 0.0031465
4110.0 0.0027757
4130.0 0.002557
4150.0 0.0027229
4170.0 0.0026794
4190.0 0.0028543
4210.0 0.0028295
4230.0 0.0029946
4250.0 0.0035431
4270.0 0.003586
4290.0 0.0033035
4310.0 0.0034309
4330.0 0.0036483
4350.0 0.0040927
4370.0 0.004659
4390.0 0.0043688
4410.0 0.0032244
4430.0 0.0027283
4450.0 0.0025072
4470.0 0.0019229
4490.0 0.0020777
4510.0 0.003144
4530.0 0.0036271
4550.0 0.0036568
4570.0 0.0041106
4590.0 0.004681
4610.0 0.0063246
4630.0 0.0082182
4650.0 0.0089066
4670.0 0.0082461
4690.0 0.00787
4710.0 0.0083185
4730.0 0.007846
4750.0 0.0058629
4770.0 0.0042991
4790.0 0.004017
4810.0 0.0038307
4830.0 0.0035083
4850.0 0.0038494
4870.0 0.0050854
4890.0 0.0059966
4910.0 0.0052586
4930.0 0.0046553
4950.0 0.0051157
4970.0 0.0065614
4990.0 0.0088923
5010.0 0.01023
5030.0 0.0090166
5050.0 0.0060981
5070.0 0.0040201
5090.0 0.0032404
5110.0 0.0033311
5130.0 0.0038455
5150.0 0.0041646
5170.0 0.0041013
5190.0 0.0038315
5210.0 0.004006
5230.0 0.004214
5250.0 0.0045431
5270.0 0.0048981
5290.0 0.0054272
5310.0 0.0063209
5330.0 0.0069942
5350.0 0.0069492
5370.0 0.0073014
5390.0 0.0083819
5410.0 0.0083682
5430.0 0.0073962
5450.0 0.0067979
5470.0 0.0072207
5490.0 0.0088221
5510.0 0.011029
5530.0 0.01265
5550.0 0.012222
5570.0 0.01111
5590.0 0.0096579
5610.0 0.0089101
5630.0 0.0086461
5650.0 0.0082325
5670.0 0.0077995
5690.0 0.0069692
5710.0 0.0067967
5730.0 0.0062621
5750.0 0.0044103
5770.0 0.0034394
5790.0 0.0038987
5810.0 0.0044008
5830.0 0.0054056
5850.0 0.0064377
5870.0 0.0071418
5890.0 0.0072607
5910.0 0.007123
5930.0 0.0067802
5950.0 0.006909
5970.0 0.0078787
5990.0 0.0074032
6010.0 0.0062038
6030.0 0.0052406
6050.0 0.0045644
6070.0 0.0045431
6090.0 0.0049269
6110.0 0.0055067
6130.0 0.0055889
6150.0 0.004807
6170.0 0.0042262
6190.0 0.0047569
6210.0 0.0062934
6230.0 0.0082638
6250.0 0.0089511
6270.0 0.0078172
6290.0 0.0065777
6310.0 0.0051345
6330.0 0.0039331
6350.0 0.0035097
6370.0 0.0036908
6390.0 0.0042673
6410.0 0.0052632
6430.0 0.0061469
6450.0 0.007036
6470.0 0.0080528
6490.0 0.0097266
6510.0 0.010876
6530.0 0.010672
6550.0 0.0096515
6570.0 0.0081901
6590.0 0.0073868
6610.0 0.006368
6630.0 0.0057735
6650.0 0.0054587
6670.0 0.0052995
6690.0 0.0047844
6710.0 0.0043507
6730.0 0.0031269
6750.0 0.0031037
6770.0 0.0033801
6790.0 0.0038885
6810.0 0.0035525
6830.0 0.0036579
6850.0 0.0034192
6870.0 0.0031236
6890.0 0.0029974
6910.0 0.0031963
6930.0 0.0029939
6950.0 0.0030826
6970.0 0.0032423
6990.0 0.0036798
7010.0 0.0037101
7030.0 0.0037719
7050.0 0.0035952
7070.0 0.0034231
7090.0 0.0034344
7110.0 0.0035346
7130.0 0.0038053
7150.0 0.004043
7170.0 0.0044617
7190.0 0.0049041
7210.0 0.0048164
7230.0 0.004951
7250.0 0.0053203
7270.0 0.005797
7290.0 0.0068822
7310.0 0.0074674
7330.0 0.007217
7350.0 0.0065271
7370.0 0.0056747
7390.0 0.0055065
7410.0 0.0058558
7430.0 0.006509
7450.0 0.0070891
7470.0 0.0070206
7490.0 0.0063963
7510.0 0.0072588
7530.0 0.0071765
7550.0 0.0064528
7570.0 0.0050371
7590.0 0.0034564
7610.0 0.0029649
7630.0 0.003372
7650.0 0.0039891
7670.0 0.0049708
7690.0 0.0054703
7710.0 0.0056966
7730.0 0.0059851
7750.0 0.0067245
7770.0 0.0068309
7790.0 0.0062743
7810.0 0.0057213
7830.0 0.0059016
7850.0 0.0057408
7870.0 0.0052655
7890.0 0.0044221
7910.0 0.0035911
7930.0 0.0034306
7950.0 0.0031253
7970.0 0.0028917
7990.0 0.0028741
8010.0 0.00024101
8030.0 0.00023435
8050.0 0.00023457
8070.0 0.00024372
8090.0 0.00027061
8110.0 0.0002641
8130.0 0.00020321
8150.0 0.00020131
8170.0 0.00016147
8190.0 0.00014512
8210.0 0.00020866
8230.0 0.000236
8250.0 0.00019159
8270.0 0.00016453
8290.0 0.00017454
8310.0 0.00013797
8330.0 9.1926e-05
8350.0 6.6243e-05
8370.0 3.6278e-05
8390.0 7.5642e-05
8410.0 8.765e-05
8430.0 0.00010799
8450.0 0.00012627
8470.0 0.00016569
8490.0 0.00015931
8510.0 0.00015116
8530.0 0.00014713
8550.0 0.00022163
8570.0 0.00027466
8590.0 0.00027525
8610.0 0.00035741
8630.0 0.00042467
8650.0 0.00041352
8670.0 0.00045374
8690.0 0.00048292
8710.0 0.00043282
8730.0 0.00041155
8750.0 0.00035593
8770.0 0.00033415
8790.0 0.00033414
8810.0 0.00032718
8830.0 0.00024684
8850.0 0.00016961
8870.0 0.00012836
8890.0 0.00014085
8910.0 0.00017258
8930.0 0.00020432
8950.0 0.00021161
8970.0 0.0002099
8990.0 0.00017786
9010.0 0.001529
9030.0 0.0013756
9050.0 0.0013835
9070.0 0.0013957
9090.0 0.0014063
9110.0 0.0014195
9130.0 0.0014295
9150.0 0.0014373
9170.0 0.0014455
9190.0 0.0014543
9210.0 0.0014636
9230.0 0.0014734
9250.0 0.0014833
9270.0 0.0014936
9290.0 0.0015042
9310.0 0.0015149
9330.0 0.0015257
9350.0 0.001537
9370.0 0.0015483
9390.0 0.0015598
9410.0 0.0015716
9430.0 0.0015837
9450.0 0.0015958
9470.0 0.0016082
9490.0 0.0016209
9510.0 0.0016337
9530.0 0.0016466
9550.0 0.0016599
9570.0 0.0016734
9590.0 0.001687
9610.0 0.0017008
9630.0 0.001715
9650.0 0.0017293
9670.0 0.0017436
9690.0 0.0017583
9710.0 0.0017733
9730.0 0.0017882
9750.0 0.0018034
9770.0 0.001819
9790.0 0.0018346
9810.0 0.0018503
9830.0 0.0018663
9850.0 0.0018825
9870.0 0.0018986
9890.0 0.001915
9910.0 0.0019318
9930.0 0.0019485
9950.0 0.0019652
9970.0 0.0019824
9990.0 0.0019997
10010.0 0.001736
10030.0 0.0017509
10050.0 0.0017662
10070.0 0.0017819
10090.0 0.0017968
10110.0 0.001812
10130.0 0.0018274
10150.0 0.0018426
10170.0 0.001858
10190.0 0.0018737
10210.0 0.0018893
10230.0 0.0019047
10250.0 0.0019204
10270.0 0.0019361
10290.0 0.0019517
10310.0 0.0019674
10330.0 0.0019832
10350.0 0.0019988
10370.0 0.0020144
10390.0 0.0020301
10410.0 0.0020458
10430.0 0.0020611
10450.0 0.0020766
10470.0 0.0020921
10490.0 0.0021074
10510.0 0.0021226
10530.0 0.002138
10550.0 0.0021532
10570.0 0.002168
10590.0 0.0021829
10610.0 0.0021979
10630.0 0.0022124
10650.0 0.0022268
10670.0 0.0022414
10690.0 0.0022557
10710.0 0.0022697
10730.0 0.0022837
10750.0 0.0022977
10770.0 0.0023112
10790.0 0.0023245
10810.0 0.0023379
10830.0 0.0023508
10850.0 0.002363
10870.0 0.0023749
10890.0 0.0023855
10910.0 0.0023936
10930.0 0.0023984
10950.0 0.0023976
10970.0 0.0023898
10990.0 0.002374
11010.0 0.0023152
11030.0 0.0022784
11050.0 0.0022335
11070.0 0.0021799
11090.0 0.0021154
11110.0 0.0020486
11130.0 0.001979
11150.0 0.0019041
11170.0 0.0018269
11190.0 0.0017519
11210.0 0.0016746
11230.0 0.0015952
11250.0 0.0015194
11270.0 0.0014467
11290.0 0.0013737
11310.0 0.0013047
11330.0 0.0012438
11350.0 0.0011863
11370.0 0.0011332
11390.0 0.0010873
11410.0 0.0010471
11430.0 0.0010097
11450.0 0.00097753
11470.0 0.00094968
11490.0 0.00092377
11510.0 0.00089881
11530.0 0.00087564
11550.0 0.00085263
11570.0 0.00082807
11590.0 0.00080265
11610.0 0.00077677
11630.0 0.00074861
11650.0 0.00071846
11670.0 0.00068875
11690.0 0.00065863
11710.0 0.00062755
11730.0 0.00059743
11750.0 0.00056956
11770.0 0.00054223
11790.0 0.00051661
11810.0 0.00049406
11830.0 0.00047389
11850.0 0.00045531
11870.0 0.00043977
11890.0 0.00042684
11910.0 0.00041548
11930.0 0.00040572
11950.0 0.00039759
11970.0 0.00039032
11990.0 0.00038345
12010.0 0.00037709
12030.0 0.00037097
12050.0 0.00036464
12070.0 0.00035805
12090.0 0.00035171
12110.0 0.00034526
12130.0 0.00033881
12150.0 0.00033286
12170.0 0.00032766
12190.0 0.00032316
12210.0 0.00032002
12230.0 0.0003185
12250.0 0.00031873
12270.0 0.00032112
12290.0 0.00032565
12310.0 0.00033215
12330.0 0.00034126
12350.0 0.00035262
12370.0 0.00036556
12390.0 0.00038049
12410.0 0.00039798
12430.0 0.00041575
12450.0 0.00043416
12470.0 0.00045373
12490.0 0.00047339
12510.0 0.00049183
12530.0 0.00051018
12550.0 0.00052787
12570.0 0.0005435
12590.0 0.00055721
12610.0 0.00056943
12630.0 0.00057917
12650.0 0.00058589
12670.0 0.00059031
12690.0 0.00059207
12710.0 0.00059109
12730.0 0.00058765
12750.0 0.00058153
12770.0 0.00057314
12790.0 0.00056296
12810.0 0.0005508
12830.0 0.00053674
12850.0 0.00052204
12870.0 0.00050649
12890.0 0.00048967
12910.0 0.00047257
12930.0 0.00045572
12950.0 0.00043813
12970.0 0.00042023
12990.0 0.0004033
13010.0 0.00038658
13030.0 0.00036967
13050.0 0.00035343
13070.0 0.00033822
13090.0 0.00032295
13110.0 0.00030818
13130.0 0.00029457
13150.0 0.00028167
13170.0 0.00026905
13190.0 0.00025781
13210.0 0.00024792
13230.0 0.00023888
13250.0 0.00023109
13270.0 0.00022495
13290.0 0.00022017
13310.0 0.00021687
13330.0 0.00021537
13350.0 0.00021554
13370.0 0.00021746
13390.0 0.00022126
13410.0 0.00022639
13430.0 0.00023305
13450.0 0.00024129
13470.0 0.00025044
13490.0 0.00026013
13510.0 0.00027106
13530.0 0.00028214
13550.0 0.00029274
13570.0 0.0003032
13590.0 0.0003134
13610.0 0.00032247
13630.0 0.00033039
13650.0 0.00033762
13670.0 0.00034362
13690.0 0.00034826
13710.0 0.00035185
13730.0 0.00035442
13750.0 0.0003557
13770.0 0.000356
13790.0 0.00035535
13810.0 0.00035379
13830.0 0.00035147
13850.0 0.00034833
13870.0 0.00034437
13890.0 0.00033984
13910.0 0.00033474
13930.0 0.00032883
13950.0 0.00032238
13970.0 0.00031578
13990.0 0.00030859
14010.0 0.00030095
14030.0 0.00029333
14050.0 0.00028565
14070.0 0.00027755
14090.0 0.00026978
14110.0 0.00026248
14130.0 0.0002554
14150.0 0.00024874
14170.0 0.00024306
14190.0 0.00023814
14210.0 0.00023397
14230.0 0.00023088
14250.0 0.00022888
14270.0 0.00022791
14290.0 0.00022812
14310.0 0.00022939
14330.0 0.00023167
14350.0 0.00023503
14370.0 0.00023922
14390.0 0.00024397
14410.0 0.00024957
14430.0 0.00025572
14450.0 0.000262
14470.0 0.00026852
14490.0 0.00027545
14510.0 0.00028208
14530.0 0.00028837
14550.0 0.00029467
14570.0 0.00030071
14590.0 0.00030621
14610.0 0.00031153
14630.0 0.00031679
14650.0 0.0003217
14670.0 0.00032643
14690.0 0.00033136
14710.0 0.00033656
14730.0 0.00034174
14750.0 0.00034749
14770.0 0.00035402
14790.0 0.00036109
14810.0 0.00036875
14830.0 0.00037782
14850.0 0.00038769
14870.0 0.00039798
14890.0 0.00040909
14910.0 0.00042088
14930.0 0.00043223
14950.0 0.00044282
14970.0 0.00045286
14990.0 0.00046128
15010.0 0.00046771
15030.0 0.00047248
15050.0 0.00047563
15070.0 0.00047717
15090.0 0.00047772
15110.0 0.00047756
15130.0 0.00047697
15150.0 0.00047616
15170.0 0.00047521
15190.0 0.00047419
15210.0 0.00047319
15230.0 0.00047218
15250.0 0.00047114
15270.0 0.00047012
15290.0 0.00046914
15310.0 0.00046814
15330.0 0.00046713
15350.0 0.00046616
15370.0 0.0004652
15390.0 0.00046419
15410.0 0.00046321
15430.0 0.00046226
15450.0 0.00046129
15470.0 0.00046031
15490.0 0.00045937
15510.0 0.00045844
15530.0 0.00045747
15550.0 0.00045653
15570.0 0.00045562
15590.0 0.00045467
15610.0 0.0004537
15630.0 0.0004528
15650.0 0.00045188
15670.0 0.00045094
15690.0 0.00045002
15710.0 0.00044913
15730.0 0.00044821
15750.0 0.00044728
15770.0 0.00044639
15790.0 0.00044549
15810.0 0.00044455
15830.0 0.00044365
15850.0 0.00044277
15870.0 0.00044186
15890.0 0.00044095
15910.0 0.00044009
15930.0 0.0004392
15950.0 0.00043827
15970.0 0.00043739
15990.0 0.00043652
16010.0 0.00043561
16030.0 0.0004347
16050.0 0.00043384
16070.0 0.00043296
16090.0 0.00043206
16110.0 0.00043118
16130.0 0.00043032
16150.0 0.0004294
16170.0 0.0004285
16190.0 0.00042764
16210.0 0.00042676
16230.0 0.00042585
16250.0 0.00042497
16270.0 0.00042412
16290.0 0.00042321
16310.0 0.00042232
16330.0 0.00042145
16350.0 0.00042057
16370.0 0.00041963
16390.0 0.00041876
16410.0 0.00041789
16430.0 0.00041698
16450.0 0.00041609
16470.0 0.00041523
16490.0 0.00041432
16510.0 0.00041341
16530.0 0.00041252
16550.0 0.00041164
16570.0 0.00041071
16590.0 0.0004098
16610.0 0.00040893
16630.0 0.00040802
16650.0 0.0004071
16670.0 0.00040621
16690.0 0.00040532
16710.0 0.00040437
16730.0 0.00040346
16750.0 0.00040257
16770.0 0.00040164
16790.0 0.0004007
16810.0 0.0003998
16830.0 0.00039889
16850.0 0.00039795
16870.0 0.00039702
16890.0 0.00039612
16910.0 0.00039517
16930.0 0.00039421
16950.0 0.00039329
16970.0 0.00039237
16990.0 0.0003914
17010.0 0.00039047
17030.0 0.00038955
17050.0 0.00038859
17070.0 0.00038762
17090.0 0.00038669
17110.0 0.00038574
17130.0 0.00038475
17150.0 0.00038379
17170.0 0.00038285
17190.0 0.00038188
17210.0 0.0003809
17230.0 0.00037996
17250.0 0.00037899
17270.0 0.00037798
17290.0 0.00037701
17310.0 0.00037605
17330.0 0.00037505
17350.0 0.00037404
17370.0 0.00037309
17390.0 0.0003721
17410.0 0.00037109
17430.0 0.00037011
17450.0 0.00036914
17470.0 0.0003681
17490.0 0.00036708
17510.0 0.0003661
17530.0 0.0003651
17550.0 0.00036406
17570.0 0.00036306
17590.0 0.00036207
17610.0 0.00036103
17630.0 0.00036001
17650.0 0.00035901
17670.0 0.00035798
17690.0 0.00035691
17710.0 0.0003559
17730.0 0.00035489
17750.0 0.00035384
17770.0 0.0003528
17790.0 0.0003518
17810.0 0.00035074
17830.0 0.00034968
17850.0 0.00034865
17870.0 0.00034761
17890.0 0.00034653
17910.0 0.00034547
17930.0 0.00034445
17950.0 0.00034339
17970.0 0.00034232
17990.0 0.00034128
18010.0 0.00034024
18030.0 0.00033914
18050.0 0.00033807
18070.0 0.00033703
18090.0 0.00033595
18110.0 0.00033485
18130.0 0.00033381
18150.0 0.00033275
18170.0 0.00033165
18190.0 0.00033058
18210.0 0.00032953
18230.0 0.00032843
18250.0 0.00032732
18270.0 0.00032626
18290.0 0.00032518
18310.0 0.00032407
18330.0 0.00032299
18350.0 0.00032194
18370.0 0.00032083
18390.0 0.00031972
18410.0 0.00031865
18430.0 0.00031756
18450.0 0.00031643
18470.0 0.00031534
18490.0 0.00031427
18510.0 0.00031316
18530.0 0.00031205
18550.0 0.00031098
18570.0 0.00030988
18590.0 0.00030874
18610.0 0.00030765
18630.0 0.00030656
18650.0 0.00030544
18670.0 0.00030431
18690.0 0.00030324
18710.0 0.00030214
18730.0 0.00030101
18750.0 0.00029992
18770.0 0.00029884
18790.0 0.00029769
18810.0 0.00029657
18830.0 0.00029548
18850.0 0.00029437
18870.0 0.00029323
18890.0 0.00029214
18910.0 0.00029105
18930.0 0.00028991
18950.0 0.0002888
18970.0 0.00028771
18990.0 0.00028659
19010.0 0.00028543
19030.0 0.00028434
19050.0 0.00028325
19070.0 0.00028211
19090.0 0.000281
19110.0 0.00027992
19130.0 0.00027879
19150.0 0.00027765
19170.0 0.00027655
19190.0 0.00027545
19210.0 0.00027431
19230.0 0.00027318
19250.0 0.0002721
19270.0 0.00027098
19290.0 0.00026985
19310.0 0.00026876
19330.0 0.00026766
19350.0 0.00026651
19370.0 0.0002654
19390.0 0.0002643
19410.0 0.00026318
19430.0 0.00026205
19450.0 0.00026096
19470.0 0.00025986
19490.0 0.00025873
19510.0 0.00025762
19530.0 0.00025654
19550.0 0.0002554
19570.0 0.00025426
19590.0 0.00025318
19610.0 0.00025208
19630.0 0.00025095
19650.0 0.00024985
19670.0 0.00024877
19690.0 0.00024764
19710.0 0.00024652
19730.0 0.00024544
19750.0 0.00024433
19770.0 0.00024319
19790.0 0.0002421
19810.0 0.00024102
19830.0 0.00023989
19850.0 0.00023877
19870.0 0.00023766
19890.0 0.00023647
19910.0 0.00023517
19930.0 0.00023377
19950.0 0.00023217
19970.0 0.0002302
19990.0 0.00022784
20010.0 0.00020272
20030.0 0.00019979
20050.0 0.00019635
20070.0 0.00019263
20090.0 0.00018863
20110.0 0.0001841
20130.0 0.00017952
20150.0 0.00017497
20170.0 0.00017026
20190.0 0.00016549
20210.0 0.00016098
20230.0 0.00015657
20250.0 0.00015217
20270.0 0.00014807
20290.0 0.00014434
20310.0 0.00014078
20330.0 0.00013747
20350.0 0.00013471
20370.0 0.00013227
20390.0 0.00013012
20410.0 0.00012839
20430.0 0.00012705
20450.0 0.000126
20470.0 0.00012529
20490.0 0.00012491
20510.0 0.00012479
20530.0 0.00012495
20550.0 0.00012533
20570.0 0.00012589
20590.0 0.00012665
20610.0 0.00012757
20630.0 0.00012859
20650.0 0.00012972
20670.0 0.00013102
20690.0 0.00013234
20710.0 0.0001337
20730.0 0.00013518
20750.0 0.00013671
20770.0 0.00013823
20790.0 0.00013982
20810.0 0.0001415
20830.0 0.00014317
20850.0 0.00014485
20870.0 0.00014665
20890.0 0.00014848
20910.0 0.00015025
20930.0 0.00015208
20950.0 0.00015398
20970.0 0.00015584
20990.0 0.00015767
21010.0 0.00015959
21030.0 0.00016147
21050.0 0.00016326
21070.0 0.00016505
21090.0 0.00016685
21110.0 0.00016849
21130.0 0.00017003
21150.0 0.00017152
21170.0 0.00017287
21190.0 0.00017403
21210.0 0.00017507
21230.0 0.00017594
21250.0 0.00017656
21270.0 0.00017695
21290.0 0.0001771
21310.0 0.00017696
21330.0 0.00017654
21350.0 0.00017581
21370.0 0.00017473
21390.0 0.00017336
21410.0 0.00017169
21430.0 0.00016956
21450.0 0.00016718
21470.0 0.00016459
21490.0 0.00016165
21510.0 0.00015844
21530.0 0.00015517
21550.0 0.00015174
21570.0 0.00014809
21590.0 0.0001445
21610.0 0.00014103
21630.0 0.00013755
21650.0 0.00013415
21670.0 0.00013121
21690.0 0.0001285
21710.0 0.00012605
21730.0 0.00012405
21750.0 0.00012251
21770.0 0.00012133
21790.0 0.00012065
21810.0 0.00012047
21830.0 0.00012073
21850.0 0.00012149
21870.0 0.00012266
21890.0 0.00012418
21910.0 0.00012613
21930.0 0.00012842
21950.0 0.0001309
21970.0 0.00013364
21990.0 0.00013672
22010.0 0.0001398
22030.0 0.00014292
22050.0 0.00014621
22070.0 0.00014951
22090.0 0.00015263
22110.0 0.00015578
22130.0 0.00015893
22150.0 0.00016187
22170.0 0.00016464
22190.0 0.00016738
22210.0 0.00016994
22230.0 0.00017219
22250.0 0.0001743
22270.0 0.00017625
22290.0 0.00017792
22310.0 0.00017935
22330.0 0.00018061
22350.0 0.00018158
22370.0 0.00018226
22390.0 0.00018269
22410.0 0.00018283
22430.0 0.00018265
22450.0 0.00018218
22470.0 0.00018137
22490.0 0.00018023
22510.0 0.0001788
22530.0 0.00017698
22550.0 0.00017477
22570.0 0.00017231
22590.0 0.00016954
22610.0 0.00016635
22630.0 0.0001629
22650.0 0.00015933
22670.0 0.00015539
22690.0 0.00015118
22710.0 0.00014693
22730.0 0.00014255
22750.0 0.00013781
22770.0 0.00013317
22790.0 0.00012864
22810.0 0.00012399
22830.0 0.00011936
22850.0 0.00011502
22870.0 0.00011076
22890.0 0.00010653
22910.0 0.00010263
22930.0 9.9052e-05
22950.0 9.5646e-05
22970.0 9.2495e-05
