#lamb flux
1010.0 9.6768e-08
1030.0 1.0703e-07
1050.0 1.1882e-07
1070.0 1.3211e-07
1090.0 1.4719e-07
1110.0 1.6267e-07
1130.0 1.7824e-07
1150.0 1.9455e-07
1170.0 2.1138e-07
1190.0 2.2734e-07
1210.0 2.4351e-07
1230.0 2.6022e-07
1250.0 2.7659e-07
1270.0 2.9249e-07
1290.0 3.093e-07
1310.0 3.2609e-07
1330.0 3.4219e-07
1350.0 3.5847e-07
1370.0 3.7528e-07
1390.0 3.9167e-07
1410.0 4.0757e-07
1430.0 4.242e-07
1450.0 4.4083e-07
1470.0 4.569e-07
1490.0 4.7314e-07
1510.0 4.903e-07
1530.0 5.0656e-07
1550.0 5.226e-07
1570.0 5.3921e-07
1590.0 5.5583e-07
1610.0 5.7171e-07
1630.0 5.881e-07
1650.0 6.0492e-07
1670.0 6.212e-07
1690.0 6.3728e-07
1710.0 6.5399e-07
1730.0 6.7081e-07
1750.0 6.8665e-07
1770.0 7.0296e-07
1790.0 7.1962e-07
1810.0 7.3577e-07
1830.0 7.5166e-07
1850.0 7.6855e-07
1870.0 7.8503e-07
1890.0 8.0099e-07
1910.0 8.1729e-07
1930.0 8.3402e-07
1950.0 8.5003e-07
1970.0 8.6588e-07
1990.0 8.8236e-07
2010.0 8.9861e-07
2030.0 9.1432e-07
2050.0 9.3054e-07
2070.0 9.472e-07
2090.0 9.6296e-07
2110.0 9.7871e-07
2130.0 9.9496e-07
2150.0 1.0109e-06
2170.0 1.0263e-06
2190.0 1.0422e-06
2210.0 1.0582e-06
2230.0 1.0736e-06
2250.0 1.089e-06
2270.0 1.1051e-06
2290.0 1.1207e-06
2310.0 1.1357e-06
2330.0 1.1513e-06
2350.0 1.1674e-06
2370.0 1.1833e-06
2390.0 1.2006e-06
2410.0 1.2211e-06
2430.0 1.2447e-06
2450.0 1.2729e-06
2470.0 1.3089e-06
2490.0 1.3544e-06
2510.0 1.4061e-06
2530.0 1.4684e-06
2550.0 1.5463e-06
2570.0 1.6432e-06
2590.0 1.7693e-06
2610.0 1.958e-06
2630.0 2.2275e-06
2650.0 2.5799e-06
2670.0 3.0355e-06
2690.0 3.5953e-06
2710.0 4.1929e-06
2730.0 4.7834e-06
2750.0 5.3651e-06
2770.0 5.871e-06
2790.0 6.2727e-06
2810.0 6.5915e-06
2830.0 6.8406e-06
2850.0 7.0106e-06
2870.0 7.1355e-06
2890.0 7.2343e-06
2910.0 7.3131e-06
2930.0 7.3776e-06
2950.0 7.4391e-06
2970.0 7.4992e-06
2990.0 7.5556e-06
3010.0 0.00021356
3030.0 0.00021516
3050.0 0.0002167
3070.0 0.00021802
3090.0 0.00021916
3110.0 0.00021987
3130.0 0.00021984
3150.0 0.00021886
3170.0 0.00021652
3190.0 0.00021284
3210.0 0.00020817
3230.0 0.00020282
3250.0 0.00019755
3270.0 0.0001937
3290.0 0.00019156
3310.0 0.0001919
3330.0 0.00019468
3350.0 0.00019952
3370.0 0.00020642
3390.0 0.00021513
3410.0 0.0002246
3430.0 0.00023523
3450.0 0.00024747
3470.0 0.00026084
3490.0 0.00027501
3510.0 0.00029102
3530.0 0.00030816
3550.0 0.00032552
3570.0 0.00034363
3590.0 0.00036333
3610.0 0.00038362
3630.0 0.00040386
3650.0 0.00042485
3670.0 0.00044401
3690.0 0.00045833
3710.0 0.00046655
3730.0 0.00046682
3750.0 0.00046032
3770.0 0.00045777
3790.0 0.00045505
3810.0 0.00044386
3830.0 0.0004576
3850.0 0.00051165
3870.0 0.00054132
3890.0 0.00053885
3910.0 0.00054115
3930.0 0.0005554
3950.0 0.00056417
3970.0 0.00051401
3990.0 0.00044228
4010.0 0.0013256
4030.0 0.0016061
4050.0 0.0018413
4070.0 0.0015976
4090.0 0.001447
4110.0 0.0012768
4130.0 0.0011752
4150.0 0.00125
4170.0 0.0012313
4190.0 0.0013125
4210.0 0.0013005
4230.0 0.0013756
4250.0 0.0016274
4270.0 0.0016465
4290.0 0.0015172
4310.0 0.0015765
4330.0 0.0016769
4350.0 0.0018803
4370.0 0.0021398
4390.0 0.0020079
4410.0 0.0014835
4430.0 0.0012559
4450.0 0.001154
4470.0 0.00088576
4490.0 0.00095584
4510.0 0.0014438
4530.0 0.0016652
4550.0 0.0016796
4570.0 0.00189
4590.0 0.0021529
4610.0 0.0029037
4630.0 0.0037713
4650.0 0.0040899
4670.0 0.0037877
4690.0 0.0036141
4710.0 0.0038204
4730.0 0.0036053
4750.0 0.0026955
4770.0 0.0019772
4790.0 0.0018463
4810.0 0.0017599
4830.0 0.0016111
4850.0 0.0017679
4870.0 0.0023356
4890.0 0.0027544
4910.0 0.0024166
4930.0 0.0021383
4950.0 0.0023493
4970.0 0.0030128
4990.0 0.0040831
5010.0 0.004697
5030.0 0.0041417
5050.0 0.0028021
5070.0 0.0018467
5090.0 0.0014891
5110.0 0.0015314
5130.0 0.0017675
5150.0 0.0019149
5170.0 0.0018862
5190.0 0.0017625
5210.0 0.0018422
5230.0 0.0019366
5250.0 0.0020871
5270.0 0.0022519
5290.0 0.0024956
5310.0 0.0029048
5330.0 0.0032145
5350.0 0.003194
5370.0 0.003355
5390.0 0.0038499
5410.0 0.0038465
5430.0 0.0034017
5450.0 0.0031254
5470.0 0.0033186
5490.0 0.0040544
5510.0 0.0050694
5530.0 0.0058144
5550.0 0.0056197
5570.0 0.0051087
5590.0 0.0044421
5610.0 0.0040966
5630.0 0.0039725
5650.0 0.0037834
5670.0 0.0035851
5690.0 0.0032051
5710.0 0.003125
5730.0 0.0028786
5750.0 0.0020296
5770.0 0.0015834
5790.0 0.0017944
5810.0 0.0020262
5830.0 0.0024864
5850.0 0.0029598
5870.0 0.0032839
5890.0 0.0033396
5910.0 0.0032764
5930.0 0.0031187
5950.0 0.0031779
5970.0 0.0036225
5990.0 0.0034061
6010.0 0.0028554
6030.0 0.0024123
6050.0 0.0021009
6070.0 0.0020894
6090.0 0.0022656
6110.0 0.0025333
6130.0 0.0025721
6150.0 0.002213
6170.0 0.0019468
6190.0 0.0021908
6210.0 0.0028963
6230.0 0.0038007
6250.0 0.0041167
6270.0 0.0035974
6290.0 0.0030267
6310.0 0.0023629
6330.0 0.0018104
6350.0 0.0016148
6370.0 0.0016982
6390.0 0.0019632
6410.0 0.0024207
6430.0 0.0028267
6450.0 0.0032345
6470.0 0.0037036
6490.0 0.0044737
6510.0 0.0050022
6530.0 0.0049074
6550.0 0.0044376
6570.0 0.0037671
6590.0 0.0033969
6610.0 0.002929
6630.0 0.0026536
6650.0 0.0025084
6670.0 0.0024369
6690.0 0.0022018
6710.0 0.0020015
6730.0 0.0014417
6750.0 0.0014292
6770.0 0.0015535
6790.0 0.0017856
6810.0 0.0016339
6830.0 0.0016824
6850.0 0.0015736
6870.0 0.0014375
6890.0 0.0013802
6910.0 0.0014708
6930.0 0.0013776
6950.0 0.0014173
6970.0 0.0014908
6990.0 0.0016922
7010.0 0.0017066
7030.0 0.0017337
7050.0 0.0016533
7070.0 0.0015753
7090.0 0.00158
7110.0 0.0016257
7130.0 0.0017495
7150.0 0.0018581
7170.0 0.0020502
7190.0 0.0022538
7210.0 0.0022146
7230.0 0.0022767
7250.0 0.0024467
7270.0 0.0026663
7290.0 0.0031646
7310.0 0.0034339
7330.0 0.0033191
7350.0 0.0030019
7370.0 0.002612
7390.0 0.0025339
7410.0 0.0026928
7430.0 0.0029927
7450.0 0.0032596
7470.0 0.0032297
7490.0 0.0029448
7510.0 0.0033358
7530.0 0.0032992
7550.0 0.0029654
7570.0 0.0023165
7590.0 0.0015925
7610.0 0.0013669
7630.0 0.001553
7650.0 0.0018362
7670.0 0.0022853
7690.0 0.0025148
7710.0 0.0026208
7730.0 0.0027541
7750.0 0.0030918
7770.0 0.0031404
7790.0 0.0028846
7810.0 0.002632
7830.0 0.0027142
7850.0 0.0026384
7870.0 0.002419
7890.0 0.0020324
7910.0 0.0016521
7930.0 0.0015775
7950.0 0.0014372
7970.0 0.0013303
7990.0 0.0013227
8010.0 9.7967e-05
8030.0 9.6693e-05
8050.0 9.5389e-05
8070.0 9.6638e-05
8090.0 0.00010383
8110.0 0.00010207
8130.0 8.4191e-05
8150.0 8.1992e-05
8170.0 7.0625e-05
8190.0 6.6932e-05
8210.0 8.6918e-05
8230.0 9.6772e-05
8250.0 8.7219e-05
8270.0 7.5912e-05
8290.0 7.4e-05
8310.0 5.6954e-05
8330.0 3.8387e-05
8350.0 2.7243e-05
8370.0 1.7164e-05
8390.0 3.1375e-05
8410.0 3.6561e-05
8430.0 4.5067e-05
8450.0 5.2921e-05
8470.0 6.5777e-05
8490.0 6.5313e-05
8510.0 6.4246e-05
8530.0 6.7049e-05
8550.0 9.0462e-05
8570.0 0.00010709
8590.0 0.00011555
8610.0 0.00014597
8630.0 0.00017584
8650.0 0.00018395
8670.0 0.00019548
8690.0 0.00019658
8710.0 0.00017803
8730.0 0.00016559
8750.0 0.00014617
8770.0 0.00013869
8790.0 0.00013626
8810.0 0.00013056
8830.0 0.00010441
8850.0 7.6432e-05
8870.0 5.8523e-05
8890.0 5.7216e-05
8910.0 6.557e-05
8930.0 7.4581e-05
8950.0 7.6009e-05
8970.0 7.6369e-05
8990.0 6.8112e-05
9010.0 0.00071378
9030.0 0.00064677
9050.0 0.00064989
9070.0 0.00065502
9090.0 0.00065952
9110.0 0.00066507
9130.0 0.00066936
9150.0 0.0006727
9170.0 0.00067625
9190.0 0.00068004
9210.0 0.00068404
9230.0 0.00068825
9250.0 0.00069253
9270.0 0.00069698
9290.0 0.00070155
9310.0 0.00070616
9330.0 0.00071086
9350.0 0.00071573
9370.0 0.00072066
9390.0 0.00072564
9410.0 0.00073076
9430.0 0.00073604
9450.0 0.00074129
9470.0 0.00074666
9490.0 0.00075218
9510.0 0.00075777
9530.0 0.00076338
9550.0 0.00076919
9570.0 0.0007751
9590.0 0.00078102
9610.0 0.00078705
9630.0 0.00079324
9650.0 0.00079949
9670.0 0.00080574
9690.0 0.00081216
9710.0 0.00081868
9730.0 0.00082522
9750.0 0.00083185
9770.0 0.00083868
9790.0 0.0008455
9810.0 0.00085235
9830.0 0.00085935
9850.0 0.00086644
9870.0 0.0008735
9890.0 0.00088067
9910.0 0.00088798
9930.0 0.0008953
9950.0 0.00090264
9970.0 0.00091013
9990.0 0.00091769
10010.0 0.00079631
10030.0 0.00080285
10050.0 0.00080952
10070.0 0.00081642
10090.0 0.00082292
10110.0 0.00082959
10130.0 0.00083628
10150.0 0.00084295
10170.0 0.0008497
10190.0 0.00085656
10210.0 0.00086334
10230.0 0.00087011
10250.0 0.00087699
10270.0 0.00088386
10290.0 0.00089064
10310.0 0.00089751
10330.0 0.00090445
10350.0 0.00091127
10370.0 0.00091806
10390.0 0.00092494
10410.0 0.00093178
10430.0 0.00093849
10450.0 0.00094527
10470.0 0.00095207
10490.0 0.00095874
10510.0 0.00096537
10530.0 0.00097212
10550.0 0.00097875
10570.0 0.00098524
10590.0 0.00099177
10610.0 0.00099829
10630.0 0.0010046
10650.0 0.001011
10670.0 0.0010173
10690.0 0.0010236
10710.0 0.0010297
10730.0 0.0010358
10750.0 0.001042
10770.0 0.0010479
10790.0 0.0010537
10810.0 0.0010595
10830.0 0.0010652
10850.0 0.0010705
10870.0 0.0010757
10890.0 0.0010803
10910.0 0.0010838
10930.0 0.0010858
10950.0 0.0010854
10970.0 0.0010817
10990.0 0.0010745
11010.0 0.0010624
11030.0 0.0010455
11050.0 0.0010249
11070.0 0.0010003
11090.0 0.00097069
11110.0 0.00094007
11130.0 0.00090814
11150.0 0.00087376
11170.0 0.00083832
11190.0 0.00080394
11210.0 0.00076844
11230.0 0.00073204
11250.0 0.00069725
11270.0 0.00066385
11290.0 0.00063038
11310.0 0.00059868
11330.0 0.00057076
11350.0 0.00054438
11370.0 0.00052001
11390.0 0.00049892
11410.0 0.00048048
11430.0 0.00046334
11450.0 0.00044857
11470.0 0.0004358
11490.0 0.00042392
11510.0 0.00041247
11530.0 0.00040184
11550.0 0.00039129
11570.0 0.00038003
11590.0 0.00036836
11610.0 0.0003565
11630.0 0.00034358
11650.0 0.00032975
11670.0 0.00031612
11690.0 0.00030229
11710.0 0.00028803
11730.0 0.00027421
11750.0 0.00026143
11770.0 0.00024888
11790.0 0.00023713
11810.0 0.00022679
11830.0 0.00021753
11850.0 0.00020901
11870.0 0.00020188
11890.0 0.00019595
11910.0 0.00019074
11930.0 0.00018627
11950.0 0.00018254
11970.0 0.00017921
11990.0 0.00017606
12010.0 0.00017315
12030.0 0.00017034
12050.0 0.00016744
12070.0 0.00016442
12090.0 0.00016152
12110.0 0.00015856
12130.0 0.0001556
12150.0 0.00015287
12170.0 0.00015049
12190.0 0.00014843
12210.0 0.000147
12230.0 0.0001463
12250.0 0.00014641
12270.0 0.00014752
12290.0 0.0001496
12310.0 0.0001526
12330.0 0.00015679
12350.0 0.00016201
12370.0 0.00016797
12390.0 0.00017483
12410.0 0.00018287
12430.0 0.00019104
12450.0 0.0001995
12470.0 0.0002085
12490.0 0.00021754
12510.0 0.00022602
12530.0 0.00023445
12550.0 0.00024259
12570.0 0.00024977
12590.0 0.00025608
12610.0 0.0002617
12630.0 0.00026618
12650.0 0.00026927
12670.0 0.0002713
12690.0 0.00027212
12710.0 0.00027167
12730.0 0.00027009
12750.0 0.00026728
12770.0 0.00026343
12790.0 0.00025875
12810.0 0.00025317
12830.0 0.00024671
12850.0 0.00023995
12870.0 0.00023281
12890.0 0.00022508
12910.0 0.00021722
12930.0 0.00020948
12950.0 0.0002014
12970.0 0.00019318
12990.0 0.00018539
13010.0 0.00017771
13030.0 0.00016994
13050.0 0.00016248
13070.0 0.00015549
13090.0 0.00014847
13110.0 0.00014168
13130.0 0.00013542
13150.0 0.0001295
13170.0 0.0001237
13190.0 0.00011853
13210.0 0.00011399
13230.0 0.00010983
13250.0 0.00010626
13270.0 0.00010343
13290.0 0.00010124
13310.0 9.9727e-05
13330.0 9.9039e-05
13350.0 9.9119e-05
13370.0 0.00010001
13390.0 0.00010175
13410.0 0.00010411
13430.0 0.00010718
13450.0 0.00011097
13470.0 0.00011518
13490.0 0.00011964
13510.0 0.00012466
13530.0 0.00012975
13550.0 0.00013463
13570.0 0.00013944
13590.0 0.00014413
13610.0 0.00014829
13630.0 0.00015193
13650.0 0.00015526
13670.0 0.00015801
13690.0 0.00016015
13710.0 0.0001618
13730.0 0.00016297
13750.0 0.00016356
13770.0 0.0001637
13790.0 0.0001634
13810.0 0.00016268
13830.0 0.00016161
13850.0 0.00016017
13870.0 0.00015835
13890.0 0.00015627
13910.0 0.00015392
13930.0 0.0001512
13950.0 0.00014823
13970.0 0.0001452
13990.0 0.0001419
14010.0 0.00013839
14030.0 0.00013488
14050.0 0.00013135
14070.0 0.00012762
14090.0 0.00012405
14110.0 0.0001207
14130.0 0.00011744
14150.0 0.00011438
14170.0 0.00011177
14190.0 0.00010951
14210.0 0.00010759
14230.0 0.00010617
14250.0 0.00010525
14270.0 0.00010481
14290.0 0.0001049
14310.0 0.00010549
14330.0 0.00010654
14350.0 0.00010808
14370.0 0.00011001
14390.0 0.00011219
14410.0 0.00011477
14430.0 0.0001176
14450.0 0.00012048
14470.0 0.00012348
14490.0 0.00012667
14510.0 0.00012971
14530.0 0.00013261
14550.0 0.0001355
14570.0 0.00013827
14590.0 0.0001408
14610.0 0.00014325
14630.0 0.00014567
14650.0 0.00014792
14670.0 0.0001501
14690.0 0.00015236
14710.0 0.00015475
14730.0 0.00015714
14750.0 0.00015978
14770.0 0.00016278
14790.0 0.00016603
14810.0 0.00016955
14830.0 0.00017372
14850.0 0.00017825
14870.0 0.00018299
14890.0 0.00018809
14910.0 0.00019351
14930.0 0.00019872
14950.0 0.00020359
14970.0 0.00020821
14990.0 0.00021207
15010.0 0.00021503
15030.0 0.00021722
15050.0 0.00021867
15070.0 0.00021938
15090.0 0.00021962
15110.0 0.00021955
15130.0 0.00021928
15150.0 0.00021891
15170.0 0.00021847
15190.0 0.000218
15210.0 0.00021753
15230.0 0.00021707
15250.0 0.00021659
15270.0 0.00021612
15290.0 0.00021567
15310.0 0.00021521
15330.0 0.00021474
15350.0 0.00021429
15370.0 0.00021385
15390.0 0.00021338
15410.0 0.00021293
15430.0 0.0002125
15450.0 0.00021205
15470.0 0.00021159
15490.0 0.00021116
15510.0 0.00021073
15530.0 0.00021029
15550.0 0.00020985
15570.0 0.00020943
15590.0 0.00020899
15610.0 0.00020855
15630.0 0.00020813
15650.0 0.00020771
15670.0 0.00020727
15690.0 0.00020685
15710.0 0.00020644
15730.0 0.00020601
15750.0 0.00020558
15770.0 0.00020517
15790.0 0.00020476
15810.0 0.00020433
15830.0 0.00020391
15850.0 0.00020351
15870.0 0.00020309
15890.0 0.00020267
15910.0 0.00020227
15930.0 0.00020186
15950.0 0.00020143
15970.0 0.00020102
15990.0 0.00020062
16010.0 0.0002002
16030.0 0.00019978
16050.0 0.00019939
16070.0 0.00019898
16090.0 0.00019856
16110.0 0.00019816
16130.0 0.00019777
16150.0 0.00019734
16170.0 0.00019693
16190.0 0.00019653
16210.0 0.00019612
16230.0 0.0001957
16250.0 0.0001953
16270.0 0.0001949
16290.0 0.00019449
16310.0 0.00019407
16330.0 0.00019368
16350.0 0.00019327
16370.0 0.00019284
16390.0 0.00019244
16410.0 0.00019204
16430.0 0.00019162
16450.0 0.0001912
16470.0 0.00019081
16490.0 0.00019039
16510.0 0.00018997
16530.0 0.00018956
16550.0 0.00018915
16570.0 0.00018873
16590.0 0.00018831
16610.0 0.00018791
16630.0 0.00018749
16650.0 0.00018706
16670.0 0.00018665
16690.0 0.00018625
16710.0 0.00018581
16730.0 0.00018539
16750.0 0.00018498
16770.0 0.00018455
16790.0 0.00018412
16810.0 0.0001837
16830.0 0.00018329
16850.0 0.00018285
16870.0 0.00018242
16890.0 0.00018201
16910.0 0.00018157
16930.0 0.00018113
16950.0 0.00018071
16970.0 0.00018028
16990.0 0.00017984
17010.0 0.00017941
17030.0 0.00017899
17050.0 0.00017854
17070.0 0.0001781
17090.0 0.00017767
17110.0 0.00017723
17130.0 0.00017677
17150.0 0.00017634
17170.0 0.0001759
17190.0 0.00017546
17210.0 0.00017501
17230.0 0.00017457
17250.0 0.00017413
17270.0 0.00017366
17290.0 0.00017322
17310.0 0.00017278
17330.0 0.00017232
17350.0 0.00017185
17370.0 0.00017141
17390.0 0.00017096
17410.0 0.0001705
17430.0 0.00017004
17450.0 0.0001696
17470.0 0.00016912
17490.0 0.00016865
17510.0 0.0001682
17530.0 0.00016774
17550.0 0.00016726
17570.0 0.00016681
17590.0 0.00016635
17610.0 0.00016587
17630.0 0.0001654
17650.0 0.00016494
17670.0 0.00016447
17690.0 0.00016398
17710.0 0.00016352
17730.0 0.00016305
17750.0 0.00016257
17770.0 0.00016209
17790.0 0.00016163
17810.0 0.00016114
17830.0 0.00016066
17850.0 0.00016018
17870.0 0.00015971
17890.0 0.00015921
17910.0 0.00015872
17930.0 0.00015826
17950.0 0.00015777
17970.0 0.00015728
17990.0 0.0001568
18010.0 0.00015632
18030.0 0.00015581
18050.0 0.00015532
18070.0 0.00015485
18090.0 0.00015435
18110.0 0.00015385
18130.0 0.00015337
18150.0 0.00015288
18170.0 0.00015238
18190.0 0.00015188
18210.0 0.0001514
18230.0 0.0001509
18250.0 0.00015039
18270.0 0.0001499
18290.0 0.00014941
18310.0 0.0001489
18330.0 0.0001484
18350.0 0.00014792
18370.0 0.00014741
18390.0 0.0001469
18410.0 0.00014641
18430.0 0.00014591
18450.0 0.00014539
18470.0 0.00014489
18490.0 0.0001444
18510.0 0.00014389
18530.0 0.00014338
18550.0 0.00014289
18570.0 0.00014238
18590.0 0.00014186
18610.0 0.00014136
18630.0 0.00014086
18650.0 0.00014035
18670.0 0.00013983
18690.0 0.00013934
18710.0 0.00013883
18730.0 0.00013831
18750.0 0.00013781
18770.0 0.00013731
18790.0 0.00013679
18810.0 0.00013627
18830.0 0.00013577
18850.0 0.00013526
18870.0 0.00013474
18890.0 0.00013424
18910.0 0.00013374
18930.0 0.00013322
18950.0 0.00013271
18970.0 0.00013221
18990.0 0.00013169
19010.0 0.00013116
19030.0 0.00013066
19050.0 0.00013016
19070.0 0.00012964
19090.0 0.00012913
19110.0 0.00012863
19130.0 0.00012811
19150.0 0.00012759
19170.0 0.00012709
19190.0 0.00012658
19210.0 0.00012606
19230.0 0.00012554
19250.0 0.00012504
19270.0 0.00012453
19290.0 0.00012401
19310.0 0.00012351
19330.0 0.00012301
19350.0 0.00012248
19370.0 0.00012197
19390.0 0.00012147
19410.0 0.00012095
19430.0 0.00012043
19450.0 0.00011993
19470.0 0.00011943
19490.0 0.00011891
19510.0 0.0001184
19530.0 0.0001179
19550.0 0.00011738
19570.0 0.00011686
19590.0 0.00011636
19610.0 0.00011585
19630.0 0.00011534
19650.0 0.00011483
19670.0 0.00011434
19690.0 0.00011382
19710.0 0.0001133
19730.0 0.00011281
19750.0 0.0001123
19770.0 0.00011178
19790.0 0.00011127
19810.0 0.00011078
19830.0 0.00011026
19850.0 0.00010974
19870.0 0.00010924
19890.0 0.00010869
19910.0 0.00010809
19930.0 0.00010745
19950.0 0.00010672
19970.0 0.00010581
19990.0 0.00010473
20010.0 9.3174e-05
20030.0 9.1825e-05
20050.0 9.0247e-05
20070.0 8.8537e-05
20090.0 8.6697e-05
20110.0 8.4616e-05
20130.0 8.251e-05
20150.0 8.0423e-05
20170.0 7.8258e-05
20190.0 7.6063e-05
20210.0 7.3989e-05
20230.0 7.1967e-05
20250.0 6.994e-05
20270.0 6.8059e-05
20290.0 6.6342e-05
20310.0 6.471e-05
20330.0 6.3185e-05
20350.0 6.1919e-05
20370.0 6.0795e-05
20390.0 5.9809e-05
20410.0 5.9014e-05
20430.0 5.84e-05
20450.0 5.7914e-05
20470.0 5.7588e-05
20490.0 5.7413e-05
20510.0 5.7363e-05
20530.0 5.7434e-05
20550.0 5.7611e-05
20570.0 5.7869e-05
20590.0 5.8218e-05
20610.0 5.8641e-05
20630.0 5.9107e-05
20650.0 5.9628e-05
20670.0 6.0224e-05
20690.0 6.0831e-05
20710.0 6.1459e-05
20730.0 6.2137e-05
20750.0 6.2844e-05
20770.0 6.3539e-05
20790.0 6.4269e-05
20810.0 6.5042e-05
20830.0 6.581e-05
20850.0 6.6583e-05
20870.0 6.7409e-05
20890.0 6.8252e-05
20910.0 6.9065e-05
20930.0 6.9909e-05
20950.0 7.0783e-05
20970.0 7.1635e-05
20990.0 7.2476e-05
21010.0 7.3361e-05
21030.0 7.4225e-05
21050.0 7.505e-05
21070.0 7.5874e-05
21090.0 7.67e-05
21110.0 7.7453e-05
21130.0 7.8161e-05
21150.0 7.8847e-05
21170.0 7.9468e-05
21190.0 8.0002e-05
21210.0 8.0483e-05
21230.0 8.0882e-05
21250.0 8.1167e-05
21270.0 8.1348e-05
21290.0 8.1415e-05
21310.0 8.135e-05
21330.0 8.1159e-05
21350.0 8.0822e-05
21370.0 8.0327e-05
21390.0 7.9698e-05
21410.0 7.8928e-05
21430.0 7.7952e-05
21450.0 7.6857e-05
21470.0 7.5665e-05
21490.0 7.4316e-05
21510.0 7.2836e-05
21530.0 7.1333e-05
21550.0 6.9759e-05
21570.0 6.8079e-05
21590.0 6.6428e-05
21610.0 6.4832e-05
21630.0 6.3234e-05
21650.0 6.1673e-05
21670.0 6.032e-05
21690.0 5.9073e-05
21710.0 5.7949e-05
21730.0 5.7028e-05
21750.0 5.6318e-05
21770.0 5.5777e-05
21790.0 5.5466e-05
21810.0 5.538e-05
21830.0 5.5503e-05
21850.0 5.585e-05
21870.0 5.6391e-05
21890.0 5.709e-05
21910.0 5.7986e-05
21930.0 5.9037e-05
21950.0 6.0177e-05
21970.0 6.1438e-05
21990.0 6.2855e-05
22010.0 6.427e-05
22030.0 6.5708e-05
22050.0 6.7218e-05
22070.0 6.8735e-05
22090.0 7.0173e-05
22110.0 7.1622e-05
22130.0 7.3069e-05
22150.0 7.442e-05
22170.0 7.5694e-05
22190.0 7.6956e-05
22210.0 7.8131e-05
22230.0 7.9165e-05
22250.0 8.0138e-05
22270.0 8.1034e-05
22290.0 8.1801e-05
22310.0 8.2458e-05
22330.0 8.3037e-05
22350.0 8.3485e-05
22370.0 8.38e-05
22390.0 8.3998e-05
22410.0 8.406e-05
22430.0 8.398e-05
22450.0 8.3764e-05
22470.0 8.339e-05
22490.0 8.2865e-05
22510.0 8.221e-05
22530.0 8.1373e-05
22550.0 8.0354e-05
22570.0 7.9225e-05
22590.0 7.795e-05
22610.0 7.6485e-05
22630.0 7.4898e-05
22650.0 7.3258e-05
22670.0 7.1444e-05
22690.0 6.9508e-05
22710.0 6.7555e-05
22730.0 6.5542e-05
22750.0 6.336e-05
22770.0 6.1227e-05
22790.0 5.9145e-05
22810.0 5.7008e-05
22830.0 5.4875e-05
22850.0 5.2879e-05
