#lamb flux
1010.0 1.5387e-08
1030.0 1.7018e-08
1050.0 1.8894e-08
1070.0 2.1005e-08
1090.0 2.3404e-08
1110.0 2.5865e-08
1130.0 2.8341e-08
1150.0 3.0935e-08
1170.0 3.361e-08
1190.0 3.6148e-08
1210.0 3.8719e-08
1230.0 4.1376e-08
1250.0 4.398e-08
1270.0 4.6508e-08
1290.0 4.918e-08
1310.0 5.1849e-08
1330.0 5.4409e-08
1350.0 5.6998e-08
1370.0 5.9671e-08
1390.0 6.2277e-08
1410.0 6.4806e-08
1430.0 6.745e-08
1450.0 7.0094e-08
1470.0 7.2649e-08
1490.0 7.5231e-08
1510.0 7.796e-08
1530.0 8.0546e-08
1550.0 8.3097e-08
1570.0 8.5736e-08
1590.0 8.8379e-08
1610.0 9.0905e-08
1630.0 9.3511e-08
1650.0 9.6185e-08
1670.0 9.8774e-08
1690.0 1.0133e-07
1710.0 1.0399e-07
1730.0 1.0666e-07
1750.0 1.0918e-07
1770.0 1.1177e-07
1790.0 1.1442e-07
1810.0 1.1699e-07
1830.0 1.1952e-07
1850.0 1.222e-07
1870.0 1.2482e-07
1890.0 1.2736e-07
1910.0 1.2995e-07
1930.0 1.3261e-07
1950.0 1.3516e-07
1970.0 1.3768e-07
1990.0 1.403e-07
2010.0 1.4288e-07
2030.0 1.4538e-07
2050.0 1.4796e-07
2070.0 1.5061e-07
2090.0 1.5312e-07
2110.0 1.5562e-07
2130.0 1.582e-07
2150.0 1.6074e-07
2170.0 1.6318e-07
2190.0 1.6571e-07
2210.0 1.6826e-07
2230.0 1.7072e-07
2250.0 1.7316e-07
2270.0 1.7572e-07
2290.0 1.782e-07
2310.0 1.8059e-07
2330.0 1.8307e-07
2350.0 1.8562e-07
2370.0 1.8816e-07
2390.0 1.9091e-07
2410.0 1.9416e-07
2430.0 1.9791e-07
2450.0 2.0239e-07
2470.0 2.0813e-07
2490.0 2.1536e-07
2510.0 2.2358e-07
2530.0 2.3348e-07
2550.0 2.4587e-07
2570.0 2.6128e-07
2590.0 2.8132e-07
2610.0 3.1134e-07
2630.0 3.5419e-07
2650.0 4.1021e-07
2670.0 4.8265e-07
2690.0 5.7167e-07
2710.0 6.667e-07
2730.0 7.6059e-07
2750.0 8.5307e-07
2770.0 9.3351e-07
2790.0 9.9739e-07
2810.0 1.0481e-06
2830.0 1.0877e-06
2850.0 1.1147e-06
2870.0 1.1346e-06
2890.0 1.1503e-06
2910.0 1.1628e-06
2930.0 1.1731e-06
2950.0 1.1828e-06
2970.0 1.1924e-06
2990.0 1.2014e-06
3010.0 3.3958e-05
3030.0 3.4212e-05
3050.0 3.4457e-05
3070.0 3.4667e-05
3090.0 3.4848e-05
3110.0 3.496e-05
3130.0 3.4955e-05
3150.0 3.48e-05
3170.0 3.4427e-05
3190.0 3.3842e-05
3210.0 3.31e-05
3230.0 3.225e-05
3250.0 3.1411e-05
3270.0 3.0799e-05
3290.0 3.0458e-05
3310.0 3.0513e-05
3330.0 3.0955e-05
3350.0 3.1724e-05
3370.0 3.2822e-05
3390.0 3.4206e-05
3410.0 3.5712e-05
3430.0 3.7403e-05
3450.0 3.9349e-05
3470.0 4.1475e-05
3490.0 4.3727e-05
3510.0 4.6273e-05
3530.0 4.9e-05
3550.0 5.176e-05
3570.0 5.464e-05
3590.0 5.7771e-05
3610.0 6.0998e-05
3630.0 6.4215e-05
3650.0 6.7553e-05
3670.0 7.06e-05
3690.0 7.2877e-05
3710.0 7.4183e-05
3730.0 7.4226e-05
3750.0 7.3193e-05
3770.0 7.2787e-05
3790.0 7.2355e-05
3810.0 7.0576e-05
3830.0 7.2761e-05
3850.0 8.1355e-05
3870.0 8.6073e-05
3890.0 8.568e-05
3910.0 8.6046e-05
3930.0 8.8311e-05
3950.0 8.9705e-05
3970.0 8.173e-05
3990.0 7.0325e-05
4010.0 0.00021077
4030.0 0.00025538
4050.0 0.00029278
4070.0 0.00025403
4090.0 0.00023008
4110.0 0.00020302
4130.0 0.00018686
4150.0 0.00019876
4170.0 0.00019579
4190.0 0.0002087
4210.0 0.00020679
4230.0 0.00021873
4250.0 0.00025876
4270.0 0.0002618
4290.0 0.00024125
4310.0 0.00025067
4330.0 0.00026664
4350.0 0.00029897
4370.0 0.00034023
4390.0 0.00031927
4410.0 0.00023589
4430.0 0.00019969
4450.0 0.0001835
4470.0 0.00014084
4490.0 0.00015198
4510.0 0.00022957
4530.0 0.00026477
4550.0 0.00026706
4570.0 0.00030052
4590.0 0.00034232
4610.0 0.0004617
4630.0 0.00059966
4650.0 0.00065032
4670.0 0.00060226
4690.0 0.00057466
4710.0 0.00060746
4730.0 0.00057327
4750.0 0.00042859
4770.0 0.00031439
4790.0 0.00029358
4810.0 0.00027982
4830.0 0.00025618
4850.0 0.00028111
4870.0 0.00037137
4890.0 0.00043796
4910.0 0.00038425
4930.0 0.00034001
4950.0 0.00037355
4970.0 0.00047905
4990.0 0.00064923
5010.0 0.00074685
5030.0 0.00065855
5050.0 0.00044555
5070.0 0.00029364
5090.0 0.00023677
5110.0 0.0002435
5130.0 0.00028104
5150.0 0.00030448
5170.0 0.00029991
5190.0 0.00028025
5210.0 0.00029293
5230.0 0.00030793
5250.0 0.00033187
5270.0 0.00035806
5290.0 0.00039681
5310.0 0.00046187
5330.0 0.00051112
5350.0 0.00050786
5370.0 0.00053346
5390.0 0.00061216
5410.0 0.00061161
5430.0 0.00054088
5450.0 0.00049695
5470.0 0.00052767
5490.0 0.00064467
5510.0 0.00080606
5530.0 0.00092451
5550.0 0.00089356
5570.0 0.00081231
5590.0 0.00070632
5610.0 0.00065138
5630.0 0.00063164
5650.0 0.00060158
5670.0 0.00057004
5690.0 0.00050962
5710.0 0.00049689
5730.0 0.00045771
5750.0 0.00032271
5770.0 0.00025177
5790.0 0.00028531
5810.0 0.00032217
5830.0 0.00039534
5850.0 0.00047061
5870.0 0.00052215
5890.0 0.000531
5910.0 0.00052095
5930.0 0.00049589
5950.0 0.0005053
5970.0 0.00057599
5990.0 0.00054158
6010.0 0.00045401
6030.0 0.00038357
6050.0 0.00033404
6070.0 0.00033221
6090.0 0.00036023
6110.0 0.0004028
6130.0 0.00040897
6150.0 0.00035188
6170.0 0.00030955
6190.0 0.00034835
6210.0 0.00046051
6230.0 0.00060432
6250.0 0.00065457
6270.0 0.000572
6290.0 0.00048126
6310.0 0.0003757
6330.0 0.00028786
6350.0 0.00025676
6370.0 0.00027001
6390.0 0.00031215
6410.0 0.0003849
6430.0 0.00044946
6450.0 0.00051429
6470.0 0.00058888
6490.0 0.00071133
6510.0 0.00079535
6530.0 0.00078029
6550.0 0.00070559
6570.0 0.00059898
6590.0 0.00054012
6610.0 0.00046572
6630.0 0.00042193
6650.0 0.00039884
6670.0 0.00038747
6690.0 0.0003501
6710.0 0.00031824
6730.0 0.00022923
6750.0 0.00022725
6770.0 0.00024701
6790.0 0.00028392
6810.0 0.00025979
6830.0 0.00026751
6850.0 0.00025021
6870.0 0.00022857
6890.0 0.00021946
6910.0 0.00023386
6930.0 0.00021904
6950.0 0.00022536
6970.0 0.00023704
6990.0 0.00026906
7010.0 0.00027135
7030.0 0.00027566
7050.0 0.00026289
7070.0 0.00025048
7090.0 0.00025122
7110.0 0.00025848
7130.0 0.00027817
7150.0 0.00029544
7170.0 0.00032599
7190.0 0.00035836
7210.0 0.00035213
7230.0 0.000362
7250.0 0.00038903
7270.0 0.00042394
7290.0 0.00050318
7310.0 0.000546
7330.0 0.00052775
7350.0 0.00047732
7370.0 0.00041531
7390.0 0.0004029
7410.0 0.00042816
7430.0 0.00047585
7450.0 0.00051829
7470.0 0.00051353
7490.0 0.00046824
7510.0 0.0005304
7530.0 0.00052459
7550.0 0.00047151
7570.0 0.00036834
7590.0 0.00025322
7610.0 0.00021734
7630.0 0.00024694
7650.0 0.00029197
7670.0 0.00036338
7690.0 0.00039987
7710.0 0.00041671
7730.0 0.00043791
7750.0 0.0004916
7770.0 0.00049933
7790.0 0.00045866
7810.0 0.0004185
7830.0 0.00043157
7850.0 0.00041952
7870.0 0.00038463
7890.0 0.00032316
7910.0 0.00026269
7930.0 0.00025083
7950.0 0.00022851
7970.0 0.00021153
7990.0 0.00021032
8010.0 1.5577e-05
8030.0 1.5374e-05
8050.0 1.5167e-05
8070.0 1.5366e-05
8090.0 1.651e-05
8110.0 1.6229e-05
8130.0 1.3387e-05
8150.0 1.3037e-05
8170.0 1.123e-05
8190.0 1.0642e-05
8210.0 1.382e-05
8230.0 1.5387e-05
8250.0 1.3868e-05
8270.0 1.207e-05
8290.0 1.1766e-05
8310.0 9.0559e-06
8330.0 6.1036e-06
8350.0 4.3317e-06
8370.0 2.7291e-06
8390.0 4.9888e-06
8410.0 5.8133e-06
8430.0 7.1658e-06
8450.0 8.4146e-06
8470.0 1.0459e-05
8490.0 1.0385e-05
8510.0 1.0215e-05
8530.0 1.0661e-05
8550.0 1.4384e-05
8570.0 1.7028e-05
8590.0 1.8374e-05
8610.0 2.321e-05
8630.0 2.7959e-05
8650.0 2.9249e-05
8670.0 3.1082e-05
8690.0 3.1257e-05
8710.0 2.8307e-05
8730.0 2.633e-05
8750.0 2.3241e-05
8770.0 2.2052e-05
8790.0 2.1665e-05
8810.0 2.076e-05
8830.0 1.6601e-05
8850.0 1.2153e-05
8870.0 9.3054e-06
8890.0 9.0975e-06
8910.0 1.0426e-05
8930.0 1.1859e-05
8950.0 1.2086e-05
8970.0 1.2143e-05
8990.0 1.083e-05
9010.0 0.00011349
9030.0 0.00010284
9050.0 0.00010334
9070.0 0.00010415
9090.0 0.00010487
9110.0 0.00010575
9130.0 0.00010643
9150.0 0.00010696
9170.0 0.00010753
9190.0 0.00010813
9210.0 0.00010877
9230.0 0.00010944
9250.0 0.00011012
9270.0 0.00011082
9290.0 0.00011155
9310.0 0.00011228
9330.0 0.00011303
9350.0 0.0001138
9370.0 0.00011459
9390.0 0.00011538
9410.0 0.00011619
9430.0 0.00011703
9450.0 0.00011787
9470.0 0.00011872
9490.0 0.0001196
9510.0 0.00012049
9530.0 0.00012138
9550.0 0.0001223
9570.0 0.00012324
9590.0 0.00012419
9610.0 0.00012515
9630.0 0.00012613
9650.0 0.00012712
9670.0 0.00012812
9690.0 0.00012914
9710.0 0.00013017
9730.0 0.00013121
9750.0 0.00013227
9770.0 0.00013335
9790.0 0.00013444
9810.0 0.00013553
9830.0 0.00013664
9850.0 0.00013777
9870.0 0.00013889
9890.0 0.00014003
9910.0 0.00014119
9930.0 0.00014236
9950.0 0.00014352
9970.0 0.00014472
9990.0 0.00014592
10010.0 0.00012662
10030.0 0.00012766
10050.0 0.00012872
10070.0 0.00012981
10090.0 0.00013085
10110.0 0.00013191
10130.0 0.00013297
10150.0 0.00013403
10170.0 0.00013511
10190.0 0.0001362
10210.0 0.00013728
10230.0 0.00013835
10250.0 0.00013945
10270.0 0.00014054
10290.0 0.00014162
10310.0 0.00014271
10330.0 0.00014381
10350.0 0.0001449
10370.0 0.00014598
10390.0 0.00014707
10410.0 0.00014816
10430.0 0.00014922
10450.0 0.0001503
10470.0 0.00015138
10490.0 0.00015244
10510.0 0.0001535
10530.0 0.00015457
10550.0 0.00015563
10570.0 0.00015666
10590.0 0.0001577
10610.0 0.00015873
10630.0 0.00015974
10650.0 0.00016075
10670.0 0.00016176
10690.0 0.00016276
10710.0 0.00016373
10730.0 0.0001647
10750.0 0.00016568
10770.0 0.00016661
10790.0 0.00016754
10810.0 0.00016847
10830.0 0.00016937
10850.0 0.00017022
10870.0 0.00017105
10890.0 0.00017178
10910.0 0.00017234
10930.0 0.00017265
10950.0 0.00017258
10970.0 0.00017199
10990.0 0.00017085
11010.0 0.00016893
11030.0 0.00016624
11050.0 0.00016297
11070.0 0.00015905
11090.0 0.00015434
11110.0 0.00014948
11130.0 0.0001444
11150.0 0.00013893
11170.0 0.0001333
11190.0 0.00012783
11210.0 0.00012219
11230.0 0.0001164
11250.0 0.00011087
11270.0 0.00010556
11290.0 0.00010023
11310.0 9.5193e-05
11330.0 9.0754e-05
11350.0 8.656e-05
11370.0 8.2684e-05
11390.0 7.9331e-05
11410.0 7.6398e-05
11430.0 7.3673e-05
11450.0 7.1325e-05
11470.0 6.9294e-05
11490.0 6.7405e-05
11510.0 6.5584e-05
11530.0 6.3895e-05
11550.0 6.2217e-05
11570.0 6.0426e-05
11590.0 5.8572e-05
11610.0 5.6685e-05
11630.0 5.463e-05
11650.0 5.2431e-05
11670.0 5.0264e-05
11690.0 4.8066e-05
11710.0 4.5798e-05
11730.0 4.3601e-05
11750.0 4.1568e-05
11770.0 3.9574e-05
11790.0 3.7705e-05
11810.0 3.606e-05
11830.0 3.4589e-05
11850.0 3.3233e-05
11870.0 3.21e-05
11890.0 3.1157e-05
11910.0 3.0329e-05
11930.0 2.9618e-05
11950.0 2.9025e-05
11970.0 2.8495e-05
11990.0 2.7995e-05
12010.0 2.7532e-05
12030.0 2.7085e-05
12050.0 2.6624e-05
12070.0 2.6144e-05
12090.0 2.5682e-05
12110.0 2.5212e-05
12130.0 2.4742e-05
12150.0 2.4308e-05
12170.0 2.3929e-05
12190.0 2.3602e-05
12210.0 2.3373e-05
12230.0 2.3263e-05
12250.0 2.328e-05
12270.0 2.3456e-05
12290.0 2.3788e-05
12310.0 2.4264e-05
12330.0 2.493e-05
12350.0 2.5761e-05
12370.0 2.6707e-05
12390.0 2.7798e-05
12410.0 2.9077e-05
12430.0 3.0376e-05
12450.0 3.1722e-05
12470.0 3.3153e-05
12490.0 3.459e-05
12510.0 3.5938e-05
12530.0 3.7279e-05
12550.0 3.8573e-05
12570.0 3.9715e-05
12590.0 4.0718e-05
12610.0 4.1611e-05
12630.0 4.2324e-05
12650.0 4.2815e-05
12670.0 4.3138e-05
12690.0 4.3268e-05
12710.0 4.3196e-05
12730.0 4.2946e-05
12750.0 4.2499e-05
12770.0 4.1886e-05
12790.0 4.1143e-05
12810.0 4.0255e-05
12830.0 3.9228e-05
12850.0 3.8154e-05
12870.0 3.7018e-05
12890.0 3.5789e-05
12910.0 3.454e-05
12930.0 3.3309e-05
12950.0 3.2024e-05
12970.0 3.0716e-05
12990.0 2.9479e-05
13010.0 2.8257e-05
13030.0 2.7021e-05
13050.0 2.5835e-05
13070.0 2.4723e-05
13090.0 2.3607e-05
13110.0 2.2528e-05
13130.0 2.1533e-05
13150.0 2.0591e-05
13170.0 1.9668e-05
13190.0 1.8847e-05
13210.0 1.8124e-05
13230.0 1.7464e-05
13250.0 1.6895e-05
13270.0 1.6446e-05
13290.0 1.6097e-05
13310.0 1.5857e-05
13330.0 1.5748e-05
13350.0 1.576e-05
13370.0 1.5902e-05
13390.0 1.6179e-05
13410.0 1.6555e-05
13430.0 1.7043e-05
13450.0 1.7645e-05
13470.0 1.8314e-05
13490.0 1.9023e-05
13510.0 1.9822e-05
13530.0 2.0632e-05
13550.0 2.1407e-05
13570.0 2.2172e-05
13590.0 2.2917e-05
13610.0 2.358e-05
13630.0 2.4158e-05
13650.0 2.4686e-05
13670.0 2.5125e-05
13690.0 2.5464e-05
13710.0 2.5726e-05
13730.0 2.5914e-05
13750.0 2.6007e-05
13770.0 2.6029e-05
13790.0 2.5981e-05
13810.0 2.5867e-05
13830.0 2.5697e-05
13850.0 2.5468e-05
13870.0 2.5178e-05
13890.0 2.4847e-05
13910.0 2.4474e-05
13930.0 2.4042e-05
13950.0 2.357e-05
13970.0 2.3088e-05
13990.0 2.2563e-05
14010.0 2.2004e-05
14030.0 2.1447e-05
14050.0 2.0886e-05
14070.0 2.0293e-05
14090.0 1.9725e-05
14110.0 1.9191e-05
14130.0 1.8674e-05
14150.0 1.8187e-05
14170.0 1.7771e-05
14190.0 1.7412e-05
14210.0 1.7107e-05
14230.0 1.6881e-05
14250.0 1.6736e-05
14270.0 1.6665e-05
14290.0 1.668e-05
14310.0 1.6773e-05
14330.0 1.694e-05
14350.0 1.7186e-05
14370.0 1.7492e-05
14390.0 1.7839e-05
14410.0 1.8249e-05
14430.0 1.8698e-05
14450.0 1.9157e-05
14470.0 1.9634e-05
14490.0 2.014e-05
14510.0 2.0625e-05
14530.0 2.1085e-05
14550.0 2.1545e-05
14570.0 2.1986e-05
14590.0 2.2388e-05
14610.0 2.2777e-05
14630.0 2.3162e-05
14650.0 2.352e-05
14670.0 2.3866e-05
14690.0 2.4227e-05
14710.0 2.4606e-05
14730.0 2.4985e-05
14750.0 2.5406e-05
14770.0 2.5882e-05
14790.0 2.6399e-05
14810.0 2.6959e-05
14830.0 2.7622e-05
14850.0 2.8343e-05
14870.0 2.9096e-05
14890.0 2.9907e-05
14910.0 3.0769e-05
14930.0 3.1598e-05
14950.0 3.2373e-05
14970.0 3.3106e-05
14990.0 3.3721e-05
15010.0 3.4191e-05
15030.0 3.4539e-05
15050.0 3.4769e-05
15070.0 3.4882e-05
15090.0 3.4921e-05
15110.0 3.491e-05
15130.0 3.4866e-05
15150.0 3.4807e-05
15170.0 3.4737e-05
15190.0 3.4662e-05
15210.0 3.4589e-05
15230.0 3.4515e-05
15250.0 3.4439e-05
15270.0 3.4364e-05
15290.0 3.4292e-05
15310.0 3.4219e-05
15330.0 3.4145e-05
15350.0 3.4074e-05
15370.0 3.4003e-05
15390.0 3.3929e-05
15410.0 3.3857e-05
15430.0 3.3788e-05
15450.0 3.3717e-05
15470.0 3.3644e-05
15490.0 3.3576e-05
15510.0 3.3507e-05
15530.0 3.3437e-05
15550.0 3.3367e-05
15570.0 3.3301e-05
15590.0 3.3231e-05
15610.0 3.316e-05
15630.0 3.3094e-05
15650.0 3.3027e-05
15670.0 3.2957e-05
15690.0 3.289e-05
15710.0 3.2825e-05
15730.0 3.2757e-05
15750.0 3.2689e-05
15770.0 3.2624e-05
15790.0 3.2558e-05
15810.0 3.2489e-05
15830.0 3.2423e-05
15850.0 3.2359e-05
15870.0 3.2292e-05
15890.0 3.2225e-05
15910.0 3.2162e-05
15930.0 3.2096e-05
15950.0 3.2029e-05
15970.0 3.1964e-05
15990.0 3.19e-05
16010.0 3.1833e-05
16030.0 3.1766e-05
16050.0 3.1704e-05
16070.0 3.1639e-05
16090.0 3.1573e-05
16110.0 3.1508e-05
16130.0 3.1446e-05
16150.0 3.1378e-05
16170.0 3.1312e-05
16190.0 3.1249e-05
16210.0 3.1184e-05
16230.0 3.1118e-05
16250.0 3.1054e-05
16270.0 3.0991e-05
16290.0 3.0924e-05
16310.0 3.0859e-05
16330.0 3.0796e-05
16350.0 3.0731e-05
16370.0 3.0662e-05
16390.0 3.0598e-05
16410.0 3.0535e-05
16430.0 3.0468e-05
16450.0 3.0402e-05
16470.0 3.0339e-05
16490.0 3.0273e-05
16510.0 3.0206e-05
16530.0 3.0141e-05
16550.0 3.0076e-05
16570.0 3.0009e-05
16590.0 2.9942e-05
16610.0 2.9878e-05
16630.0 2.9812e-05
16650.0 2.9744e-05
16670.0 2.9679e-05
16690.0 2.9614e-05
16710.0 2.9544e-05
16730.0 2.9477e-05
16750.0 2.9412e-05
16770.0 2.9344e-05
16790.0 2.9275e-05
16810.0 2.921e-05
16830.0 2.9143e-05
16850.0 2.9074e-05
16870.0 2.9006e-05
16890.0 2.894e-05
16910.0 2.8871e-05
16930.0 2.88e-05
16950.0 2.8733e-05
16970.0 2.8666e-05
16990.0 2.8595e-05
17010.0 2.8526e-05
17030.0 2.846e-05
17050.0 2.8389e-05
17070.0 2.8318e-05
17090.0 2.825e-05
17110.0 2.8181e-05
17130.0 2.8108e-05
17150.0 2.8038e-05
17170.0 2.797e-05
17190.0 2.7898e-05
17210.0 2.7827e-05
17230.0 2.7758e-05
17250.0 2.7687e-05
17270.0 2.7613e-05
17290.0 2.7542e-05
17310.0 2.7472e-05
17330.0 2.7399e-05
17350.0 2.7325e-05
17370.0 2.7256e-05
17390.0 2.7184e-05
17410.0 2.711e-05
17430.0 2.7038e-05
17450.0 2.6967e-05
17470.0 2.6891e-05
17490.0 2.6817e-05
17510.0 2.6745e-05
17530.0 2.6671e-05
17550.0 2.6596e-05
17570.0 2.6523e-05
17590.0 2.6451e-05
17610.0 2.6375e-05
17630.0 2.63e-05
17650.0 2.6227e-05
17670.0 2.6152e-05
17690.0 2.6073e-05
17710.0 2.6e-05
17730.0 2.5926e-05
17750.0 2.5849e-05
17770.0 2.5773e-05
17790.0 2.57e-05
17810.0 2.5623e-05
17830.0 2.5545e-05
17850.0 2.547e-05
17870.0 2.5394e-05
17890.0 2.5316e-05
17910.0 2.5238e-05
17930.0 2.5164e-05
17950.0 2.5086e-05
17970.0 2.5008e-05
17990.0 2.4932e-05
18010.0 2.4856e-05
18030.0 2.4775e-05
18050.0 2.4697e-05
18070.0 2.4621e-05
18090.0 2.4543e-05
18110.0 2.4463e-05
18130.0 2.4386e-05
18150.0 2.4309e-05
18170.0 2.4229e-05
18190.0 2.415e-05
18210.0 2.4074e-05
18230.0 2.3993e-05
18250.0 2.3912e-05
18270.0 2.3835e-05
18290.0 2.3756e-05
18310.0 2.3676e-05
18330.0 2.3597e-05
18350.0 2.352e-05
18370.0 2.3439e-05
18390.0 2.3358e-05
18410.0 2.328e-05
18430.0 2.32e-05
18450.0 2.3117e-05
18470.0 2.3038e-05
18490.0 2.296e-05
18510.0 2.2879e-05
18530.0 2.2798e-05
18550.0 2.272e-05
18570.0 2.2639e-05
18590.0 2.2557e-05
18610.0 2.2477e-05
18630.0 2.2398e-05
18650.0 2.2316e-05
18670.0 2.2233e-05
18690.0 2.2155e-05
18710.0 2.2075e-05
18730.0 2.1992e-05
18750.0 2.1912e-05
18770.0 2.1834e-05
18790.0 2.175e-05
18810.0 2.1668e-05
18830.0 2.1589e-05
18850.0 2.1508e-05
18870.0 2.1425e-05
18890.0 2.1345e-05
18910.0 2.1265e-05
18930.0 2.1183e-05
18950.0 2.1101e-05
18970.0 2.1022e-05
18990.0 2.094e-05
19010.0 2.0855e-05
19030.0 2.0776e-05
19050.0 2.0696e-05
19070.0 2.0613e-05
19090.0 2.0532e-05
19110.0 2.0453e-05
19130.0 2.0371e-05
19150.0 2.0288e-05
19170.0 2.0207e-05
19190.0 2.0127e-05
19210.0 2.0043e-05
19230.0 1.9962e-05
19250.0 1.9883e-05
19270.0 1.9801e-05
19290.0 1.9719e-05
19310.0 1.9639e-05
19330.0 1.9559e-05
19350.0 1.9474e-05
19370.0 1.9393e-05
19390.0 1.9314e-05
19410.0 1.9232e-05
19430.0 1.9149e-05
19450.0 1.907e-05
19470.0 1.8989e-05
19490.0 1.8907e-05
19510.0 1.8826e-05
19530.0 1.8747e-05
19550.0 1.8664e-05
19570.0 1.8581e-05
19590.0 1.8502e-05
19610.0 1.8421e-05
19630.0 1.8339e-05
19650.0 1.8259e-05
19670.0 1.818e-05
19690.0 1.8098e-05
19710.0 1.8016e-05
19730.0 1.7937e-05
19750.0 1.7856e-05
19770.0 1.7773e-05
19790.0 1.7693e-05
19810.0 1.7614e-05
19830.0 1.7532e-05
19850.0 1.745e-05
19870.0 1.7369e-05
19890.0 1.7282e-05
19910.0 1.7187e-05
19930.0 1.7085e-05
19950.0 1.6968e-05
19970.0 1.6825e-05
19990.0 1.6652e-05
20010.0 1.4815e-05
20030.0 1.4601e-05
20050.0 1.435e-05
20070.0 1.4078e-05
20090.0 1.3785e-05
20110.0 1.3454e-05
20130.0 1.312e-05
20150.0 1.2788e-05
20170.0 1.2443e-05
20190.0 1.2094e-05
20210.0 1.1765e-05
20230.0 1.1443e-05
20250.0 1.1121e-05
20270.0 1.0822e-05
20290.0 1.0549e-05
20310.0 1.0289e-05
20330.0 1.0047e-05
20350.0 9.8453e-06
20370.0 9.6667e-06
20390.0 9.51e-06
20410.0 9.3835e-06
20430.0 9.2859e-06
20450.0 9.2086e-06
20470.0 9.1568e-06
20490.0 9.129e-06
20510.0 9.121e-06
20530.0 9.1323e-06
20550.0 9.1604e-06
20570.0 9.2014e-06
20590.0 9.257e-06
20610.0 9.3242e-06
20630.0 9.3983e-06
20650.0 9.4812e-06
20670.0 9.5759e-06
20690.0 9.6725e-06
20710.0 9.7723e-06
20730.0 9.88e-06
20750.0 9.9924e-06
20770.0 1.0103e-05
20790.0 1.0219e-05
20810.0 1.0342e-05
20830.0 1.0464e-05
20850.0 1.0587e-05
20870.0 1.0718e-05
20890.0 1.0852e-05
20910.0 1.0982e-05
20930.0 1.1116e-05
20950.0 1.1255e-05
20970.0 1.139e-05
20990.0 1.1524e-05
21010.0 1.1665e-05
21030.0 1.1802e-05
21050.0 1.1933e-05
21070.0 1.2064e-05
21090.0 1.2196e-05
21110.0 1.2315e-05
21130.0 1.2428e-05
21150.0 1.2537e-05
21170.0 1.2636e-05
21190.0 1.2721e-05
21210.0 1.2797e-05
21230.0 1.2861e-05
21250.0 1.2906e-05
21270.0 1.2935e-05
21290.0 1.2945e-05
21310.0 1.2935e-05
21330.0 1.2905e-05
21350.0 1.2851e-05
21370.0 1.2772e-05
21390.0 1.2672e-05
21410.0 1.255e-05
21430.0 1.2395e-05
21450.0 1.2221e-05
21470.0 1.2031e-05
21490.0 1.1817e-05
21510.0 1.1581e-05
21530.0 1.1342e-05
21550.0 1.1092e-05
21570.0 1.0825e-05
21590.0 1.0562e-05
21610.0 1.0309e-05
21630.0 1.0055e-05
21650.0 9.8063e-06
21670.0 9.5912e-06
21690.0 9.3928e-06
21710.0 9.2141e-06
21730.0 9.0678e-06
21750.0 8.9549e-06
21770.0 8.8689e-06
21790.0 8.8194e-06
21810.0 8.8057e-06
21830.0 8.8252e-06
21850.0 8.8804e-06
21870.0 8.9664e-06
21890.0 9.0775e-06
21910.0 9.2201e-06
21930.0 9.3872e-06
21950.0 9.5684e-06
21970.0 9.769e-06
21990.0 9.9942e-06
22010.0 1.0219e-05
22030.0 1.0448e-05
22050.0 1.0688e-05
22070.0 1.0929e-05
22090.0 1.1158e-05
22110.0 1.1388e-05
22130.0 1.1618e-05
22150.0 1.1833e-05
22170.0 1.2036e-05
22190.0 1.2236e-05
22210.0 1.2423e-05
22230.0 1.2588e-05
22250.0 1.2742e-05
22270.0 1.2885e-05
22290.0 1.3007e-05
22310.0 1.3111e-05
22330.0 1.3203e-05
22350.0 1.3274e-05
22370.0 1.3325e-05
22390.0 1.3356e-05
22410.0 1.3366e-05
22430.0 1.3353e-05
22450.0 1.3319e-05
22470.0 1.3259e-05
22490.0 1.3176e-05
22510.0 1.3072e-05
22530.0 1.2939e-05
22550.0 1.2777e-05
22570.0 1.2597e-05
22590.0 1.2394e-05
22610.0 1.2161e-05
22630.0 1.1909e-05
