#lamb flux
1010.0 2.7028e-09
1030.0 2.9893e-09
1050.0 3.3188e-09
1070.0 3.6898e-09
1090.0 4.1112e-09
1110.0 4.5433e-09
1130.0 4.9783e-09
1150.0 5.4339e-09
1170.0 5.9039e-09
1190.0 6.3496e-09
1210.0 6.8013e-09
1230.0 7.2681e-09
1250.0 7.7254e-09
1270.0 8.1695e-09
1290.0 8.6388e-09
1310.0 9.1077e-09
1330.0 9.5574e-09
1350.0 1.0012e-08
1370.0 1.0482e-08
1390.0 1.094e-08
1410.0 1.1384e-08
1430.0 1.1848e-08
1450.0 1.2312e-08
1470.0 1.2761e-08
1490.0 1.3215e-08
1510.0 1.3694e-08
1530.0 1.4148e-08
1550.0 1.4597e-08
1570.0 1.506e-08
1590.0 1.5524e-08
1610.0 1.5968e-08
1630.0 1.6426e-08
1650.0 1.6896e-08
1670.0 1.735e-08
1690.0 1.78e-08
1710.0 1.8266e-08
1730.0 1.8736e-08
1750.0 1.9178e-08
1770.0 1.9634e-08
1790.0 2.0099e-08
1810.0 2.055e-08
1830.0 2.0994e-08
1850.0 2.1466e-08
1870.0 2.1926e-08
1890.0 2.2372e-08
1910.0 2.2827e-08
1930.0 2.3295e-08
1950.0 2.3742e-08
1970.0 2.4184e-08
1990.0 2.4645e-08
2010.0 2.5099e-08
2030.0 2.5537e-08
2050.0 2.599e-08
2070.0 2.6456e-08
2090.0 2.6896e-08
2110.0 2.7336e-08
2130.0 2.779e-08
2150.0 2.8236e-08
2170.0 2.8664e-08
2190.0 2.9108e-08
2210.0 2.9557e-08
2230.0 2.9987e-08
2250.0 3.0417e-08
2270.0 3.0866e-08
2290.0 3.1302e-08
2310.0 3.1721e-08
2330.0 3.2157e-08
2350.0 3.2605e-08
2370.0 3.3051e-08
2390.0 3.3534e-08
2410.0 3.4106e-08
2430.0 3.4765e-08
2450.0 3.5551e-08
2470.0 3.6559e-08
2490.0 3.783e-08
2510.0 3.9274e-08
2530.0 4.1012e-08
2550.0 4.3188e-08
2570.0 4.5895e-08
2590.0 4.9417e-08
2610.0 5.4688e-08
2630.0 6.2215e-08
2650.0 7.2057e-08
2670.0 8.4782e-08
2690.0 1.0042e-07
2710.0 1.1711e-07
2730.0 1.336e-07
2750.0 1.4985e-07
2770.0 1.6398e-07
2790.0 1.752e-07
2810.0 1.841e-07
2830.0 1.9106e-07
2850.0 1.9581e-07
2870.0 1.993e-07
2890.0 2.0206e-07
2910.0 2.0426e-07
2930.0 2.0606e-07
2950.0 2.0778e-07
2970.0 2.0946e-07
2990.0 2.1103e-07
3010.0 5.9649e-06
3030.0 6.0095e-06
3050.0 6.0526e-06
3070.0 6.0895e-06
3090.0 6.1213e-06
3110.0 6.141e-06
3130.0 6.1402e-06
3150.0 6.1129e-06
3170.0 6.0474e-06
3190.0 5.9446e-06
3210.0 5.8142e-06
3230.0 5.665e-06
3250.0 5.5176e-06
3270.0 5.41e-06
3290.0 5.3502e-06
3310.0 5.3599e-06
3330.0 5.4375e-06
3350.0 5.5726e-06
3370.0 5.7654e-06
3390.0 6.0085e-06
3410.0 6.2731e-06
3430.0 6.57e-06
3450.0 6.9119e-06
3470.0 7.2853e-06
3490.0 7.681e-06
3510.0 8.1282e-06
3530.0 8.6071e-06
3550.0 9.092e-06
3570.0 9.5978e-06
3590.0 1.0148e-05
3610.0 1.0715e-05
3630.0 1.128e-05
3650.0 1.1866e-05
3670.0 1.2401e-05
3690.0 1.2801e-05
3710.0 1.3031e-05
3730.0 1.3038e-05
3750.0 1.2857e-05
3770.0 1.2786e-05
3790.0 1.271e-05
3810.0 1.2397e-05
3830.0 1.2781e-05
3850.0 1.4291e-05
3870.0 1.5119e-05
3890.0 1.505e-05
3910.0 1.5114e-05
3930.0 1.5512e-05
3950.0 1.5757e-05
3970.0 1.4356e-05
3990.0 1.2353e-05
4010.0 3.7023e-05
4030.0 4.4859e-05
4050.0 5.1428e-05
4070.0 4.4623e-05
4090.0 4.0415e-05
4110.0 3.5662e-05
4130.0 3.2823e-05
4150.0 3.4914e-05
4170.0 3.4392e-05
4190.0 3.6659e-05
4210.0 3.6324e-05
4230.0 3.8421e-05
4250.0 4.5453e-05
4270.0 4.5988e-05
4290.0 4.2377e-05
4310.0 4.4033e-05
4330.0 4.6837e-05
4350.0 5.2516e-05
4370.0 5.9765e-05
4390.0 5.6082e-05
4410.0 4.1435e-05
4430.0 3.5077e-05
4450.0 3.2232e-05
4470.0 2.4739e-05
4490.0 2.6697e-05
4510.0 4.0326e-05
4530.0 4.6508e-05
4550.0 4.6912e-05
4570.0 5.2787e-05
4590.0 6.013e-05
4610.0 8.1102e-05
4630.0 0.00010533
4650.0 0.00011423
4670.0 0.00010579
4690.0 0.00010094
4710.0 0.0001067
4730.0 0.0001007
4750.0 7.5285e-05
4770.0 5.5224e-05
4790.0 5.1568e-05
4810.0 4.9153e-05
4830.0 4.4999e-05
4850.0 4.9379e-05
4870.0 6.5235e-05
4890.0 7.693e-05
4910.0 6.7496e-05
4930.0 5.9725e-05
4950.0 6.5616e-05
4970.0 8.4149e-05
4990.0 0.00011404
5010.0 0.00013119
5030.0 0.00011568
5050.0 7.8264e-05
5070.0 5.1579e-05
5090.0 4.1591e-05
5110.0 4.2772e-05
5130.0 4.9366e-05
5150.0 5.3484e-05
5170.0 5.2682e-05
5190.0 4.9228e-05
5210.0 5.1454e-05
5230.0 5.4089e-05
5250.0 5.8292e-05
5270.0 6.2892e-05
5290.0 6.9696e-05
5310.0 8.1123e-05
5330.0 8.9772e-05
5350.0 8.9198e-05
5370.0 9.3693e-05
5390.0 0.00010751
5410.0 0.00010741
5430.0 9.4991e-05
5450.0 8.7274e-05
5470.0 9.2668e-05
5490.0 0.00011321
5510.0 0.00014155
5530.0 0.00016235
5550.0 0.00015691
5570.0 0.00014264
5590.0 0.00012403
5610.0 0.00011438
5630.0 0.00011091
5650.0 0.00010563
5670.0 0.00010009
5690.0 8.9482e-05
5710.0 8.7245e-05
5730.0 8.0365e-05
5750.0 5.6661e-05
5770.0 4.4204e-05
5790.0 5.0092e-05
5810.0 5.6562e-05
5830.0 6.9409e-05
5850.0 8.2622e-05
5870.0 9.1669e-05
5890.0 9.3221e-05
5910.0 9.1455e-05
5930.0 8.7053e-05
5950.0 8.8705e-05
5970.0 0.00010111
5990.0 9.507e-05
6010.0 7.9697e-05
6030.0 6.7332e-05
6050.0 5.8638e-05
6070.0 5.8317e-05
6090.0 6.3236e-05
6110.0 7.0708e-05
6130.0 7.179e-05
6150.0 6.1769e-05
6170.0 5.4338e-05
6190.0 6.1149e-05
6210.0 8.0838e-05
6230.0 0.00010608
6250.0 0.0001149
6270.0 0.00010041
6290.0 8.448e-05
6310.0 6.5951e-05
6330.0 5.0531e-05
6350.0 4.5073e-05
6370.0 4.7398e-05
6390.0 5.4796e-05
6410.0 6.7566e-05
6430.0 7.8898e-05
6450.0 9.028e-05
6470.0 0.00010337
6490.0 0.00012487
6510.0 0.00013962
6530.0 0.00013697
6550.0 0.00012386
6570.0 0.00010515
6590.0 9.4813e-05
6610.0 8.1753e-05
6630.0 7.4066e-05
6650.0 7.0013e-05
6670.0 6.8016e-05
6690.0 6.1456e-05
6710.0 5.5865e-05
6730.0 4.0238e-05
6750.0 3.9892e-05
6770.0 4.336e-05
6790.0 4.984e-05
6810.0 4.5604e-05
6830.0 4.6959e-05
6850.0 4.3922e-05
6870.0 4.0123e-05
6890.0 3.8524e-05
6910.0 4.1052e-05
6930.0 3.8451e-05
6950.0 3.956e-05
6970.0 4.161e-05
6990.0 4.7231e-05
7010.0 4.7633e-05
7030.0 4.839e-05
7050.0 4.6147e-05
7070.0 4.397e-05
7090.0 4.4099e-05
7110.0 4.5374e-05
7130.0 4.883e-05
7150.0 5.1861e-05
7170.0 5.7225e-05
7190.0 6.2907e-05
7210.0 6.1814e-05
7230.0 6.3546e-05
7250.0 6.829e-05
7270.0 7.4419e-05
7290.0 8.8328e-05
7310.0 9.5845e-05
7330.0 9.2642e-05
7350.0 8.3789e-05
7370.0 7.2904e-05
7390.0 7.0726e-05
7410.0 7.516e-05
7430.0 8.3531e-05
7450.0 9.0981e-05
7470.0 9.0145e-05
7490.0 8.2194e-05
7510.0 9.3107e-05
7530.0 9.2088e-05
7550.0 8.2771e-05
7570.0 6.466e-05
7590.0 4.4451e-05
7610.0 3.8153e-05
7630.0 4.3349e-05
7650.0 5.1256e-05
7670.0 6.3792e-05
7690.0 7.0199e-05
7710.0 7.3156e-05
7730.0 7.6879e-05
7750.0 8.6306e-05
7770.0 8.7664e-05
7790.0 8.0524e-05
7810.0 7.3474e-05
7830.0 7.5769e-05
7850.0 7.3655e-05
7870.0 6.753e-05
7890.0 5.6739e-05
7910.0 4.6121e-05
7930.0 4.4039e-05
7950.0 4.0121e-05
7970.0 3.714e-05
7990.0 3.6928e-05
8010.0 2.7649e-06
8030.0 2.7254e-06
8050.0 2.692e-06
8070.0 2.7336e-06
8090.0 2.9462e-06
8110.0 2.8942e-06
8130.0 2.3724e-06
8150.0 2.3141e-06
8170.0 1.981e-06
8190.0 1.8688e-06
8210.0 2.4485e-06
8230.0 2.7299e-06
8250.0 2.4387e-06
8270.0 2.1197e-06
8290.0 2.0816e-06
8310.0 1.6059e-06
8330.0 1.0813e-06
8350.0 7.6839e-07
8370.0 4.7787e-07
8390.0 8.8436e-07
8410.0 1.03e-06
8430.0 1.2695e-06
8450.0 1.4903e-06
8470.0 1.8613e-06
8490.0 1.8429e-06
8510.0 1.8071e-06
8530.0 1.8749e-06
8550.0 2.5537e-06
8570.0 3.0358e-06
8590.0 3.254e-06
8610.0 4.1205e-06
8630.0 4.9578e-06
8650.0 5.1552e-06
8670.0 5.4931e-06
8690.0 5.551e-06
8710.0 5.0225e-06
8730.0 4.6809e-06
8750.0 4.1243e-06
8770.0 3.9097e-06
8790.0 3.847e-06
8810.0 3.6934e-06
8830.0 2.9384e-06
8850.0 2.1397e-06
8870.0 1.6365e-06
8890.0 1.6159e-06
8910.0 1.8632e-06
8930.0 2.1275e-06
8950.0 2.1715e-06
8970.0 2.179e-06
8990.0 1.9337e-06
9010.0 1.9908e-05
9030.0 1.8027e-05
9050.0 1.8116e-05
9070.0 1.826e-05
9090.0 1.8387e-05
9110.0 1.8543e-05
9130.0 1.8664e-05
9150.0 1.8757e-05
9170.0 1.8857e-05
9190.0 1.8964e-05
9210.0 1.9076e-05
9230.0 1.9194e-05
9250.0 1.9315e-05
9270.0 1.944e-05
9290.0 1.9568e-05
9310.0 1.9698e-05
9330.0 1.9829e-05
9350.0 1.9966e-05
9370.0 2.0105e-05
9390.0 2.0244e-05
9410.0 2.0388e-05
9430.0 2.0536e-05
9450.0 2.0684e-05
9470.0 2.0835e-05
9490.0 2.099e-05
9510.0 2.1146e-05
9530.0 2.1304e-05
9550.0 2.1467e-05
9570.0 2.1633e-05
9590.0 2.1799e-05
9610.0 2.1968e-05
9630.0 2.2142e-05
9650.0 2.2317e-05
9670.0 2.2493e-05
9690.0 2.2673e-05
9710.0 2.2856e-05
9730.0 2.3039e-05
9750.0 2.3225e-05
9770.0 2.3417e-05
9790.0 2.3608e-05
9810.0 2.38e-05
9830.0 2.3997e-05
9850.0 2.4196e-05
9870.0 2.4394e-05
9890.0 2.4595e-05
9910.0 2.48e-05
9930.0 2.5005e-05
9950.0 2.5211e-05
9970.0 2.5421e-05
9990.0 2.5634e-05
10010.0 2.2244e-05
10030.0 2.2427e-05
10050.0 2.2615e-05
10070.0 2.2808e-05
10090.0 2.2991e-05
10110.0 2.3177e-05
10130.0 2.3365e-05
10150.0 2.3552e-05
10170.0 2.3742e-05
10190.0 2.3934e-05
10210.0 2.4125e-05
10230.0 2.4314e-05
10250.0 2.4507e-05
10270.0 2.47e-05
10290.0 2.489e-05
10310.0 2.5083e-05
10330.0 2.5278e-05
10350.0 2.5469e-05
10370.0 2.566e-05
10390.0 2.5853e-05
10410.0 2.6045e-05
10430.0 2.6233e-05
10450.0 2.6423e-05
10470.0 2.6614e-05
10490.0 2.6801e-05
10510.0 2.6987e-05
10530.0 2.7176e-05
10550.0 2.7363e-05
10570.0 2.7545e-05
10590.0 2.7728e-05
10610.0 2.7911e-05
10630.0 2.8089e-05
10650.0 2.8266e-05
10670.0 2.8445e-05
10690.0 2.862e-05
10710.0 2.8792e-05
10730.0 2.8964e-05
10750.0 2.9136e-05
10770.0 2.9301e-05
10790.0 2.9465e-05
10810.0 2.9629e-05
10830.0 2.9787e-05
10850.0 2.9938e-05
10870.0 3.0084e-05
10890.0 3.0212e-05
10910.0 3.0311e-05
10930.0 3.0367e-05
10950.0 3.0355e-05
10970.0 3.0252e-05
10990.0 3.0051e-05
11010.0 2.9674e-05
11030.0 2.9202e-05
11050.0 2.8626e-05
11070.0 2.7938e-05
11090.0 2.7112e-05
11110.0 2.6257e-05
11130.0 2.5365e-05
11150.0 2.4405e-05
11170.0 2.3415e-05
11190.0 2.2455e-05
11210.0 2.1463e-05
11230.0 2.0446e-05
11250.0 1.9475e-05
11270.0 1.8542e-05
11290.0 1.7607e-05
11310.0 1.6721e-05
11330.0 1.5942e-05
11350.0 1.5205e-05
11370.0 1.4524e-05
11390.0 1.3935e-05
11410.0 1.342e-05
11430.0 1.2941e-05
11450.0 1.2529e-05
11470.0 1.2172e-05
11490.0 1.184e-05
11510.0 1.152e-05
11530.0 1.1224e-05
11550.0 1.0929e-05
11570.0 1.0614e-05
11590.0 1.0289e-05
11610.0 9.9571e-06
11630.0 9.5963e-06
11650.0 9.21e-06
11670.0 8.8292e-06
11690.0 8.4431e-06
11710.0 8.0449e-06
11730.0 7.6589e-06
11750.0 7.3017e-06
11770.0 6.9515e-06
11790.0 6.6232e-06
11810.0 6.3342e-06
11830.0 6.0758e-06
11850.0 5.8377e-06
11870.0 5.6386e-06
11890.0 5.473e-06
11910.0 5.3276e-06
11930.0 5.2025e-06
11950.0 5.0984e-06
11970.0 5.0054e-06
11990.0 4.9175e-06
12010.0 4.8362e-06
12030.0 4.7578e-06
12050.0 4.6767e-06
12070.0 4.5924e-06
12090.0 4.5112e-06
12110.0 4.4287e-06
12130.0 4.346e-06
12150.0 4.2698e-06
12170.0 4.2033e-06
12190.0 4.1458e-06
12210.0 4.1056e-06
12230.0 4.0862e-06
12250.0 4.0894e-06
12270.0 4.1202e-06
12290.0 4.1785e-06
12310.0 4.2621e-06
12330.0 4.3791e-06
12350.0 4.5251e-06
12370.0 4.6913e-06
12390.0 4.883e-06
12410.0 5.1075e-06
12430.0 5.3358e-06
12450.0 5.5722e-06
12470.0 5.8235e-06
12490.0 6.0759e-06
12510.0 6.3127e-06
12530.0 6.5483e-06
12550.0 6.7756e-06
12570.0 6.9762e-06
12590.0 7.1523e-06
12610.0 7.3093e-06
12630.0 7.4344e-06
12650.0 7.5207e-06
12670.0 7.5775e-06
12690.0 7.6002e-06
12710.0 7.5877e-06
12730.0 7.5437e-06
12750.0 7.4652e-06
12770.0 7.3575e-06
12790.0 7.227e-06
12810.0 7.071e-06
12830.0 6.8906e-06
12850.0 6.7019e-06
12870.0 6.5024e-06
12890.0 6.2866e-06
12910.0 6.0671e-06
12930.0 5.8509e-06
12950.0 5.6252e-06
12970.0 5.3955e-06
12990.0 5.1781e-06
13010.0 4.9635e-06
13030.0 4.7465e-06
13050.0 4.538e-06
13070.0 4.3428e-06
13090.0 4.1468e-06
13110.0 3.9572e-06
13130.0 3.7824e-06
13150.0 3.6169e-06
13170.0 3.4548e-06
13190.0 3.3106e-06
13210.0 3.1837e-06
13230.0 3.0677e-06
13250.0 2.9677e-06
13270.0 2.8889e-06
13290.0 2.8276e-06
13310.0 2.7854e-06
13330.0 2.7662e-06
13350.0 2.7684e-06
13370.0 2.7932e-06
13390.0 2.842e-06
13410.0 2.9079e-06
13430.0 2.9936e-06
13450.0 3.0995e-06
13470.0 3.217e-06
13490.0 3.3414e-06
13510.0 3.4818e-06
13530.0 3.6241e-06
13550.0 3.7603e-06
13570.0 3.8946e-06
13590.0 4.0255e-06
13610.0 4.1419e-06
13630.0 4.2435e-06
13650.0 4.3363e-06
13670.0 4.4133e-06
13690.0 4.4729e-06
13710.0 4.519e-06
13730.0 4.5519e-06
13750.0 4.5684e-06
13770.0 4.5721e-06
13790.0 4.5638e-06
13810.0 4.5436e-06
13830.0 4.5139e-06
13850.0 4.4735e-06
13870.0 4.4227e-06
13890.0 4.3645e-06
13910.0 4.299e-06
13930.0 4.2231e-06
13950.0 4.1402e-06
13970.0 4.0555e-06
13990.0 3.9633e-06
14010.0 3.8652e-06
14030.0 3.7673e-06
14050.0 3.6687e-06
14070.0 3.5646e-06
14090.0 3.4648e-06
14110.0 3.3711e-06
14130.0 3.2802e-06
14150.0 3.1947e-06
14170.0 3.1217e-06
14190.0 3.0585e-06
14210.0 3.005e-06
14230.0 2.9653e-06
14250.0 2.9397e-06
14270.0 2.9273e-06
14290.0 2.9299e-06
14310.0 2.9463e-06
14330.0 2.9756e-06
14350.0 3.0187e-06
14370.0 3.0725e-06
14390.0 3.1336e-06
14410.0 3.2055e-06
14430.0 3.2845e-06
14450.0 3.3651e-06
14470.0 3.4488e-06
14490.0 3.5378e-06
14510.0 3.6229e-06
14530.0 3.7037e-06
14550.0 3.7845e-06
14570.0 3.862e-06
14590.0 3.9326e-06
14610.0 4.0009e-06
14630.0 4.0685e-06
14650.0 4.1314e-06
14670.0 4.1922e-06
14690.0 4.2556e-06
14710.0 4.3222e-06
14730.0 4.3888e-06
14750.0 4.4627e-06
14770.0 4.5464e-06
14790.0 4.6372e-06
14810.0 4.7355e-06
14830.0 4.852e-06
14850.0 4.9787e-06
14870.0 5.1108e-06
14890.0 5.2534e-06
14910.0 5.4048e-06
14930.0 5.5504e-06
14950.0 5.6864e-06
14970.0 5.8152e-06
14990.0 5.9232e-06
15010.0 6.0058e-06
15030.0 6.067e-06
15050.0 6.1075e-06
15070.0 6.1272e-06
15090.0 6.1341e-06
15110.0 6.1321e-06
15130.0 6.1244e-06
15150.0 6.1141e-06
15170.0 6.1018e-06
15190.0 6.0887e-06
15210.0 6.0757e-06
15230.0 6.0628e-06
15250.0 6.0494e-06
15270.0 6.0362e-06
15290.0 6.0237e-06
15310.0 6.0108e-06
15330.0 5.9978e-06
15350.0 5.9853e-06
15370.0 5.9729e-06
15390.0 5.9598e-06
15410.0 5.9472e-06
15430.0 5.935e-06
15450.0 5.9226e-06
15470.0 5.9099e-06
15490.0 5.8978e-06
15510.0 5.8858e-06
15530.0 5.8734e-06
15550.0 5.8612e-06
15570.0 5.8495e-06
15590.0 5.8372e-06
15610.0 5.8248e-06
15630.0 5.8131e-06
15650.0 5.8013e-06
15670.0 5.7892e-06
15690.0 5.7773e-06
15710.0 5.7659e-06
15730.0 5.754e-06
15750.0 5.742e-06
15770.0 5.7306e-06
15790.0 5.719e-06
15810.0 5.7069e-06
15830.0 5.6953e-06
15850.0 5.684e-06
15870.0 5.6723e-06
15890.0 5.6606e-06
15910.0 5.6494e-06
15930.0 5.638e-06
15950.0 5.6261e-06
15970.0 5.6146e-06
15990.0 5.6034e-06
16010.0 5.5918e-06
16030.0 5.58e-06
16050.0 5.569e-06
16070.0 5.5576e-06
16090.0 5.546e-06
16110.0 5.5347e-06
16130.0 5.5236e-06
16150.0 5.5118e-06
16170.0 5.5002e-06
16190.0 5.4891e-06
16210.0 5.4777e-06
16230.0 5.466e-06
16250.0 5.4548e-06
16270.0 5.4437e-06
16290.0 5.4321e-06
16310.0 5.4206e-06
16330.0 5.4094e-06
16350.0 5.398e-06
16370.0 5.386e-06
16390.0 5.3748e-06
16410.0 5.3636e-06
16430.0 5.3519e-06
16450.0 5.3404e-06
16470.0 5.3293e-06
16490.0 5.3177e-06
16510.0 5.3059e-06
16530.0 5.2945e-06
16550.0 5.2831e-06
16570.0 5.2712e-06
16590.0 5.2594e-06
16610.0 5.2483e-06
16630.0 5.2366e-06
16650.0 5.2247e-06
16670.0 5.2133e-06
16690.0 5.2019e-06
16710.0 5.1897e-06
16730.0 5.1779e-06
16750.0 5.1664e-06
16770.0 5.1545e-06
16790.0 5.1424e-06
16810.0 5.1309e-06
16830.0 5.1192e-06
16850.0 5.107e-06
16870.0 5.0951e-06
16890.0 5.0836e-06
16910.0 5.0713e-06
16930.0 5.059e-06
16950.0 5.0472e-06
16970.0 5.0353e-06
16990.0 5.0229e-06
17010.0 5.0109e-06
17030.0 4.9991e-06
17050.0 4.9867e-06
17070.0 4.9743e-06
17090.0 4.9623e-06
17110.0 4.9502e-06
17130.0 4.9374e-06
17150.0 4.9251e-06
17170.0 4.9131e-06
17190.0 4.9005e-06
17210.0 4.888e-06
17230.0 4.8759e-06
17250.0 4.8634e-06
17270.0 4.8505e-06
17290.0 4.838e-06
17310.0 4.8257e-06
17330.0 4.8128e-06
17350.0 4.7999e-06
17370.0 4.7876e-06
17390.0 4.775e-06
17410.0 4.762e-06
17430.0 4.7493e-06
17450.0 4.7369e-06
17470.0 4.7236e-06
17490.0 4.7105e-06
17510.0 4.6979e-06
17530.0 4.685e-06
17550.0 4.6717e-06
17570.0 4.6589e-06
17590.0 4.6462e-06
17610.0 4.6329e-06
17630.0 4.6197e-06
17650.0 4.6069e-06
17670.0 4.5937e-06
17690.0 4.58e-06
17710.0 4.5671e-06
17730.0 4.554e-06
17750.0 4.5406e-06
17770.0 4.5272e-06
17790.0 4.5144e-06
17810.0 4.5008e-06
17830.0 4.4871e-06
17850.0 4.4739e-06
17870.0 4.4607e-06
17890.0 4.4468e-06
17910.0 4.4332e-06
17930.0 4.4201e-06
17950.0 4.4065e-06
17970.0 4.3928e-06
17990.0 4.3795e-06
18010.0 4.3661e-06
18030.0 4.3519e-06
18050.0 4.3383e-06
18070.0 4.3249e-06
18090.0 4.3111e-06
18110.0 4.297e-06
18130.0 4.2836e-06
18150.0 4.27e-06
18170.0 4.256e-06
18190.0 4.2422e-06
18210.0 4.2287e-06
18230.0 4.2146e-06
18250.0 4.2003e-06
18270.0 4.1868e-06
18290.0 4.173e-06
18310.0 4.1588e-06
18330.0 4.1449e-06
18350.0 4.1314e-06
18370.0 4.1171e-06
18390.0 4.103e-06
18410.0 4.0892e-06
18430.0 4.0753e-06
18450.0 4.0607e-06
18470.0 4.0468e-06
18490.0 4.0331e-06
18510.0 4.0188e-06
18530.0 4.0046e-06
18550.0 3.9909e-06
18570.0 3.9768e-06
18590.0 3.9622e-06
18610.0 3.9482e-06
18630.0 3.9343e-06
18650.0 3.9199e-06
18670.0 3.9055e-06
18690.0 3.8917e-06
18710.0 3.8776e-06
18730.0 3.8631e-06
18750.0 3.8491e-06
18770.0 3.8352e-06
18790.0 3.8205e-06
18810.0 3.8061e-06
18830.0 3.7922e-06
18850.0 3.7779e-06
18870.0 3.7634e-06
18890.0 3.7494e-06
18910.0 3.7354e-06
18930.0 3.7209e-06
18950.0 3.7065e-06
18970.0 3.6926e-06
18990.0 3.6782e-06
19010.0 3.6634e-06
19030.0 3.6494e-06
19050.0 3.6354e-06
19070.0 3.6209e-06
19090.0 3.6065e-06
19110.0 3.5927e-06
19130.0 3.5782e-06
19150.0 3.5636e-06
19170.0 3.5496e-06
19190.0 3.5354e-06
19210.0 3.5208e-06
19230.0 3.5064e-06
19250.0 3.4925e-06
19270.0 3.4782e-06
19290.0 3.4637e-06
19310.0 3.4497e-06
19330.0 3.4356e-06
19350.0 3.4208e-06
19370.0 3.4066e-06
19390.0 3.3926e-06
19410.0 3.3782e-06
19430.0 3.3636e-06
19450.0 3.3497e-06
19470.0 3.3356e-06
19490.0 3.3211e-06
19510.0 3.3069e-06
19530.0 3.293e-06
19550.0 3.2784e-06
19570.0 3.2639e-06
19590.0 3.25e-06
19610.0 3.2358e-06
19630.0 3.2214e-06
19650.0 3.2073e-06
19670.0 3.1935e-06
19690.0 3.179e-06
19710.0 3.1646e-06
19730.0 3.1507e-06
19750.0 3.1366e-06
19770.0 3.1219e-06
19790.0 3.1079e-06
19810.0 3.094e-06
19830.0 3.0796e-06
19850.0 3.0652e-06
19870.0 3.051e-06
19890.0 3.0358e-06
19910.0 3.019e-06
19930.0 3.0011e-06
19950.0 2.9806e-06
19970.0 2.9554e-06
19990.0 2.925e-06
20010.0 2.6024e-06
20030.0 2.5647e-06
20050.0 2.5206e-06
20070.0 2.4729e-06
20090.0 2.4215e-06
20110.0 2.3634e-06
20130.0 2.3045e-06
20150.0 2.2462e-06
20170.0 2.1858e-06
20190.0 2.1245e-06
20210.0 2.0665e-06
20230.0 2.01e-06
20250.0 1.9534e-06
20270.0 1.9009e-06
20290.0 1.8529e-06
20310.0 1.8074e-06
20330.0 1.7648e-06
20350.0 1.7294e-06
20370.0 1.698e-06
20390.0 1.6705e-06
20410.0 1.6483e-06
20430.0 1.6311e-06
20450.0 1.6175e-06
20470.0 1.6085e-06
20490.0 1.6036e-06
20510.0 1.6022e-06
20530.0 1.6041e-06
20550.0 1.6091e-06
20570.0 1.6163e-06
20590.0 1.626e-06
20610.0 1.6379e-06
20630.0 1.6509e-06
20650.0 1.6654e-06
20670.0 1.6821e-06
20690.0 1.699e-06
20710.0 1.7166e-06
20730.0 1.7355e-06
20750.0 1.7552e-06
20770.0 1.7747e-06
20790.0 1.7951e-06
20810.0 1.8166e-06
20830.0 1.8381e-06
20850.0 1.8597e-06
20870.0 1.8828e-06
20890.0 1.9063e-06
20910.0 1.929e-06
20930.0 1.9526e-06
20950.0 1.977e-06
20970.0 2.0008e-06
20990.0 2.0243e-06
21010.0 2.049e-06
21030.0 2.0731e-06
21050.0 2.0962e-06
21070.0 2.1192e-06
21090.0 2.1422e-06
21110.0 2.1633e-06
21130.0 2.1831e-06
21150.0 2.2022e-06
21170.0 2.2196e-06
21190.0 2.2345e-06
21210.0 2.2479e-06
21230.0 2.2591e-06
21250.0 2.267e-06
21270.0 2.2721e-06
21290.0 2.274e-06
21310.0 2.2721e-06
21330.0 2.2668e-06
21350.0 2.2574e-06
21370.0 2.2435e-06
21390.0 2.226e-06
21410.0 2.2045e-06
21430.0 2.1772e-06
21450.0 2.1466e-06
21470.0 2.1133e-06
21490.0 2.0757e-06
21510.0 2.0343e-06
21530.0 1.9924e-06
21550.0 1.9484e-06
21570.0 1.9015e-06
21590.0 1.8553e-06
21610.0 1.8108e-06
21630.0 1.7661e-06
21650.0 1.7225e-06
21670.0 1.6848e-06
21690.0 1.6499e-06
21710.0 1.6185e-06
21730.0 1.5928e-06
21750.0 1.573e-06
21770.0 1.5579e-06
21790.0 1.5492e-06
21810.0 1.5468e-06
21830.0 1.5502e-06
21850.0 1.5599e-06
21870.0 1.575e-06
21890.0 1.5945e-06
21910.0 1.6196e-06
21930.0 1.6489e-06
21950.0 1.6807e-06
21970.0 1.716e-06
21990.0 1.7555e-06
22010.0 1.7951e-06
22030.0 1.8352e-06
22050.0 1.8774e-06
22070.0 1.9198e-06
22090.0 1.9599e-06
22110.0 2.0004e-06
22130.0 2.0408e-06
22150.0 2.0786e-06
22170.0 2.1141e-06
22190.0 2.1494e-06
22210.0 2.1822e-06
22230.0 2.2111e-06
22250.0 2.2383e-06
22270.0 2.2633e-06
22290.0 2.2847e-06
22310.0 2.3031e-06
22330.0 2.3192e-06
22350.0 2.3317e-06
22370.0 2.3406e-06
22390.0 2.3461e-06
22410.0 2.3478e-06
22430.0 2.3456e-06
22450.0 2.3395e-06
22470.0 2.3291e-06
22490.0 2.3144e-06
22510.0 2.2962e-06
22530.0 2.2728e-06
22550.0 2.2443e-06
22570.0 2.2128e-06
22590.0 2.1772e-06
22610.0 2.1362e-06
22630.0 2.0919e-06
