#lamb flux
1010.0 8.4323e-06
1030.0 8.9477e-06
1050.0 9.5405e-06
1070.0 1.0208e-05
1090.0 1.0966e-05
1110.0 1.1744e-05
1130.0 1.2527e-05
1150.0 1.3347e-05
1170.0 1.4193e-05
1190.0 1.4996e-05
1210.0 1.581e-05
1230.0 1.6651e-05
1250.0 1.7475e-05
1270.0 1.8276e-05
1290.0 1.9122e-05
1310.0 1.9968e-05
1330.0 2.078e-05
1350.0 2.1601e-05
1370.0 2.2449e-05
1390.0 2.3276e-05
1410.0 2.4079e-05
1430.0 2.4919e-05
1450.0 2.576e-05
1470.0 2.6572e-05
1490.0 2.7394e-05
1510.0 2.8262e-05
1530.0 2.9086e-05
1550.0 2.9899e-05
1570.0 3.074e-05
1590.0 3.1583e-05
1610.0 3.2389e-05
1630.0 3.322e-05
1650.0 3.4074e-05
1670.0 3.49e-05
1690.0 3.5717e-05
1710.0 3.6566e-05
1730.0 3.742e-05
1750.0 3.8224e-05
1770.0 3.9053e-05
1790.0 3.99e-05
1810.0 4.0721e-05
1830.0 4.1529e-05
1850.0 4.2387e-05
1870.0 4.3225e-05
1890.0 4.4037e-05
1910.0 4.4866e-05
1930.0 4.5718e-05
1950.0 4.6534e-05
1970.0 4.7342e-05
1990.0 4.8184e-05
2010.0 4.9015e-05
2030.0 4.982e-05
2050.0 5.0652e-05
2070.0 5.151e-05
2090.0 5.2323e-05
2110.0 5.3139e-05
2130.0 5.3984e-05
2150.0 5.4819e-05
2170.0 5.5624e-05
2190.0 5.6464e-05
2210.0 5.7315e-05
2230.0 5.814e-05
2250.0 5.8969e-05
2270.0 5.984e-05
2290.0 6.0692e-05
2310.0 6.1519e-05
2330.0 6.2378e-05
2350.0 6.3252e-05
2370.0 6.4101e-05
2390.0 6.4965e-05
2410.0 6.5873e-05
2430.0 6.6756e-05
2450.0 6.7608e-05
2470.0 6.8446e-05
2490.0 6.9227e-05
2510.0 6.9898e-05
2530.0 7.0558e-05
2550.0 7.1381e-05
2570.0 7.2638e-05
2590.0 7.4705e-05
2610.0 7.8373e-05
2630.0 8.4108e-05
2650.0 9.1851e-05
2670.0 0.00010188
2690.0 0.00011409
2710.0 0.00012709
2730.0 0.00014005
2750.0 0.00015323
2770.0 0.00016551
2790.0 0.00017647
2810.0 0.00018679
2830.0 0.00019706
2850.0 0.00020653
2870.0 0.00021589
2890.0 0.00022567
2910.0 0.00023556
2930.0 0.00024516
2950.0 0.0002552
2970.0 0.00026553
2990.0 0.00027558
3010.0 0.00059159
3030.0 0.00061322
3050.0 0.00063506
3070.0 0.00065597
3090.0 0.00067791
3110.0 0.00070073
3130.0 0.00072326
3150.0 0.0007456
3170.0 0.00076844
3190.0 0.0007882
3210.0 0.00080351
3230.0 0.00081554
3250.0 0.00071873
3270.0 0.00062259
3290.0 0.00047549
3310.0 0.00053282
3330.0 0.00057384
3350.0 0.00061288
3370.0 0.00065159
3390.0 0.00069034
3410.0 0.00072911
3430.0 0.0007678
3450.0 0.00080658
3470.0 0.00084522
3490.0 0.00087793
3510.0 0.00088894
3530.0 0.00093019
3550.0 0.0011365
3570.0 0.0014407
3590.0 0.0016302
3610.0 0.0018556
3630.0 0.0017285
3650.0 0.0015811
3670.0 0.0015238
3690.0 0.0018113
3710.0 0.0022985
3730.0 0.0024709
3750.0 0.0025651
3770.0 0.0025905
3790.0 0.0025475
3810.0 0.0023123
3830.0 0.0017907
3850.0 0.0014302
3870.0 0.0013931
3890.0 0.0019013
3910.0 0.0025852
3930.0 0.0030311
3950.0 0.0031983
3970.0 0.0031819
3990.0 0.003631
4010.0 0.004059
4030.0 0.0037968
4050.0 0.0033214
4070.0 0.0028099
4090.0 0.0027932
4110.0 0.0031645
4130.0 0.0032117
4150.0 0.0032376
4170.0 0.0030505
4190.0 0.0029086
4210.0 0.0029445
4230.0 0.0033843
4250.0 0.0034174
4270.0 0.0033949
4290.0 0.0033627
4310.0 0.0033655
4330.0 0.0037185
4350.0 0.0042825
4370.0 0.0043519
4390.0 0.0037661
4410.0 0.003111
4430.0 0.0026672
4450.0 0.0022949
4470.0 0.0022235
4490.0 0.0026583
4510.0 0.0029824
4530.0 0.0032696
4550.0 0.0035144
4570.0 0.0041519
4590.0 0.0059203
4610.0 0.0079307
4630.0 0.0082146
4650.0 0.0077982
4670.0 0.0082878
4690.0 0.0090917
4710.0 0.008039
4730.0 0.0059196
4750.0 0.0045049
4770.0 0.0041012
4790.0 0.0041168
4810.0 0.0038593
4830.0 0.0042106
4850.0 0.0053457
4870.0 0.0066397
4890.0 0.0059343
4910.0 0.0052162
4930.0 0.005787
4950.0 0.007603
4970.0 0.0098644
4990.0 0.010167
5010.0 0.0087591
5030.0 0.0065723
5050.0 0.0047125
5070.0 0.0039627
5090.0 0.0037587
5110.0 0.003814
5130.0 0.0039682
5150.0 0.0039157
5170.0 0.0039907
5190.0 0.003864
5210.0 0.0039919
5230.0 0.0042695
5250.0 0.0047052
5270.0 0.0057971
5290.0 0.0066166
5310.0 0.0066489
5330.0 0.0069214
5350.0 0.0078091
5370.0 0.008303
5390.0 0.0077014
5410.0 0.0065931
5430.0 0.0062697
5450.0 0.007236
5470.0 0.0093343
5490.0 0.011585
5510.0 0.012739
5530.0 0.013004
5550.0 0.012394
5570.0 0.01154
5590.0 0.01115
5610.0 0.011281
5630.0 0.011541
5650.0 0.011557
5670.0 0.011379
5690.0 0.011056
5710.0 0.0099174
5730.0 0.0082919
5750.0 0.0069545
5770.0 0.0069911
5790.0 0.0076767
5810.0 0.0082522
5830.0 0.0085177
5850.0 0.0085042
5870.0 0.0078553
5890.0 0.0068712
5910.0 0.0067188
5930.0 0.007282
5950.0 0.0075178
5970.0 0.0068847
5990.0 0.0059232
6010.0 0.004884
6030.0 0.0041016
6050.0 0.0040391
6070.0 0.0045912
6090.0 0.0048338
6110.0 0.00442
6130.0 0.0040909
6150.0 0.0043459
6170.0 0.0052033
6190.0 0.006208
6210.0 0.0067504
6230.0 0.0065169
6250.0 0.0059732
6270.0 0.005169
6290.0 0.0042852
6310.0 0.0035468
6330.0 0.0032038
6350.0 0.0033368
6370.0 0.0036175
6390.0 0.0039154
6410.0 0.004455
6430.0 0.0054851
6450.0 0.0069079
6470.0 0.0078635
6490.0 0.0078835
6510.0 0.0076972
6530.0 0.0078431
6550.0 0.0080182
6570.0 0.0080889
6590.0 0.0080894
6610.0 0.0078696
6630.0 0.0078807
6650.0 0.0079073
6670.0 0.0076029
6690.0 0.0068177
6710.0 0.0057632
6730.0 0.0055182
6750.0 0.0059303
6770.0 0.0064483
6790.0 0.0066473
6810.0 0.0065724
6830.0 0.0064825
6850.0 0.0063413
6870.0 0.0059792
6890.0 0.0056341
6910.0 0.0053846
6930.0 0.00519
6950.0 0.0055091
6970.0 0.0059961
6990.0 0.0063242
7010.0 0.0063981
7030.0 0.0060467
7050.0 0.0052493
7070.0 0.0042557
7090.0 0.0036157
7110.0 0.0034877
7130.0 0.0036788
7150.0 0.0037243
7170.0 0.0034257
7190.0 0.0033586
7210.0 0.0037002
7230.0 0.0042493
7250.0 0.0048568
7270.0 0.0051145
7290.0 0.0048156
7310.0 0.0042729
7330.0 0.0039104
7350.0 0.0038276
7370.0 0.0039278
7390.0 0.0041048
7410.0 0.0043982
7430.0 0.0049993
7450.0 0.0058118
7470.0 0.0066355
7490.0 0.0070192
7510.0 0.0068027
7530.0 0.0058876
7550.0 0.0047965
7570.0 0.0039889
7590.0 0.0035157
7610.0 0.0036169
7630.0 0.0041786
7650.0 0.0048046
7670.0 0.0054356
7690.0 0.0059714
7710.0 0.0063599
7730.0 0.0066862
7750.0 0.0069921
7770.0 0.0072625
7790.0 0.007289
7810.0 0.0073655
7830.0 0.0075962
7850.0 0.0076081
7870.0 0.0074045
7890.0 0.0068759
7910.0 0.0064582
7930.0 0.0061553
7950.0 0.0061491
7970.0 0.006108
7990.0 0.006167
8010.0 0.0061443
8030.0 0.0061682
8050.0 0.0063322
8070.0 0.0062401
8090.0 0.0062408
8110.0 0.0059999
8130.0 0.0059643
8150.0 0.005801
8170.0 0.0056393
8190.0 0.0055628
8210.0 0.0056043
8230.0 0.0052612
8250.0 0.0049337
8270.0 0.0043114
8290.0 0.0034785
8310.0 0.0026992
8330.0 0.0020744
8350.0 0.0018316
8370.0 0.0020629
8390.0 0.0023854
8410.0 0.0026363
8430.0 0.0029285
8450.0 0.0030882
8470.0 0.0032359
8490.0 0.0035999
8510.0 0.0040142
8530.0 0.0046671
8550.0 0.0054764
8570.0 0.0062068
8590.0 0.0067941
8610.0 0.0072947
8630.0 0.007654
8650.0 0.0077147
8670.0 0.0077364
8690.0 0.0079967
8710.0 0.0081508
8730.0 0.008318
8750.0 0.0081524
8770.0 0.0081818
8790.0 0.0080709
8810.0 0.0075182
8830.0 0.0073189
8850.0 0.0069064
8870.0 0.0065991
8890.0 0.0063052
8910.0 0.0064672
8930.0 0.0060869
8950.0 0.0058634
8970.0 0.0057796
8990.0 0.0056471
9010.0 0.0055468
9030.0 0.0054006
9050.0 0.0053679
9070.0 0.005353
9090.0 0.0053386
9110.0 0.0053249
9130.0 0.0053096
9150.0 0.0052939
9170.0 0.0052713
9190.0 0.0052408
9210.0 0.0052668
9230.0 0.0052397
9250.0 0.0052178
9270.0 0.0051973
9290.0 0.0051777
9310.0 0.0051585
9330.0 0.0051395
9350.0 0.0051207
9370.0 0.0051017
9390.0 0.0050825
9410.0 0.0050631
9430.0 0.0050434
9450.0 0.0050215
9470.0 0.0050002
9490.0 0.004982
9510.0 0.0049627
9530.0 0.004943
9550.0 0.0049229
9570.0 0.0049025
9590.0 0.004882
9610.0 0.0048613
9630.0 0.0048405
9650.0 0.0048196
9670.0 0.0047987
9690.0 0.0047777
9710.0 0.0047567
9730.0 0.0047356
9750.0 0.0047145
9770.0 0.0046934
9790.0 0.0046722
9810.0 0.004651
9830.0 0.0046299
9850.0 0.0046088
9870.0 0.0045877
9890.0 0.0045665
9910.0 0.0045454
9930.0 0.0045238
9950.0 0.0044742
9970.0 0.0044616
9990.0 0.0044474
10010.0 0.0044324
10030.0 0.0044151
10050.0 0.0043956
10070.0 0.0043746
10090.0 0.0043557
10110.0 0.004335
10130.0 0.0043153
10150.0 0.0042953
10170.0 0.0042744
10190.0 0.0042526
10210.0 0.0042322
10230.0 0.0042122
10250.0 0.0041912
10270.0 0.0041704
10290.0 0.0041507
10310.0 0.0041301
10330.0 0.0041085
10350.0 0.0040884
10370.0 0.0040684
10390.0 0.0040474
10410.0 0.0040266
10430.0 0.0040071
10450.0 0.0039865
10470.0 0.0039655
10490.0 0.0039454
10510.0 0.0039255
10530.0 0.0039038
10550.0 0.0038829
10570.0 0.0038631
10590.0 0.0038424
10610.0 0.0038211
10630.0 0.003801
10650.0 0.0037808
10670.0 0.0037591
10690.0 0.0037381
10710.0 0.0037178
10730.0 0.0036965
10750.0 0.0036742
10770.0 0.0036538
10790.0 0.0036329
10810.0 0.003611
10830.0 0.0035895
10850.0 0.0035688
10870.0 0.0035459
10890.0 0.0035224
10910.0 0.0034992
10930.0 0.003474
10950.0 0.0034451
10970.0 0.0034138
10990.0 0.0033803
11010.0 0.0030507
11030.0 0.0030103
11050.0 0.0029711
11070.0 0.0029311
11090.0 0.002888
11110.0 0.0028481
11130.0 0.0028094
11150.0 0.0027693
11170.0 0.0027294
11190.0 0.0026923
11210.0 0.0026541
11230.0 0.0026147
11250.0 0.0025773
11270.0 0.0025409
11290.0 0.0025031
11310.0 0.0024659
11330.0 0.0024326
11350.0 0.0023991
11370.0 0.0023659
11390.0 0.0023353
11410.0 0.0023066
11430.0 0.0022765
11450.0 0.002248
11470.0 0.0022211
11490.0 0.0021935
11510.0 0.0021643
11530.0 0.0021361
11550.0 0.0021073
11570.0 0.0020755
11590.0 0.0020425
11610.0 0.0020094
11630.0 0.001973
11650.0 0.0019336
11670.0 0.001895
11690.0 0.0018553
11710.0 0.0018131
11730.0 0.0017709
11750.0 0.0017308
11770.0 0.0016893
11790.0 0.0016479
11810.0 0.0016094
11830.0 0.0015725
11850.0 0.0015351
11870.0 0.001501
11890.0 0.0014703
11910.0 0.0014403
11930.0 0.0014119
11950.0 0.0013868
11970.0 0.001363
11990.0 0.0013396
12010.0 0.0013185
12030.0 0.0012993
12050.0 0.0012806
12070.0 0.0012625
12090.0 0.001247
12110.0 0.0012324
12130.0 0.0012183
12150.0 0.001206
12170.0 0.0011955
12190.0 0.0011857
12210.0 0.0011779
12230.0 0.0011727
12250.0 0.0011694
12270.0 0.0011686
12290.0 0.0011707
12310.0 0.0011758
12330.0 0.0011839
12350.0 0.0011954
12370.0 0.0012097
12390.0 0.0012272
12410.0 0.0012484
12430.0 0.0012714
12450.0 0.0012963
12470.0 0.0013235
12490.0 0.0013518
12510.0 0.0013798
12530.0 0.0014084
12550.0 0.001437
12570.0 0.0014638
12590.0 0.001489
12610.0 0.001513
12630.0 0.0015345
12650.0 0.0015528
12670.0 0.0015688
12690.0 0.0015821
12710.0 0.0015924
12730.0 0.0015999
12750.0 0.0016046
12770.0 0.0016065
12790.0 0.001606
12810.0 0.0016031
12830.0 0.0015976
12850.0 0.0015907
12870.0 0.0015821
12890.0 0.0015715
12910.0 0.0015598
12930.0 0.0015474
12950.0 0.0015334
12970.0 0.0015181
12990.0 0.001503
13010.0 0.0014871
13030.0 0.0014699
13050.0 0.0014524
13070.0 0.0014351
13090.0 0.0014164
13110.0 0.0013971
13130.0 0.0013783
13150.0 0.0013593
13170.0 0.0013396
13190.0 0.0013211
13210.0 0.0013042
13230.0 0.001288
13250.0 0.0012735
13270.0 0.0012618
13290.0 0.0012522
13310.0 0.001245
13330.0 0.001241
13350.0 0.0012398
13370.0 0.0012412
13390.0 0.0012449
13410.0 0.0012503
13430.0 0.0012567
13450.0 0.0012637
13470.0 0.0012701
13490.0 0.0012753
13510.0 0.0012789
13530.0 0.0012798
13550.0 0.0012778
13570.0 0.0012728
13590.0 0.0012642
13610.0 0.0012529
13630.0 0.0012393
13650.0 0.0012226
13670.0 0.0012043
13690.0 0.0011853
13710.0 0.0011652
13730.0 0.001144
13750.0 0.0011243
13770.0 0.0011054
13790.0 0.0010869
13810.0 0.0010697
13830.0 0.0010545
13850.0 0.0010401
13870.0 0.0010268
13890.0 0.0010152
13910.0 0.0010049
13930.0 0.00099524
13950.0 0.00098671
13970.0 0.00097942
13990.0 0.00097268
14010.0 0.00096654
14030.0 0.00096116
14050.0 0.00095631
14070.0 0.0009517
14090.0 0.00094756
14110.0 0.00094379
14130.0 0.00094017
14150.0 0.00093665
14170.0 0.00093335
14190.0 0.00093012
14210.0 0.00092688
14230.0 0.00092375
14250.0 0.00092078
14270.0 0.00091789
14290.0 0.00091519
14310.0 0.00091282
14330.0 0.00091073
14350.0 0.00090896
14370.0 0.00090753
14390.0 0.00090639
14410.0 0.00090551
14430.0 0.00090484
14450.0 0.00090421
14470.0 0.00090359
14490.0 0.00090293
14510.0 0.00090207
14530.0 0.00090099
14550.0 0.00089975
14570.0 0.00089837
14590.0 0.00089689
14610.0 0.00089547
14630.0 0.00089429
14650.0 0.00089345
14670.0 0.00089311
14690.0 0.00089358
14710.0 0.00089506
14730.0 0.00089735
14750.0 0.00090091
14770.0 0.000906
14790.0 0.00091234
14810.0 0.00091988
14830.0 0.00092971
14850.0 0.00094098
14870.0 0.00095314
14890.0 0.00096674
14910.0 0.00098162
14930.0 0.00099606
14950.0 0.0010096
14970.0 0.0010224
14990.0 0.0010329
15010.0 0.0010403
15030.0 0.0010452
15050.0 0.0010476
15070.0 0.0010474
15090.0 0.0010455
15110.0 0.0010426
15130.0 0.0010389
15150.0 0.0010348
15170.0 0.0010305
15190.0 0.0010261
15210.0 0.0010217
15230.0 0.0010172
15250.0 0.0010127
15270.0 0.0010082
15290.0 0.0010037
15310.0 0.00099925
15330.0 0.00099474
15350.0 0.00099025
15370.0 0.00098577
15390.0 0.00098124
15410.0 0.00097674
15430.0 0.00097226
15450.0 0.00096775
15470.0 0.00096323
15490.0 0.00095876
15510.0 0.00095429
15530.0 0.00094979
15550.0 0.00094531
15570.0 0.00094087
15590.0 0.00093639
15610.0 0.0009319
15630.0 0.00092747
15650.0 0.00092304
15670.0 0.00091859
15690.0 0.00091417
15710.0 0.00090978
15730.0 0.00090537
15750.0 0.00090097
15770.0 0.0008966
15790.0 0.00089224
15810.0 0.00088786
15830.0 0.00088352
15850.0 0.00087921
15870.0 0.00087489
15890.0 0.00087058
15910.0 0.00086632
15930.0 0.00086206
15950.0 0.00085778
15970.0 0.00085354
15990.0 0.00084934
16010.0 0.00084512
16030.0 0.00084092
16050.0 0.00083677
16070.0 0.00083263
16090.0 0.00082848
16110.0 0.00082437
16130.0 0.0008203
16150.0 0.00081619
16170.0 0.00081212
16190.0 0.0008081
16210.0 0.00080408
16230.0 0.00080006
16250.0 0.00079609
16270.0 0.00079216
16290.0 0.0007882
16310.0 0.00078428
16330.0 0.0007804
16350.0 0.00077653
16370.0 0.00077264
16390.0 0.00076882
16410.0 0.00076503
16430.0 0.00076123
16450.0 0.00075745
16470.0 0.00075374
16490.0 0.00075001
16510.0 0.00074629
16530.0 0.00074262
16550.0 0.00073898
16570.0 0.00073532
16590.0 0.0007317
16610.0 0.00072814
16630.0 0.00072457
16650.0 0.00072102
16670.0 0.00071752
16690.0 0.00071403
16710.0 0.00071053
16730.0 0.00070708
16750.0 0.00070367
16770.0 0.00070026
16790.0 0.00069687
16810.0 0.00069353
16830.0 0.0006902
16850.0 0.00068688
16870.0 0.00068359
16890.0 0.00068034
16910.0 0.00067709
16930.0 0.00067385
16950.0 0.00067067
16970.0 0.00066751
16990.0 0.00066434
17010.0 0.00066122
17030.0 0.00065814
17050.0 0.00065504
17070.0 0.00065198
17090.0 0.00064895
17110.0 0.00064595
17130.0 0.00064293
17150.0 0.00063997
17170.0 0.00063704
17190.0 0.00063411
17210.0 0.00063121
17230.0 0.00062835
17250.0 0.00062549
17270.0 0.00062264
17290.0 0.00061983
17310.0 0.00061706
17330.0 0.00061428
17350.0 0.00061152
17370.0 0.00060882
17390.0 0.00060612
17410.0 0.00060343
17430.0 0.00060078
17450.0 0.00059816
17470.0 0.00059552
17490.0 0.00059291
17510.0 0.00059036
17530.0 0.0005878
17550.0 0.00058526
17570.0 0.00058275
17590.0 0.00058028
17610.0 0.00057779
17630.0 0.00057534
17650.0 0.00057293
17670.0 0.00057051
17690.0 0.0005681
17710.0 0.00056574
17730.0 0.0005634
17750.0 0.00056106
17770.0 0.00055875
17790.0 0.00055648
17810.0 0.0005542
17830.0 0.00055193
17850.0 0.0005497
17870.0 0.0005475
17890.0 0.00054528
17910.0 0.0005431
17930.0 0.00054096
17950.0 0.00053881
17970.0 0.00053668
17990.0 0.00053459
18010.0 0.00053251
18030.0 0.00053042
18050.0 0.00052837
18070.0 0.00052635
18090.0 0.00052433
18110.0 0.00052231
18130.0 0.00052035
18150.0 0.00051839
18170.0 0.00051643
18190.0 0.0005145
18210.0 0.0005126
18230.0 0.00051069
18250.0 0.00050879
18270.0 0.00050694
18290.0 0.0005051
18310.0 0.00050325
18330.0 0.00050144
18350.0 0.00049965
18370.0 0.00049786
18390.0 0.00049608
18410.0 0.00049434
18430.0 0.0004926
18450.0 0.00049085
18470.0 0.00048915
18490.0 0.00048747
18510.0 0.00048578
18530.0 0.00048411
18550.0 0.00048248
18570.0 0.00048084
18590.0 0.0004792
18610.0 0.0004776
18630.0 0.00047601
18650.0 0.00047442
18670.0 0.00047284
18690.0 0.00047131
18710.0 0.00046977
18730.0 0.00046823
18750.0 0.00046673
18770.0 0.00046524
18790.0 0.00046373
18810.0 0.00046225
18830.0 0.0004608
18850.0 0.00045935
18870.0 0.0004579
18890.0 0.00045649
18910.0 0.00045509
18930.0 0.00045368
18950.0 0.00045229
18970.0 0.00045092
18990.0 0.00044956
19010.0 0.00044818
19030.0 0.00044686
19050.0 0.00044554
19070.0 0.00044421
19090.0 0.0004429
19110.0 0.00044162
19130.0 0.00044033
19150.0 0.00043905
19170.0 0.00043779
19190.0 0.00043655
19210.0 0.00043529
19230.0 0.00043406
19250.0 0.00043285
19270.0 0.00043164
19290.0 0.00043043
19310.0 0.00042925
19330.0 0.00042808
19350.0 0.00042689
19370.0 0.00042573
19390.0 0.00042459
19410.0 0.00042345
19430.0 0.00042231
19450.0 0.0004212
19470.0 0.00042009
19490.0 0.00041898
19510.0 0.00041788
19530.0 0.00041681
19550.0 0.00041572
19570.0 0.00041464
19590.0 0.0004136
19610.0 0.00041255
19630.0 0.0004115
19650.0 0.00041047
19670.0 0.00040946
19690.0 0.00040843
19710.0 0.00040742
19730.0 0.00040643
19750.0 0.00040544
19770.0 0.00040443
19790.0 0.00040346
19810.0 0.0004025
19830.0 0.00040152
19850.0 0.00040054
19870.0 0.00039955
19890.0 0.00039847
19910.0 0.00039725
19930.0 0.00039584
19950.0 0.00039411
19970.0 0.00039186
19990.0 0.00038899
20010.0 0.0003856
20030.0 0.00038142
20050.0 0.00037647
20070.0 0.00037109
20090.0 0.00036532
20110.0 0.00035886
20130.0 0.0003524
20150.0 0.00034605
20170.0 0.00033955
20190.0 0.00033302
20210.0 0.00032688
20230.0 0.0003209
20250.0 0.0003149
20270.0 0.00030929
20290.0 0.0003041
20310.0 0.00029909
20330.0 0.00029428
20350.0 0.00029014
20370.0 0.00028632
20390.0 0.00028279
20410.0 0.00027973
20430.0 0.00027714
20450.0 0.00027484
20470.0 0.00027295
20490.0 0.00027152
20510.0 0.00027043
20530.0 0.00026968
20550.0 0.00026927
20570.0 0.00026917
20590.0 0.00026933
20610.0 0.00026973
20630.0 0.00027032
20650.0 0.00027107
20670.0 0.000272
20690.0 0.00027298
20710.0 0.00027398
20730.0 0.00027504
20750.0 0.00027608
20770.0 0.00027701
20790.0 0.00027788
20810.0 0.00027867
20830.0 0.00027929
20850.0 0.00027975
20870.0 0.00028005
20890.0 0.00028016
20910.0 0.00028006
20930.0 0.00027977
20950.0 0.00027927
20970.0 0.00027857
20990.0 0.0002777
21010.0 0.00027661
21030.0 0.00027535
21050.0 0.00027397
21070.0 0.00027244
21090.0 0.00027073
21110.0 0.00026901
21130.0 0.00026724
21150.0 0.00026536
21170.0 0.00026348
21190.0 0.00026167
21210.0 0.00025982
21230.0 0.000258
21250.0 0.00025632
21270.0 0.00025474
21290.0 0.00025323
21310.0 0.00025187
21330.0 0.0002507
21350.0 0.00024964
21370.0 0.00024875
21390.0 0.00024804
21410.0 0.00024751
21430.0 0.00024713
21450.0 0.00024695
21470.0 0.00024694
21490.0 0.00024709
21510.0 0.00024742
21530.0 0.00024788
21550.0 0.00024849
21570.0 0.00024927
21590.0 0.00025017
21610.0 0.00025117
21630.0 0.00025232
21650.0 0.00025362
21670.0 0.00025493
21690.0 0.00025635
21710.0 0.0002579
21730.0 0.00025948
21750.0 0.00026106
21770.0 0.00026279
21790.0 0.00026454
21810.0 0.00026624
21830.0 0.00026797
21850.0 0.00026976
21870.0 0.00027148
21890.0 0.0002731
21910.0 0.00027476
21930.0 0.00027635
21950.0 0.00027781
21970.0 0.0002792
21990.0 0.00028056
22010.0 0.00028174
22030.0 0.00028278
22050.0 0.00028371
22070.0 0.00028448
22090.0 0.00028505
22110.0 0.00028547
22130.0 0.00028571
22150.0 0.00028574
22170.0 0.00028558
22190.0 0.0002852
22210.0 0.00028458
22230.0 0.00028379
22250.0 0.00028277
22270.0 0.0002815
22290.0 0.00028006
22310.0 0.00027845
22330.0 0.00027655
22350.0 0.00027448
22370.0 0.00027229
22390.0 0.0002699
22410.0 0.00026726
22430.0 0.00026461
22450.0 0.00026185
22470.0 0.00025888
22490.0 0.00025586
22510.0 0.00025287
22530.0 0.0002497
22550.0 0.00024643
22570.0 0.00024329
22590.0 0.00024016
22610.0 0.00023694
22630.0 0.00023381
22650.0 0.00023087
22670.0 0.00022788
22690.0 0.00022495
22710.0 0.00022223
22730.0 0.00021961
22750.0 0.00021697
22770.0 0.00021455
22790.0 0.00021232
22810.0 0.00021015
22830.0 0.00020808
22850.0 0.00020622
22870.0 0.00020445
22890.0 0.00020272
22910.0 0.00020115
22930.0 0.00019971
22950.0 0.00019832
22970.0 0.00019698
22990.0 0.00019581
23010.0 0.00019469
23030.0 0.0001936
23050.0 0.0001926
23070.0 0.00019168
23090.0 0.00019075
23110.0 0.00018988
23130.0 0.00018907
23150.0 0.00018828
23170.0 0.00018749
23190.0 0.00018675
23210.0 0.00018605
