#lamb flux
1010.0 8.5409e-07
1030.0 9.4027e-07
1050.0 1.0394e-06
1070.0 1.151e-06
1090.0 1.2777e-06
1110.0 1.4077e-06
1130.0 1.5385e-06
1150.0 1.6756e-06
1170.0 1.817e-06
1190.0 1.951e-06
1210.0 2.0869e-06
1230.0 2.2273e-06
1250.0 2.3648e-06
1270.0 2.4984e-06
1290.0 2.6395e-06
1310.0 2.7806e-06
1330.0 2.9158e-06
1350.0 3.0526e-06
1370.0 3.1938e-06
1390.0 3.3314e-06
1410.0 3.465e-06
1430.0 3.6046e-06
1450.0 3.7441e-06
1470.0 3.879e-06
1490.0 4.0153e-06
1510.0 4.1593e-06
1530.0 4.2956e-06
1550.0 4.4301e-06
1570.0 4.5692e-06
1590.0 4.7083e-06
1610.0 4.8412e-06
1630.0 4.9781e-06
1650.0 5.1185e-06
1670.0 5.2542e-06
1690.0 5.388e-06
1710.0 5.5269e-06
1730.0 5.6663e-06
1750.0 5.7971e-06
1770.0 5.9315e-06
1790.0 6.0683e-06
1810.0 6.2003e-06
1830.0 6.3295e-06
1850.0 6.4664e-06
1870.0 6.599e-06
1890.0 6.7263e-06
1910.0 6.8555e-06
1930.0 6.9871e-06
1950.0 7.1114e-06
1970.0 7.2329e-06
1990.0 7.3582e-06
2010.0 7.4798e-06
2030.0 7.595e-06
2050.0 7.7124e-06
2070.0 7.8312e-06
2090.0 7.94e-06
2110.0 8.0462e-06
2130.0 8.1537e-06
2150.0 8.2559e-06
2170.0 8.3495e-06
2190.0 8.4446e-06
2210.0 8.537e-06
2230.0 8.6207e-06
2250.0 8.7e-06
2270.0 8.7807e-06
2290.0 8.8532e-06
2310.0 8.9165e-06
2330.0 8.9797e-06
2350.0 9.041e-06
2370.0 9.0962e-06
2390.0 9.1553e-06
2410.0 9.2309e-06
2430.0 9.3205e-06
2450.0 9.434e-06
2470.0 9.5932e-06
2490.0 9.8075e-06
2510.0 1.0057e-05
2530.0 1.0374e-05
2550.0 1.0798e-05
2570.0 1.1358e-05
2590.0 1.2118e-05
2610.0 1.3297e-05
2630.0 1.4979e-05
2650.0 1.7134e-05
2670.0 1.985e-05
2690.0 2.3083e-05
2710.0 2.6391e-05
2730.0 2.9504e-05
2750.0 3.2423e-05
2770.0 3.4783e-05
2790.0 3.6468e-05
2810.0 3.7632e-05
2830.0 3.8373e-05
2850.0 3.8677e-05
2870.0 3.8736e-05
2890.0 3.8659e-05
2910.0 3.8485e-05
2930.0 3.8249e-05
2950.0 3.8004e-05
2970.0 3.7761e-05
2990.0 3.7512e-05
3010.0 0.0011746
3030.0 0.0011676
3050.0 0.0011607
3070.0 0.0011531
3090.0 0.0011451
3110.0 0.0011354
3130.0 0.0011226
3150.0 0.0011057
3170.0 0.0010827
3190.0 0.0010539
3210.0 0.0010213
3230.0 0.00098615
3250.0 0.00095058
3270.0 0.00092396
3290.0 0.00090382
3310.0 0.00089908
3330.0 0.00090473
3350.0 0.00092046
3370.0 0.00094617
3390.0 0.0009806
3410.0 0.0010192
3430.0 0.0010635
3450.0 0.0011153
3470.0 0.0011725
3490.0 0.0012341
3510.0 0.0013043
3530.0 0.0013812
3550.0 0.0014639
3570.0 0.0015556
3590.0 0.0016586
3610.0 0.0017739
3630.0 0.0018894
3650.0 0.0020122
3670.0 0.0021233
3690.0 0.0022063
3710.0 0.0022481
3730.0 0.0022234
3750.0 0.0021326
3770.0 0.0021667
3790.0 0.0020965
3810.0 0.0015966
3830.0 0.0015008
3850.0 0.0021701
3870.0 0.0020066
3890.0 0.0015274
3910.0 0.0015958
3930.0 0.0021004
3950.0 0.0024892
3970.0 0.00289
3990.0 0.0020991
4010.0 0.0035301
4030.0 0.0032677
4050.0 0.0032541
4070.0 0.0037933
4090.0 0.0036265
4110.0 0.0033642
4130.0 0.0042255
4150.0 0.0056069
4170.0 0.0044552
4190.0 0.0039066
4210.0 0.0044005
4230.0 0.0055013
4250.0 0.0065093
4270.0 0.0070795
4290.0 0.006363
4310.0 0.0058612
4330.0 0.0058404
4350.0 0.0075154
4370.0 0.0091272
4390.0 0.0072644
4410.0 0.0041345
4430.0 0.0029408
4450.0 0.0027069
4470.0 0.0018124
4490.0 0.0030825
4510.0 0.006242
4530.0 0.0075814
4550.0 0.0072834
4570.0 0.0066098
4590.0 0.0071567
4610.0 0.013917
4630.0 0.019376
4650.0 0.018201
4670.0 0.01604
4690.0 0.016711
4710.0 0.017557
4730.0 0.014155
4750.0 0.0090392
4770.0 0.0063184
4790.0 0.0070781
4810.0 0.007396
4830.0 0.00733
4850.0 0.0080066
4870.0 0.010604
4890.0 0.0123
4910.0 0.0094802
4930.0 0.0091479
4950.0 0.010552
4970.0 0.014186
4990.0 0.019097
5010.0 0.021892
5030.0 0.017311
5050.0 0.010417
5070.0 0.007442
5090.0 0.0057569
5110.0 0.0054069
5130.0 0.0064108
5150.0 0.0061556
5170.0 0.0057949
5190.0 0.0051972
5210.0 0.0056888
5230.0 0.0070903
5250.0 0.0082848
5270.0 0.0076903
5290.0 0.0083674
5310.0 0.011208
5330.0 0.011845
5350.0 0.011664
5370.0 0.013215
5390.0 0.016433
5410.0 0.013961
5430.0 0.010544
5450.0 0.010652
5470.0 0.012537
5490.0 0.015865
5510.0 0.019453
5530.0 0.022508
5550.0 0.020249
5570.0 0.018084
5590.0 0.014848
5610.0 0.015131
5630.0 0.01701
5650.0 0.015843
5670.0 0.014631
5690.0 0.011831
5710.0 0.01214
5730.0 0.011837
5750.0 0.006295
5770.0 0.004582
5790.0 0.0057111
5810.0 0.0061391
5830.0 0.0094934
5850.0 0.012302
5870.0 0.01305
5890.0 0.012308
5910.0 0.011908
5930.0 0.011564
5950.0 0.011992
5970.0 0.014852
5990.0 0.012157
6010.0 0.0093021
6030.0 0.0075419
6050.0 0.0067207
6070.0 0.0080906
6090.0 0.0092022
6110.0 0.0093538
6130.0 0.0084892
6150.0 0.0066961
6170.0 0.0054377
6190.0 0.0067941
6210.0 0.010634
6230.0 0.015426
6250.0 0.016394
6270.0 0.012508
6290.0 0.01068
6310.0 0.0081576
6330.0 0.0059612
6350.0 0.0058665
6370.0 0.0061704
6390.0 0.0074569
6410.0 0.0095661
6430.0 0.011528
6450.0 0.014236
6470.0 0.015137
6490.0 0.018247
6510.0 0.020491
6530.0 0.020678
6550.0 0.019059
6570.0 0.015656
6590.0 0.015139
6610.0 0.012566
6630.0 0.013042
6650.0 0.012567
6670.0 0.011138
6690.0 0.0088336
6710.0 0.008573
6730.0 0.0041211
6750.0 0.0052308
6770.0 0.0079234
6790.0 0.010496
6810.0 0.0076399
6830.0 0.0078087
6850.0 0.0066039
6870.0 0.0062575
6890.0 0.0053435
6910.0 0.0063031
6930.0 0.005913
6950.0 0.0070699
6970.0 0.0072422
6990.0 0.0080195
7010.0 0.0078916
7030.0 0.0088053
7050.0 0.0076098
7070.0 0.0064261
7090.0 0.0067726
7110.0 0.0070256
7130.0 0.0080122
7150.0 0.0091258
7170.0 0.010176
7190.0 0.010674
7210.0 0.0094269
7230.0 0.0095228
7250.0 0.010336
7270.0 0.011287
7290.0 0.013696
7310.0 0.014159
7330.0 0.012973
7350.0 0.011569
7370.0 0.0085745
7390.0 0.0089849
7410.0 0.011129
7430.0 0.012645
7450.0 0.013597
7470.0 0.012633
7490.0 0.01067
7510.0 0.017058
7530.0 0.015277
7550.0 0.014161
7570.0 0.0095304
7590.0 0.0041953
7610.0 0.0029671
7630.0 0.0044789
7650.0 0.0060072
7670.0 0.0095475
7690.0 0.010732
7710.0 0.0096637
7730.0 0.0094817
7750.0 0.01237
7770.0 0.012656
7790.0 0.011654
7810.0 0.009539
7830.0 0.010237
7850.0 0.011143
7870.0 0.010912
7890.0 0.0085845
7910.0 0.0057419
7930.0 0.0058545
7950.0 0.0052644
7970.0 0.0044506
7990.0 0.0040222
8010.0 0.0033041
8030.0 0.0031069
8050.0 0.0033073
8070.0 0.0035795
8090.0 0.0041764
8110.0 0.0039095
8130.0 0.0025697
8150.0 0.0025641
8170.0 0.0016876
8190.0 0.0012576
8210.0 0.0023237
8230.0 0.0027158
8250.0 0.0014362
8270.0 0.0011941
8290.0 0.0016749
8310.0 0.0013698
8330.0 0.00084537
8350.0 0.00067117
8370.0 0.00027209
8390.0 0.00073568
8410.0 0.00087757
8430.0 0.0010927
8450.0 0.0012249
8470.0 0.0018682
8490.0 0.0015712
8510.0 0.0012857
8530.0 0.00080582
8550.0 0.0020867
8570.0 0.0031372
8590.0 0.002408
8610.0 0.0034438
8630.0 0.0037817
8650.0 0.0024105
8670.0 0.003191
8690.0 0.0045301
8710.0 0.003968
8730.0 0.0041917
8750.0 0.0034005
8770.0 0.0030773
8790.0 0.0033515
8810.0 0.0035457
8830.0 0.0021476
8850.0 0.0011518
8870.0 0.00087097
8890.0 0.0016232
8910.0 0.0023869
8930.0 0.0030449
8950.0 0.0034414
8970.0 0.0033493
8990.0 0.0026523
9010.0 0.0019607
9030.0 0.0015839
9050.0 0.0016444
9070.0 0.001703
9090.0 0.0017497
9110.0 0.0018044
9130.0 0.0018442
9150.0 0.0018732
9170.0 0.001904
9190.0 0.0019371
9210.0 0.0019716
9230.0 0.0020083
9250.0 0.0020455
9270.0 0.0020839
9290.0 0.0021234
9310.0 0.0021631
9330.0 0.0022034
9350.0 0.002245
9370.0 0.0022871
9390.0 0.0023294
9410.0 0.0023728
9430.0 0.0024174
9450.0 0.0024619
9470.0 0.0025071
9490.0 0.0025535
9510.0 0.0026004
9530.0 0.0026475
9550.0 0.0026961
9570.0 0.0027455
9590.0 0.002795
9610.0 0.0028453
9630.0 0.0028969
9650.0 0.0029488
9670.0 0.0030009
9690.0 0.0030542
9710.0 0.0031084
9730.0 0.0031626
9750.0 0.0032177
9770.0 0.0032742
9790.0 0.0033307
9810.0 0.0033875
9830.0 0.0034454
9850.0 0.003504
9870.0 0.0035624
9890.0 0.0036218
9910.0 0.0036821
9930.0 0.0037425
9950.0 0.0038031
9970.0 0.0038649
9990.0 0.0039272
10010.0 0.0035821
10030.0 0.0036376
10050.0 0.0036935
10070.0 0.0037489
10090.0 0.003805
10110.0 0.0038622
10130.0 0.0039192
10150.0 0.0039759
10170.0 0.004033
10190.0 0.0040907
10210.0 0.0041477
10230.0 0.0042046
10250.0 0.0042621
10270.0 0.0043194
10290.0 0.0043761
10310.0 0.0044331
10330.0 0.0044905
10350.0 0.004547
10370.0 0.0046032
10390.0 0.0046596
10410.0 0.0047157
10430.0 0.0047707
10450.0 0.0048259
10470.0 0.0048809
10490.0 0.004935
10510.0 0.0049885
10530.0 0.0050424
10550.0 0.0050952
10570.0 0.0051469
10590.0 0.0051985
10610.0 0.0052496
10630.0 0.0052993
10650.0 0.0053484
10670.0 0.0053974
10690.0 0.0054452
10710.0 0.0054918
10730.0 0.0055379
10750.0 0.0055836
10770.0 0.0056274
10790.0 0.0056704
10810.0 0.0057128
10830.0 0.0057536
10850.0 0.0057924
10870.0 0.0058296
10890.0 0.0058628
10910.0 0.0058897
10930.0 0.0059077
10950.0 0.0059117
10970.0 0.0058975
10990.0 0.0058634
11010.0 0.0059866
11030.0 0.0058966
11050.0 0.0057843
11070.0 0.0056479
11090.0 0.0054825
11110.0 0.0053107
11130.0 0.0051311
11150.0 0.004938
11170.0 0.0047395
11190.0 0.0045478
11210.0 0.0043511
11230.0 0.0041509
11250.0 0.0039611
11270.0 0.00378
11290.0 0.0036001
11310.0 0.0034306
11330.0 0.0032818
11350.0 0.0031414
11370.0 0.0030115
11390.0 0.0028983
11410.0 0.0027981
11430.0 0.0027037
11450.0 0.0026204
11470.0 0.0025462
11490.0 0.0024754
11510.0 0.0024056
11530.0 0.0023393
11550.0 0.0022727
11570.0 0.0022017
11590.0 0.0021286
11610.0 0.0020546
11630.0 0.0019752
11650.0 0.0018914
11670.0 0.0018095
11690.0 0.0017272
11710.0 0.0016432
11730.0 0.0015621
11750.0 0.0014871
11770.0 0.0014137
11790.0 0.0013448
11810.0 0.0012836
11830.0 0.0012282
11850.0 0.0011767
11870.0 0.0011325
11890.0 0.0010947
11910.0 0.0010605
11930.0 0.00103
11950.0 0.0010035
11970.0 0.00097887
11990.0 0.00095502
12010.0 0.0009324
12030.0 0.00091033
12050.0 0.0008876
12070.0 0.00086411
12090.0 0.00084134
12110.0 0.00081821
12130.0 0.0007948
12150.0 0.00077253
12170.0 0.00075199
12190.0 0.00073255
12210.0 0.000716
12230.0 0.00070307
12250.0 0.00069375
12270.0 0.00068872
12290.0 0.00068829
12310.0 0.00069212
12330.0 0.00070098
12350.0 0.00071443
12370.0 0.00073122
12390.0 0.00075186
12410.0 0.00077724
12430.0 0.0008034
12450.0 0.00083074
12470.0 0.00086013
12490.0 0.0008896
12510.0 0.00091685
12530.0 0.0009438
12550.0 0.00096948
12570.0 0.00099145
12590.0 0.00101
12610.0 0.001026
12630.0 0.0010378
12650.0 0.0010444
12670.0 0.0010473
12690.0 0.001046
12710.0 0.0010401
12730.0 0.0010305
12750.0 0.0010167
12770.0 0.00099935
12790.0 0.00097935
12810.0 0.00095641
12830.0 0.00093067
12850.0 0.00090407
12870.0 0.00087631
12890.0 0.00084676
12910.0 0.00081691
12930.0 0.00078755
12950.0 0.00075717
12970.0 0.00072637
12990.0 0.00069708
13010.0 0.00066812
13030.0 0.00063883
13050.0 0.00061052
13070.0 0.00058375
13090.0 0.00055679
13110.0 0.00053051
13130.0 0.00050597
13150.0 0.0004825
13170.0 0.00045934
13190.0 0.00043837
13210.0 0.00041956
13230.0 0.00040205
13250.0 0.00038653
13270.0 0.0003737
13290.0 0.00036302
13310.0 0.00035464
13330.0 0.00034914
13350.0 0.00034631
13370.0 0.0003462
13390.0 0.00034898
13410.0 0.00035398
13430.0 0.00036139
13450.0 0.00037128
13470.0 0.00038274
13490.0 0.00039524
13510.0 0.0004098
13530.0 0.00042488
13550.0 0.00043955
13570.0 0.0004543
13590.0 0.00046896
13610.0 0.0004822
13630.0 0.00049391
13650.0 0.00050483
13670.0 0.00051404
13690.0 0.00052124
13710.0 0.00052692
13730.0 0.00053111
13750.0 0.00053323
13770.0 0.0005338
13790.0 0.00053292
13810.0 0.00053056
13830.0 0.000527
13850.0 0.0005222
13870.0 0.00051619
13890.0 0.00050933
13910.0 0.00050166
13930.0 0.00049292
13950.0 0.00048349
13970.0 0.00047393
13990.0 0.00046366
14010.0 0.00045289
14030.0 0.00044224
14050.0 0.00043162
14070.0 0.00042053
14090.0 0.00040997
14110.0 0.00040009
14130.0 0.00039056
14150.0 0.00038161
14170.0 0.00037394
14190.0 0.00036727
14210.0 0.00036156
14230.0 0.00035722
14250.0 0.00035429
14270.0 0.00035267
14290.0 0.00035256
14310.0 0.00035385
14330.0 0.00035648
14350.0 0.00036057
14370.0 0.00036584
14390.0 0.00037196
14410.0 0.00037934
14430.0 0.00038763
14450.0 0.00039631
14470.0 0.00040553
14490.0 0.0004156
14510.0 0.00042553
14530.0 0.00043528
14550.0 0.00044536
14570.0 0.00045543
14590.0 0.000465
14610.0 0.00047465
14630.0 0.00048461
14650.0 0.00049429
14670.0 0.00050395
14690.0 0.00051425
14710.0 0.00052519
14730.0 0.00053615
14750.0 0.00054814
14770.0 0.00056144
14790.0 0.00057553
14810.0 0.00059042
14830.0 0.00060753
14850.0 0.00062563
14870.0 0.0006441
14890.0 0.00066361
14910.0 0.00068393
14930.0 0.00070323
14950.0 0.00072113
14970.0 0.00073797
14990.0 0.00075215
15010.0 0.00076316
15030.0 0.00077154
15050.0 0.00077741
15070.0 0.0007808
15090.0 0.00078266
15110.0 0.00078347
15130.0 0.0007836
15150.0 0.00078345
15170.0 0.00078308
15190.0 0.0007826
15210.0 0.00078218
15230.0 0.00078176
15250.0 0.00078129
15270.0 0.00078085
15290.0 0.00078051
15310.0 0.00078013
15330.0 0.00077974
15350.0 0.00077942
15370.0 0.00077912
15390.0 0.00077873
15410.0 0.00077841
15430.0 0.00077815
15450.0 0.00077785
15470.0 0.00077751
15490.0 0.00077727
15510.0 0.00077704
15530.0 0.00077673
15550.0 0.00077647
15570.0 0.00077627
15590.0 0.00077599
15610.0 0.00077568
15630.0 0.00077547
15650.0 0.00077524
15670.0 0.00077495
15690.0 0.0007747
15710.0 0.00077451
15730.0 0.00077423
15750.0 0.00077394
15770.0 0.00077371
15790.0 0.00077346
15810.0 0.00077311
15830.0 0.00077284
15850.0 0.0007726
15870.0 0.00077228
15890.0 0.00077195
15910.0 0.0007717
15930.0 0.00077138
15950.0 0.00077099
15970.0 0.00077065
15990.0 0.00077033
16010.0 0.00076993
16030.0 0.00076949
16050.0 0.00076915
16070.0 0.00076875
16090.0 0.00076828
16110.0 0.00076786
16130.0 0.00076746
16150.0 0.00076691
16170.0 0.00076638
16190.0 0.00076591
16210.0 0.00076539
16230.0 0.00076478
16250.0 0.00076424
16270.0 0.0007637
16290.0 0.00076305
16310.0 0.0007624
16330.0 0.0007618
16350.0 0.00076112
16370.0 0.00076033
16390.0 0.00075965
16410.0 0.00075894
16430.0 0.00075814
16450.0 0.00075734
16470.0 0.0007566
16490.0 0.00075574
16510.0 0.00075482
16530.0 0.00075396
16550.0 0.00075308
16570.0 0.00075208
16590.0 0.00075109
16610.0 0.00075017
16630.0 0.00074914
16650.0 0.00074806
16670.0 0.00074704
16690.0 0.00074598
16710.0 0.00074477
16730.0 0.00074362
16750.0 0.00074249
16770.0 0.00074126
16790.0 0.00073997
16810.0 0.00073876
16830.0 0.00073751
16850.0 0.00073615
16870.0 0.00073481
16890.0 0.00073349
16910.0 0.00073205
16930.0 0.00073056
16950.0 0.00072915
16970.0 0.00072769
16990.0 0.00072613
17010.0 0.0007246
17030.0 0.0007231
17050.0 0.00072147
17070.0 0.00071981
17090.0 0.0007182
17110.0 0.00071654
17130.0 0.00071475
17150.0 0.00071303
17170.0 0.00071132
17190.0 0.00070951
17210.0 0.00070767
17230.0 0.0007059
17250.0 0.00070403
17270.0 0.00070207
17290.0 0.00070016
17310.0 0.00069826
17330.0 0.00069625
17350.0 0.0006942
17370.0 0.00069225
17390.0 0.00069021
17410.0 0.00068809
17430.0 0.00068602
17450.0 0.00068396
17470.0 0.00068173
17490.0 0.00067953
17510.0 0.00067739
17530.0 0.00067517
17550.0 0.00067288
17570.0 0.00067065
17590.0 0.00066842
17610.0 0.00066606
17630.0 0.00066372
17650.0 0.00066142
17670.0 0.00065904
17690.0 0.00065655
17710.0 0.00065418
17730.0 0.00065179
17750.0 0.0006493
17770.0 0.00064681
17790.0 0.0006444
17810.0 0.00064186
17830.0 0.00063928
17850.0 0.00063676
17870.0 0.00063423
17890.0 0.00063158
17910.0 0.00062896
17930.0 0.00062642
17950.0 0.00062377
17970.0 0.00062109
17990.0 0.00061848
18010.0 0.00061584
18030.0 0.00061305
18050.0 0.00061035
18070.0 0.00060768
18090.0 0.00060492
18110.0 0.00060212
18130.0 0.00059942
18150.0 0.00059668
18170.0 0.00059384
18190.0 0.00059106
18210.0 0.00058831
18230.0 0.00058544
18250.0 0.00058255
18270.0 0.00057977
18290.0 0.00057694
18310.0 0.00057403
18330.0 0.00057118
18350.0 0.00056838
18370.0 0.00056545
18390.0 0.00056253
18410.0 0.00055968
18430.0 0.00055679
18450.0 0.00055379
18470.0 0.00055089
18490.0 0.00054802
18510.0 0.00054507
18530.0 0.00054211
18550.0 0.00053924
18570.0 0.0005363
18590.0 0.00053328
18610.0 0.00053035
18630.0 0.00052743
18650.0 0.00052443
18670.0 0.00052143
18690.0 0.00051854
18710.0 0.00051558
18730.0 0.00051257
18750.0 0.00050963
18770.0 0.00050672
18790.0 0.00050366
18810.0 0.00050067
18830.0 0.00049775
18850.0 0.00049478
18870.0 0.00049176
18890.0 0.00048883
18910.0 0.0004859
18930.0 0.00048289
18950.0 0.00047991
18970.0 0.000477
18990.0 0.00047403
19010.0 0.00047097
19030.0 0.00046807
19050.0 0.00046514
19070.0 0.00046216
19090.0 0.0004592
19110.0 0.00045633
19130.0 0.00045335
19150.0 0.00045037
19170.0 0.00044747
19190.0 0.00044457
19210.0 0.00044158
19230.0 0.00043865
19250.0 0.0004358
19270.0 0.00043288
19290.0 0.00042994
19310.0 0.00042709
19330.0 0.00042423
19350.0 0.00042126
19370.0 0.00041838
19390.0 0.00041555
19410.0 0.00041266
19430.0 0.00040976
19450.0 0.00040696
19470.0 0.00040414
19490.0 0.00040125
19510.0 0.00039843
19530.0 0.00039566
19550.0 0.00039279
19570.0 0.00038993
19590.0 0.00038718
19610.0 0.0003844
19630.0 0.00038158
19650.0 0.00037882
19670.0 0.00037611
19690.0 0.0003733
19710.0 0.00037053
19730.0 0.00036782
19750.0 0.0003651
19770.0 0.0003623
19790.0 0.0003596
19810.0 0.00035694
19830.0 0.00035421
19850.0 0.00035148
19870.0 0.00034881
19890.0 0.00034601
19910.0 0.00034305
19930.0 0.00033998
19950.0 0.00033665
19970.0 0.00033279
19990.0 0.0003284
20010.0 0.00031334
20030.0 0.00030794
20050.0 0.00030184
20070.0 0.00029538
20090.0 0.00028858
20110.0 0.00028106
20130.0 0.00027357
20150.0 0.00026623
20170.0 0.00025872
20190.0 0.00025119
20210.0 0.00024412
20230.0 0.00023726
20250.0 0.00023043
20270.0 0.0002241
20290.0 0.0002183
20310.0 0.00021277
20330.0 0.00020758
20350.0 0.00020319
20370.0 0.00019924
20390.0 0.00019571
20410.0 0.00019277
20430.0 0.0001904
20450.0 0.00018842
20470.0 0.00018695
20490.0 0.00018597
20510.0 0.00018541
20530.0 0.00018527
20550.0 0.0001855
20570.0 0.00018604
20590.0 0.00018691
20610.0 0.00018807
20630.0 0.00018941
20650.0 0.00019097
20670.0 0.00019282
20690.0 0.00019473
20710.0 0.00019673
20730.0 0.0001989
20750.0 0.00020118
20770.0 0.00020339
20790.0 0.0002057
20810.0 0.00020813
20830.0 0.0002105
20850.0 0.00021285
20870.0 0.00021534
20890.0 0.00021784
20910.0 0.00022019
20930.0 0.00022261
20950.0 0.0002251
20970.0 0.00022749
20990.0 0.00022982
21010.0 0.00023227
21030.0 0.00023465
21050.0 0.0002369
21070.0 0.00023914
21090.0 0.0002414
21110.0 0.00024344
21130.0 0.00024537
21150.0 0.00024726
21170.0 0.00024898
21190.0 0.00025047
21210.0 0.00025186
21230.0 0.00025307
21250.0 0.00025397
21270.0 0.00025462
21290.0 0.00025501
21310.0 0.00025505
21330.0 0.00025475
21350.0 0.00025409
21370.0 0.00025301
21390.0 0.00025153
21410.0 0.00024966
21430.0 0.00024723
21450.0 0.00024441
21470.0 0.00024126
21490.0 0.00023764
21510.0 0.00023359
21530.0 0.00022939
21550.0 0.00022491
21570.0 0.00022007
21590.0 0.0002152
21610.0 0.00021041
21630.0 0.00020552
21650.0 0.00020063
21670.0 0.00019626
21690.0 0.00019211
21710.0 0.00018821
21730.0 0.00018484
21750.0 0.00018201
21770.0 0.00017957
21790.0 0.00017773
21810.0 0.00017652
21830.0 0.00017587
21850.0 0.00017581
21870.0 0.00017631
21890.0 0.0001773
21910.0 0.00017882
21930.0 0.00018083
21950.0 0.00018315
21970.0 0.00018586
21990.0 0.00018905
22010.0 0.00019234
22030.0 0.00019579
22050.0 0.00019952
22070.0 0.00020338
22090.0 0.00020711
22110.0 0.00021096
22130.0 0.0002149
22150.0 0.00021865
22170.0 0.00022226
22190.0 0.00022591
22210.0 0.00022937
22230.0 0.00023245
22250.0 0.0002354
22270.0 0.00023817
22290.0 0.00024055
22310.0 0.00024262
22330.0 0.00024447
22350.0 0.00024593
22370.0 0.00024697
22390.0 0.00024766
22410.0 0.00024796
22430.0 0.0002478
22450.0 0.00024723
22470.0 0.0002462
22490.0 0.00024473
22510.0 0.00024286
22530.0 0.00024047
22550.0 0.00023756
22570.0 0.00023432
22590.0 0.00023066
22610.0 0.00022645
22630.0 0.00022189
22650.0 0.00021716
22670.0 0.00021192
22690.0 0.00020631
22710.0 0.00020064
22730.0 0.00019477
22750.0 0.00018839
22770.0 0.00018213
22790.0 0.00017599
22810.0 0.00016966
22830.0 0.00016334
22850.0 0.00015739
22870.0 0.00015154
22890.0 0.00014572
22910.0 0.00014033
22930.0 0.00013539
22950.0 0.00013067
22970.0 0.0001263
22990.0 0.00012266
23010.0 0.00011943
23030.0 0.00011664
23050.0 0.00011445
23070.0 0.00011285
23090.0 0.00011173
23110.0 0.0001112
23130.0 0.00011123
23150.0 0.00011178
23170.0 0.00011288
23190.0 0.00011444
