#lamb flux
1010.0 3.8947e-06
1030.0 4.2369e-06
1050.0 4.6408e-06
1070.0 5.0954e-06
1090.0 5.6089e-06
1110.0 6.1361e-06
1130.0 6.6673e-06
1150.0 7.2238e-06
1170.0 7.7978e-06
1190.0 8.3415e-06
1210.0 8.8915e-06
1230.0 9.4584e-06
1250.0 1.0013e-05
1270.0 1.0548e-05
1290.0 1.1112e-05
1310.0 1.1673e-05
1330.0 1.2208e-05
1350.0 1.2747e-05
1370.0 1.3301e-05
1390.0 1.384e-05
1410.0 1.4361e-05
1430.0 1.4906e-05
1450.0 1.5451e-05
1470.0 1.5978e-05
1490.0 1.6512e-05
1510.0 1.7078e-05
1530.0 1.7617e-05
1550.0 1.8151e-05
1570.0 1.8706e-05
1590.0 1.9265e-05
1610.0 1.9802e-05
1630.0 2.0361e-05
1650.0 2.0937e-05
1670.0 2.1499e-05
1690.0 2.2056e-05
1710.0 2.2637e-05
1730.0 2.3223e-05
1750.0 2.3777e-05
1770.0 2.4347e-05
1790.0 2.4927e-05
1810.0 2.5489e-05
1830.0 2.6038e-05
1850.0 2.6616e-05
1870.0 2.7173e-05
1890.0 2.7705e-05
1910.0 2.824e-05
1930.0 2.8778e-05
1950.0 2.9279e-05
1970.0 2.9762e-05
1990.0 3.0252e-05
2010.0 3.072e-05
2030.0 3.1154e-05
2050.0 3.159e-05
2070.0 3.2025e-05
2090.0 3.2416e-05
2110.0 3.2792e-05
2130.0 3.3172e-05
2150.0 3.353e-05
2170.0 3.3856e-05
2190.0 3.4192e-05
2210.0 3.4524e-05
2230.0 3.4828e-05
2250.0 3.5125e-05
2270.0 3.544e-05
2290.0 3.5736e-05
2310.0 3.6009e-05
2330.0 3.6296e-05
2350.0 3.6587e-05
2370.0 3.6859e-05
2390.0 3.7138e-05
2410.0 3.7448e-05
2430.0 3.7752e-05
2450.0 3.8058e-05
2470.0 3.8399e-05
2490.0 3.8779e-05
2510.0 3.9183e-05
2530.0 3.9716e-05
2550.0 4.0536e-05
2570.0 4.1804e-05
2590.0 4.3737e-05
2610.0 4.6891e-05
2630.0 5.1445e-05
2650.0 5.7212e-05
2670.0 6.4299e-05
2690.0 7.2468e-05
2710.0 8.0565e-05
2730.0 8.7903e-05
2750.0 9.4313e-05
2770.0 9.8858e-05
2790.0 0.00010128
2810.0 0.00010181
2830.0 0.00010048
2850.0 9.7816e-05
2870.0 9.4272e-05
2890.0 8.9985e-05
2910.0 8.5348e-05
2930.0 8.0762e-05
2950.0 7.5942e-05
2970.0 7.1003e-05
2990.0 6.6261e-05
3010.0 8.9625e-05
3030.0 8.2623e-05
3050.0 7.5704e-05
3070.0 6.9343e-05
3090.0 6.2978e-05
3110.0 5.6901e-05
3130.0 5.1662e-05
3150.0 4.8128e-05
3170.0 4.5308e-05
3190.0 7.4784e-05
3210.0 0.00021048
3230.0 0.0004303
3250.0 0.000546
3270.0 0.00048214
3290.0 0.00037008
3310.0 0.00030626
3330.0 0.00028695
3350.0 0.00029466
3370.0 0.00031029
3390.0 0.00032691
3410.0 0.00034371
3430.0 0.00035942
3450.0 0.00037646
3470.0 0.00039499
3490.0 0.00040762
3510.0 0.00039464
3530.0 0.00040309
3550.0 0.00050555
3570.0 0.00063486
3590.0 0.00070108
3610.0 0.000723
3630.0 0.00074088
3650.0 0.00073988
3670.0 0.0007843
3690.0 0.00093855
3710.0 0.0011121
3730.0 0.0012257
3750.0 0.0013063
3770.0 0.0013223
3790.0 0.0012711
3810.0 0.001175
3830.0 0.0010273
3850.0 0.00087089
3870.0 0.00079017
3890.0 0.00088391
3910.0 0.0011181
3930.0 0.0013523
3950.0 0.0014914
3970.0 0.0015503
3990.0 0.001615
4010.0 0.0016524
4030.0 0.0014908
4050.0 0.0011765
4070.0 0.0010153
4090.0 0.0010702
4110.0 0.0011781
4130.0 0.0012388
4150.0 0.0012454
4170.0 0.001217
4190.0 0.0011963
4210.0 0.0012267
4230.0 0.0012982
4250.0 0.0013564
4270.0 0.001378
4290.0 0.001359
4310.0 0.0013678
4330.0 0.0014508
4350.0 0.001549
4370.0 0.0015418
4390.0 0.00143
4410.0 0.0012621
4430.0 0.0010566
4450.0 0.00091154
4470.0 0.00090682
4490.0 0.00099053
4510.0 0.0010976
4530.0 0.0012133
4550.0 0.0013946
4570.0 0.0017427
4590.0 0.0022391
4610.0 0.0026448
4630.0 0.0028494
4650.0 0.0030177
4670.0 0.0031811
4690.0 0.0031114
4710.0 0.0027134
4730.0 0.002187
4750.0 0.0017629
4770.0 0.001507
4790.0 0.0014127
4810.0 0.0014124
4830.0 0.0015112
4850.0 0.0017086
4870.0 0.0018854
4890.0 0.0019431
4910.0 0.0019888
4930.0 0.0021755
4950.0 0.0024273
4970.0 0.0025572
4990.0 0.0024865
5010.0 0.0022271
5030.0 0.0018652
5050.0 0.0015589
5070.0 0.0013716
5090.0 0.0012947
5110.0 0.0012947
5130.0 0.0013072
5150.0 0.0012956
5170.0 0.001267
5190.0 0.001281
5210.0 0.0013781
5230.0 0.0015556
5250.0 0.0018212
5270.0 0.0021001
5290.0 0.0022934
5310.0 0.0024508
5330.0 0.0026491
5350.0 0.0027997
5370.0 0.0027775
5390.0 0.0026375
5410.0 0.0025363
5430.0 0.0026265
5450.0 0.0029486
5470.0 0.0033466
5490.0 0.0036283
5510.0 0.0037248
5530.0 0.0036897
5550.0 0.0035822
5570.0 0.0034478
5590.0 0.0033217
5610.0 0.0032324
5630.0 0.0031994
5650.0 0.0031441
5670.0 0.0029587
5690.0 0.0026868
5710.0 0.0024424
5730.0 0.0022686
5750.0 0.0022121
5770.0 0.002267
5790.0 0.0023317
5810.0 0.0023573
5830.0 0.0023624
5850.0 0.0023229
5870.0 0.0022555
5890.0 0.0022429
5910.0 0.002279
5930.0 0.0022508
5950.0 0.0021049
5970.0 0.0018664
5990.0 0.0015938
6010.0 0.0013915
6030.0 0.0013328
6050.0 0.0014053
6070.0 0.0014729
6090.0 0.0014235
6110.0 0.001343
6130.0 0.0013703
6150.0 0.001486
6170.0 0.0015922
6190.0 0.001653
6210.0 0.0016718
6230.0 0.0016262
6250.0 0.0014817
6270.0 0.0012753
6290.0 0.0011055
6310.0 0.0010454
6330.0 0.0010772
6350.0 0.0011324
6370.0 0.0012036
6390.0 0.0013557
6410.0 0.0015844
6430.0 0.0017747
6450.0 0.0018695
6470.0 0.001922
6490.0 0.0019605
6510.0 0.0019763
6530.0 0.0019869
6550.0 0.0020137
6570.0 0.0020472
6590.0 0.00207
6610.0 0.0020453
6630.0 0.0019535
6650.0 0.0018147
6670.0 0.0016824
6690.0 0.0015972
6710.0 0.0015327
6730.0 0.0014644
6750.0 0.0014317
6770.0 0.0014645
6790.0 0.0015116
6810.0 0.0015261
6830.0 0.0015019
6850.0 0.0014431
6870.0 0.0013832
6890.0 0.0013496
6910.0 0.0013533
6930.0 0.0013763
6950.0 0.0013944
6970.0 0.0014103
6990.0 0.0014059
7010.0 0.0013613
7030.0 0.0012689
7050.0 0.0011486
7070.0 0.0010643
7090.0 0.0010531
7110.0 0.0010704
7130.0 0.0010337
7150.0 0.00095994
7170.0 0.00095054
7190.0 0.0010354
7210.0 0.0011544
7230.0 0.0012509
7250.0 0.0012903
7270.0 0.0012623
7290.0 0.0011973
7310.0 0.0011476
7330.0 0.0011495
7350.0 0.0011772
7370.0 0.0011996
7390.0 0.0012512
7410.0 0.0013546
7430.0 0.001473
7450.0 0.0015649
7470.0 0.0015916
7490.0 0.0015153
7510.0 0.001406
7530.0 0.0013439
7550.0 0.0012729
7570.0 0.0011984
7590.0 0.0011606
7610.0 0.0011599
7630.0 0.0011983
7650.0 0.0012794
7670.0 0.0013833
7690.0 0.0014773
7710.0 0.0015442
7730.0 0.0015999
7750.0 0.0016451
7770.0 0.0016642
7790.0 0.0016861
7810.0 0.0016854
7830.0 0.0016305
7850.0 0.0015701
7870.0 0.001535
7890.0 0.0015324
7910.0 0.0015323
7930.0 0.0014951
7950.0 0.0014436
7970.0 0.00139
7990.0 0.0013437
8010.0 0.0012789
8030.0 0.0012795
8050.0 0.0012759
8070.0 0.0012574
8090.0 0.0012437
8110.0 0.0012231
8130.0 0.0012226
8150.0 0.001212
8170.0 0.0011893
8190.0 0.0011547
8210.0 0.0011155
8230.0 0.0010786
8250.0 0.0010647
8270.0 0.0010022
8290.0 0.00086929
8310.0 0.00072141
8330.0 0.00062066
8350.0 0.00059489
8370.0 0.00065843
8390.0 0.00075119
8410.0 0.00080091
8430.0 0.00083035
8450.0 0.00088641
8470.0 0.00095582
8490.0 0.0010504
8510.0 0.0011602
8530.0 0.0012744
8550.0 0.0013649
8570.0 0.0014313
8590.0 0.0014807
8610.0 0.0015082
8630.0 0.0015022
8650.0 0.0014754
8670.0 0.0014764
8690.0 0.0015507
8710.0 0.0016518
8730.0 0.0016995
8750.0 0.0016861
8770.0 0.001702
8790.0 0.0017013
8810.0 0.0016256
8830.0 0.0015075
8850.0 0.0013598
8870.0 0.0012474
8890.0 0.0012124
8910.0 0.0011907
8930.0 0.0011142
8950.0 0.0010307
8970.0 0.00099624
8990.0 0.00099864
9010.0 0.00098082
9030.0 0.00096339
9050.0 0.00095447
9070.0 0.00094972
9090.0 0.00094555
9110.0 0.00094152
9130.0 0.00093749
9150.0 0.00093356
9170.0 0.0009295
9190.0 0.00092616
9210.0 0.00092413
9230.0 0.00091951
9250.0 0.00091532
9270.0 0.00091139
9290.0 0.00090766
9310.0 0.000904
9330.0 0.00090044
9350.0 0.00089704
9370.0 0.00089367
9390.0 0.00089029
9410.0 0.00088701
9430.0 0.00088358
9450.0 0.00087897
9470.0 0.00087482
9490.0 0.00087296
9510.0 0.00087046
9530.0 0.00086786
9550.0 0.00086507
9570.0 0.00086222
9590.0 0.00085938
9610.0 0.00085654
9630.0 0.00085366
9650.0 0.00085083
9670.0 0.00084808
9690.0 0.00084529
9710.0 0.00084252
9730.0 0.00083982
9750.0 0.00083713
9770.0 0.00083437
9790.0 0.00083169
9810.0 0.00082906
9830.0 0.00082637
9850.0 0.00082367
9870.0 0.00082107
9890.0 0.00081845
9910.0 0.00081577
9930.0 0.00081309
9950.0 0.00080748
9970.0 0.00080567
9990.0 0.00080366
10010.0 0.00080165
10030.0 0.00079934
10050.0 0.00079677
10070.0 0.00079422
10090.0 0.00079167
10110.0 0.00078867
10130.0 0.00078498
10150.0 0.00078237
10170.0 0.00077984
10190.0 0.00077694
10210.0 0.0007742
10230.0 0.00077146
10250.0 0.00076837
10270.0 0.00076527
10290.0 0.00076235
10310.0 0.00075915
10330.0 0.00075568
10350.0 0.00075248
10370.0 0.00074924
10390.0 0.0007457
10410.0 0.00074215
10430.0 0.00073884
10450.0 0.00073522
10470.0 0.00073141
10490.0 0.00072775
10510.0 0.00072407
10530.0 0.0007199
10550.0 0.00071585
10570.0 0.00071198
10590.0 0.00070781
10610.0 0.00070344
10630.0 0.00069928
10650.0 0.000695
10670.0 0.0006903
10690.0 0.0006857
10710.0 0.00068118
10730.0 0.00067635
10750.0 0.0006712
10770.0 0.00066644
10790.0 0.00066148
10810.0 0.00065619
10830.0 0.00065094
10850.0 0.00064585
10870.0 0.0006402
10890.0 0.00063446
10910.0 0.00062892
10930.0 0.00062318
10950.0 0.00061704
10970.0 0.00061096
10990.0 0.00060506
11010.0 0.00064807
11030.0 0.00064149
11050.0 0.00063517
11070.0 0.00062874
11090.0 0.00062186
11110.0 0.00061544
11130.0 0.00060917
11150.0 0.00060266
11170.0 0.00059618
11190.0 0.0005901
11210.0 0.00058387
11230.0 0.00057752
11250.0 0.00057148
11270.0 0.00056565
11290.0 0.00055964
11310.0 0.00055374
11330.0 0.00054831
11350.0 0.0005428
11370.0 0.00053721
11390.0 0.00053181
11410.0 0.00052645
11430.0 0.00052063
11450.0 0.00051473
11470.0 0.00050876
11490.0 0.00050236
11510.0 0.00049538
11530.0 0.00048831
11550.0 0.00048093
11570.0 0.00047288
11590.0 0.00046455
11610.0 0.00045619
11630.0 0.00044727
11650.0 0.00043793
11670.0 0.00042886
11690.0 0.00041971
11710.0 0.00041024
11730.0 0.00040088
11750.0 0.00039191
11770.0 0.00038268
11790.0 0.00037343
11810.0 0.00036455
11830.0 0.00035579
11850.0 0.00034671
11870.0 0.000338
11890.0 0.00032967
11910.0 0.00032125
11930.0 0.00031291
11950.0 0.00030505
11970.0 0.00029734
11990.0 0.00028961
12010.0 0.00028234
12030.0 0.00027552
12050.0 0.00026886
12070.0 0.00026248
12090.0 0.00025683
12110.0 0.00025151
12130.0 0.00024654
12150.0 0.00024215
12170.0 0.00023834
12190.0 0.00023489
12210.0 0.00023205
12230.0 0.00022983
12250.0 0.00022813
12270.0 0.000227
12290.0 0.00022642
12310.0 0.00022631
12330.0 0.00022672
12350.0 0.00022757
12370.0 0.00022872
12390.0 0.0002302
12410.0 0.0002321
12430.0 0.00023402
12450.0 0.00023602
12470.0 0.00023819
12490.0 0.00024038
12510.0 0.00024236
12530.0 0.00024434
12550.0 0.00024626
12570.0 0.00024787
12590.0 0.00024921
12610.0 0.00025037
12630.0 0.00025117
12650.0 0.00025147
12670.0 0.00025143
12690.0 0.00025097
12710.0 0.00025001
12730.0 0.00024861
12750.0 0.00024673
12770.0 0.0002444
12790.0 0.00024169
12810.0 0.00023858
12830.0 0.00023508
12850.0 0.00023141
12870.0 0.00022755
12890.0 0.00022346
12910.0 0.00021931
12930.0 0.00021523
12950.0 0.00021105
12970.0 0.00020687
12990.0 0.00020292
13010.0 0.00019906
13030.0 0.00019524
13050.0 0.00019159
13070.0 0.00018814
13090.0 0.00018473
13110.0 0.00018142
13130.0 0.0001783
13150.0 0.00017528
13170.0 0.00017228
13190.0 0.00016945
13210.0 0.00016678
13230.0 0.00016416
13250.0 0.00016162
13270.0 0.00015925
13290.0 0.00015696
13310.0 0.00015471
13330.0 0.0001526
13350.0 0.00015061
13370.0 0.00014867
13390.0 0.00014681
13410.0 0.00014509
13430.0 0.00014344
13450.0 0.00014185
13470.0 0.00014035
13490.0 0.00013893
13510.0 0.00013752
13530.0 0.00013616
13550.0 0.00013487
13570.0 0.00013359
13590.0 0.0001323
13610.0 0.00013105
13630.0 0.00012981
13650.0 0.00012855
13670.0 0.00012728
13690.0 0.00012605
13710.0 0.0001248
13730.0 0.00012352
13750.0 0.00012229
13770.0 0.00012109
13790.0 0.00011989
13810.0 0.00011872
13830.0 0.00011761
13850.0 0.00011651
13870.0 0.00011544
13890.0 0.00011442
13910.0 0.00011345
13930.0 0.00011249
13950.0 0.00011156
13970.0 0.00011069
13990.0 0.00010982
14010.0 0.00010895
14030.0 0.0001081
14050.0 0.00010725
14070.0 0.00010636
14090.0 0.00010546
14110.0 0.00010458
14130.0 0.00010365
14150.0 0.0001027
14170.0 0.00010177
14190.0 0.00010085
14210.0 9.9915e-05
14230.0 9.9016e-05
14250.0 9.8176e-05
14270.0 9.7352e-05
14290.0 9.6578e-05
14310.0 9.5907e-05
14330.0 9.5304e-05
14350.0 9.4762e-05
14370.0 9.4308e-05
14390.0 9.394e-05
14410.0 9.3623e-05
14430.0 9.3368e-05
14450.0 9.3172e-05
14470.0 9.3014e-05
14490.0 9.2879e-05
14510.0 9.2774e-05
14530.0 9.2691e-05
14550.0 9.2616e-05
14570.0 9.2557e-05
14590.0 9.2524e-05
14610.0 9.2517e-05
14630.0 9.2551e-05
14650.0 9.2647e-05
14670.0 9.282e-05
14690.0 9.3095e-05
14710.0 9.3501e-05
14730.0 9.4035e-05
14750.0 9.4738e-05
14770.0 9.5651e-05
14790.0 9.6755e-05
14810.0 9.8053e-05
14830.0 9.9672e-05
14850.0 0.00010153
14870.0 0.00010357
14890.0 0.00010586
14910.0 0.00010838
14930.0 0.00011092
14950.0 0.0001134
14970.0 0.00011587
14990.0 0.00011809
15010.0 0.00011996
15030.0 0.00012153
15050.0 0.00012281
15070.0 0.00012375
15090.0 0.0001245
15110.0 0.00012512
15130.0 0.00012565
15150.0 0.00012614
15170.0 0.00012661
15190.0 0.00012708
15210.0 0.00012755
15230.0 0.00012803
15250.0 0.00012852
15270.0 0.00012902
15290.0 0.00012953
15310.0 0.00013005
15330.0 0.00013058
15350.0 0.00013112
15370.0 0.00013166
15390.0 0.00013222
15410.0 0.00013279
15430.0 0.00013336
15450.0 0.00013394
15470.0 0.00013453
15490.0 0.00013513
15510.0 0.00013574
15530.0 0.00013636
15550.0 0.00013698
15570.0 0.00013761
15590.0 0.00013825
15610.0 0.0001389
15630.0 0.00013955
15650.0 0.00014022
15670.0 0.00014088
15690.0 0.00014156
15710.0 0.00014224
15730.0 0.00014293
15750.0 0.00014362
15770.0 0.00014432
15790.0 0.00014503
15810.0 0.00014574
15830.0 0.00014646
15850.0 0.00014718
15870.0 0.00014791
15890.0 0.00014864
15910.0 0.00014938
15930.0 0.00015012
15950.0 0.00015086
15970.0 0.00015161
15990.0 0.00015237
16010.0 0.00015312
16030.0 0.00015388
16050.0 0.00015464
16070.0 0.00015541
16090.0 0.00015617
16110.0 0.00015694
16130.0 0.00015771
16150.0 0.00015848
16170.0 0.00015926
16190.0 0.00016003
16210.0 0.00016081
16230.0 0.00016158
16250.0 0.00016236
16270.0 0.00016314
16290.0 0.00016391
16310.0 0.00016469
16330.0 0.00016546
16350.0 0.00016623
16370.0 0.000167
16390.0 0.00016777
16410.0 0.00016854
16430.0 0.00016931
16450.0 0.00017007
16470.0 0.00017083
16490.0 0.00017159
16510.0 0.00017234
16530.0 0.00017309
16550.0 0.00017383
16570.0 0.00017457
16590.0 0.00017531
16610.0 0.00017604
16630.0 0.00017676
16650.0 0.00017748
16670.0 0.00017819
16690.0 0.0001789
16710.0 0.0001796
16730.0 0.00018029
16750.0 0.00018098
16770.0 0.00018165
16790.0 0.00018232
16810.0 0.00018299
16830.0 0.00018364
16850.0 0.00018428
16870.0 0.00018492
16890.0 0.00018555
16910.0 0.00018616
16930.0 0.00018677
16950.0 0.00018737
16970.0 0.00018796
16990.0 0.00018853
17010.0 0.0001891
17030.0 0.00018965
17050.0 0.00019019
17070.0 0.00019072
17090.0 0.00019124
17110.0 0.00019175
17130.0 0.00019224
17150.0 0.00019272
17170.0 0.00019319
17190.0 0.00019365
17210.0 0.00019409
17230.0 0.00019452
17250.0 0.00019493
17270.0 0.00019533
17290.0 0.00019572
17310.0 0.00019609
17330.0 0.00019645
17350.0 0.00019679
17370.0 0.00019712
17390.0 0.00019743
17410.0 0.00019773
17430.0 0.00019801
17450.0 0.00019828
17470.0 0.00019853
17490.0 0.00019876
17510.0 0.00019898
17530.0 0.00019919
17550.0 0.00019937
17570.0 0.00019955
17590.0 0.0001997
17610.0 0.00019984
17630.0 0.00019996
17650.0 0.00020007
17670.0 0.00020016
17690.0 0.00020023
17710.0 0.00020029
17730.0 0.00020033
17750.0 0.00020035
17770.0 0.00020035
17790.0 0.00020034
17810.0 0.00020031
17830.0 0.00020027
17850.0 0.00020021
17870.0 0.00020013
17890.0 0.00020004
17910.0 0.00019993
17930.0 0.0001998
17950.0 0.00019965
17970.0 0.00019949
17990.0 0.00019932
18010.0 0.00019912
18030.0 0.00019891
18050.0 0.00019869
18070.0 0.00019844
18090.0 0.00019819
18110.0 0.00019791
18130.0 0.00019762
18150.0 0.00019732
18170.0 0.000197
18190.0 0.00019666
18210.0 0.00019631
18230.0 0.00019594
18250.0 0.00019556
18270.0 0.00019516
18290.0 0.00019475
18310.0 0.00019433
18330.0 0.00019389
18350.0 0.00019343
18370.0 0.00019296
18390.0 0.00019248
18410.0 0.00019199
18430.0 0.00019148
18450.0 0.00019095
18470.0 0.00019042
18490.0 0.00018987
18510.0 0.00018931
18530.0 0.00018874
18550.0 0.00018815
18570.0 0.00018755
18590.0 0.00018694
18610.0 0.00018632
18630.0 0.00018569
18650.0 0.00018505
18670.0 0.00018439
18690.0 0.00018373
18710.0 0.00018306
18730.0 0.00018237
18750.0 0.00018168
18770.0 0.00018097
18790.0 0.00018026
18810.0 0.00017953
18830.0 0.0001788
18850.0 0.00017806
18870.0 0.00017731
18890.0 0.00017656
18910.0 0.00017579
18930.0 0.00017502
18950.0 0.00017424
18970.0 0.00017345
18990.0 0.00017266
19010.0 0.00017185
19030.0 0.00017105
19050.0 0.00017023
19070.0 0.00016941
19090.0 0.00016859
19110.0 0.00016776
19130.0 0.00016692
19150.0 0.00016608
19170.0 0.00016523
19190.0 0.00016438
19210.0 0.00016353
19230.0 0.00016267
19250.0 0.00016181
19270.0 0.00016094
19290.0 0.00016007
19310.0 0.0001592
19330.0 0.00015832
19350.0 0.00015744
19370.0 0.00015656
19390.0 0.00015567
19410.0 0.00015479
19430.0 0.0001539
19450.0 0.00015301
19470.0 0.00015212
19490.0 0.00015123
19510.0 0.00015034
19530.0 0.00014944
19550.0 0.00014855
19570.0 0.00014765
19590.0 0.00014676
19610.0 0.00014586
19630.0 0.00014496
19650.0 0.00014407
19670.0 0.00014317
19690.0 0.00014228
19710.0 0.00014138
19730.0 0.00014049
19750.0 0.0001396
19770.0 0.00013871
19790.0 0.00013782
19810.0 0.00013693
19830.0 0.00013604
19850.0 0.00013515
19870.0 0.00013424
19890.0 0.00013331
19910.0 0.00013234
19930.0 0.00013129
19950.0 0.00013012
19970.0 0.00012879
19990.0 0.00012724
20010.0 0.00012552
20030.0 0.00012355
20050.0 0.00012134
20070.0 0.00011901
20090.0 0.00011658
20110.0 0.00011397
20130.0 0.00011139
20150.0 0.00010887
20170.0 0.00010634
20190.0 0.00010384
20210.0 0.00010147
20230.0 9.9181e-05
20250.0 9.691e-05
20270.0 9.4768e-05
20290.0 9.2761e-05
20310.0 9.0816e-05
20330.0 8.894e-05
20350.0 8.7255e-05
20370.0 8.566e-05
20390.0 8.4143e-05
20410.0 8.2751e-05
20430.0 8.1484e-05
20450.0 8.0278e-05
20470.0 7.9172e-05
20490.0 7.8175e-05
20510.0 7.7255e-05
20530.0 7.6401e-05
20550.0 7.5626e-05
20570.0 7.4918e-05
20590.0 7.4257e-05
20610.0 7.3642e-05
20630.0 7.3069e-05
20650.0 7.2525e-05
20670.0 7.2003e-05
20690.0 7.1499e-05
20710.0 7.1003e-05
20730.0 7.0509e-05
20750.0 7.001e-05
20770.0 6.9504e-05
20790.0 6.8983e-05
20810.0 6.8442e-05
20830.0 6.7881e-05
20850.0 6.73e-05
20870.0 6.6688e-05
20890.0 6.6049e-05
20910.0 6.5396e-05
20930.0 6.4715e-05
20950.0 6.4007e-05
20970.0 6.3287e-05
20990.0 6.2557e-05
21010.0 6.1798e-05
21030.0 6.1033e-05
21050.0 6.0273e-05
21070.0 5.9502e-05
21090.0 5.8719e-05
21110.0 5.7956e-05
21130.0 5.7203e-05
21150.0 5.6444e-05
21170.0 5.5699e-05
21190.0 5.4979e-05
21210.0 5.426e-05
21230.0 5.3548e-05
21250.0 5.2867e-05
21270.0 5.2205e-05
21290.0 5.155e-05
21310.0 5.0918e-05
21330.0 5.0318e-05
21350.0 4.973e-05
21370.0 4.9159e-05
21390.0 4.8619e-05
21410.0 4.8101e-05
21430.0 4.7594e-05
21450.0 4.7118e-05
21470.0 4.667e-05
21490.0 4.6238e-05
21510.0 4.5828e-05
21530.0 4.5443e-05
21550.0 4.5076e-05
21570.0 4.4725e-05
21590.0 4.4393e-05
21610.0 4.4078e-05
21630.0 4.3775e-05
21650.0 4.3485e-05
21670.0 4.3207e-05
21690.0 4.2937e-05
21710.0 4.2676e-05
21730.0 4.2422e-05
21750.0 4.2173e-05
21770.0 4.1931e-05
21790.0 4.1692e-05
21810.0 4.1458e-05
21830.0 4.1227e-05
21850.0 4.1e-05
21870.0 4.0776e-05
21890.0 4.0553e-05
21910.0 4.0334e-05
21930.0 4.0116e-05
21950.0 3.9899e-05
21970.0 3.9683e-05
21990.0 3.9466e-05
22010.0 3.9249e-05
22030.0 3.9029e-05
22050.0 3.8807e-05
22070.0 3.8581e-05
22090.0 3.8352e-05
22110.0 3.8119e-05
22130.0 3.7879e-05
22150.0 3.7636e-05
22170.0 3.7387e-05
22190.0 3.7131e-05
22210.0 3.6869e-05
22230.0 3.6604e-05
22250.0 3.6332e-05
22270.0 3.6052e-05
22290.0 3.5768e-05
22310.0 3.5479e-05
22330.0 3.5177e-05
22350.0 3.4868e-05
22370.0 3.4554e-05
22390.0 3.4226e-05
22410.0 3.3882e-05
22430.0 3.3535e-05
22450.0 3.3176e-05
22470.0 3.2797e-05
22490.0 3.2407e-05
22510.0 3.2012e-05
22530.0 3.1594e-05
22550.0 3.1158e-05
22570.0 3.0723e-05
22590.0 3.028e-05
22610.0 2.9818e-05
22630.0 2.9355e-05
22650.0 2.8903e-05
22670.0 2.8439e-05
22690.0 2.7973e-05
22710.0 2.7524e-05
22730.0 2.7084e-05
22750.0 2.6635e-05
22770.0 2.6211e-05
22790.0 2.581e-05
22810.0 2.5415e-05
22830.0 2.5035e-05
22850.0 2.4684e-05
