#lamb flux
1010.0 1.0259e-06
1030.0 1.1409e-06
1050.0 1.252e-06
1070.0 1.3775e-06
1090.0 1.5264e-06
1110.0 1.6786e-06
1130.0 1.8317e-06
1150.0 1.9925e-06
1170.0 2.1597e-06
1190.0 2.3209e-06
1210.0 2.4876e-06
1230.0 2.6643e-06
1250.0 2.8417e-06
1270.0 3.0208e-06
1290.0 3.216e-06
1310.0 3.4187e-06
1330.0 3.6217e-06
1350.0 3.8336e-06
1370.0 4.0574e-06
1390.0 4.2822e-06
1410.0 4.5059e-06
1430.0 4.7403e-06
1450.0 4.9763e-06
1470.0 5.2063e-06
1490.0 5.4369e-06
1510.0 5.6755e-06
1530.0 5.9e-06
1550.0 6.1169e-06
1570.0 6.3342e-06
1590.0 6.5446e-06
1610.0 6.7379e-06
1630.0 6.9258e-06
1650.0 7.1091e-06
1670.0 7.2756e-06
1690.0 7.4292e-06
1710.0 7.5792e-06
1730.0 7.7195e-06
1750.0 7.8381e-06
1770.0 7.9524e-06
1790.0 8.0615e-06
1810.0 8.1571e-06
1830.0 8.2435e-06
1850.0 8.3359e-06
1870.0 8.4206e-06
1890.0 8.4984e-06
1910.0 8.5804e-06
1930.0 8.6688e-06
1950.0 8.7535e-06
1970.0 8.8415e-06
1990.0 8.9418e-06
2010.0 9.0459e-06
2030.0 9.1509e-06
2050.0 9.267e-06
2070.0 9.3926e-06
2090.0 9.5131e-06
2110.0 9.6358e-06
2130.0 9.764e-06
2150.0 9.888e-06
2170.0 1.0002e-05
2190.0 1.0116e-05
2210.0 1.0224e-05
2230.0 1.0316e-05
2250.0 1.0397e-05
2270.0 1.0471e-05
2290.0 1.0527e-05
2310.0 1.0563e-05
2330.0 1.0588e-05
2350.0 1.0598e-05
2370.0 1.0587e-05
2390.0 1.0561e-05
2410.0 1.0524e-05
2430.0 1.0466e-05
2450.0 1.0386e-05
2470.0 1.029e-05
2490.0 1.0176e-05
2510.0 1.0046e-05
2530.0 9.9235e-06
2550.0 9.8454e-06
2570.0 9.8552e-06
2590.0 1.0003e-05
2610.0 1.04e-05
2630.0 1.108e-05
2650.0 1.1995e-05
2670.0 1.3153e-05
2690.0 1.449e-05
2710.0 1.5766e-05
2730.0 1.6838e-05
2750.0 1.7659e-05
2770.0 1.8032e-05
2790.0 1.79e-05
2810.0 1.7287e-05
2830.0 1.6171e-05
2850.0 1.4696e-05
2870.0 1.2946e-05
2890.0 1.0935e-05
2910.0 8.7734e-06
2930.0 6.5876e-06
2950.0 4.2726e-06
2970.0 1.8633e-06
2990.0 7.1713e-07
3010.0 1.3398e-06
3030.0 1.3398e-06
3050.0 1.3398e-06
3070.0 1.3398e-06
3090.0 1.3398e-06
3110.0 1.3398e-06
3130.0 1.3398e-06
3150.0 1.3398e-06
3170.0 1.3398e-06
3190.0 1.3398e-06
3210.0 8.718e-06
3230.0 7.5869e-05
3250.0 0.00012156
3270.0 0.00010959
3290.0 9.1535e-05
3310.0 6.9087e-05
3330.0 6.5556e-05
3350.0 7.15e-05
3370.0 8.0732e-05
3390.0 9.0658e-05
3410.0 0.00010129
3430.0 0.0001155
3450.0 0.00012904
3470.0 0.00014297
3490.0 0.00014596
3510.0 0.0001254
3530.0 0.00011514
3550.0 0.0001356
3570.0 0.00015719
3590.0 0.00017305
3610.0 0.00017351
3630.0 0.00020176
3650.0 0.00021275
3670.0 0.00022201
3690.0 0.000235
3710.0 0.00023653
3730.0 0.00024458
3750.0 0.00024328
3770.0 0.00024221
3790.0 0.00023321
3810.0 0.0002191
3830.0 0.0002074
3850.0 0.00012997
3870.0 0.00013727
3890.0 0.00015719
3910.0 0.00020679
3930.0 0.00026773
3950.0 0.00029006
3970.0 0.00031122
3990.0 0.00036096
4010.0 0.00034004
4030.0 0.00030084
4050.0 0.00021541
4070.0 0.00018941
4090.0 0.00025368
4110.0 0.00026748
4130.0 0.00029119
4150.0 0.00028426
4170.0 0.00026896
4190.0 0.00024631
4210.0 0.00030301
4230.0 0.00032436
4250.0 0.00035171
4270.0 0.00034084
4290.0 0.00033015
4310.0 0.00034611
4330.0 0.00040153
4350.0 0.00043456
4370.0 0.00043903
4390.0 0.00040612
4410.0 0.00036978
4430.0 0.00028916
4450.0 0.00023218
4470.0 0.00024197
4490.0 0.00027865
4510.0 0.00029352
4530.0 0.00029381
4550.0 0.00029516
4570.0 0.00041432
4590.0 0.00061771
4610.0 0.00072953
4630.0 0.00074956
4650.0 0.00082309
4670.0 0.00096344
4690.0 0.0010308
4710.0 0.00087154
4730.0 0.00066684
4750.0 0.00051739
4770.0 0.00043787
4790.0 0.00039437
4810.0 0.0003732
4830.0 0.00041324
4850.0 0.00049617
4870.0 0.00054975
4890.0 0.00057028
4910.0 0.00054916
4930.0 0.00060218
4950.0 0.00072515
4970.0 0.00082664
4990.0 0.00084769
5010.0 0.00077576
5030.0 0.0006418
5050.0 0.00050033
5070.0 0.00040592
5090.0 0.00037063
5110.0 0.00036759
5130.0 0.00037386
5150.0 0.00036978
5170.0 0.00034497
5190.0 0.00032407
5210.0 0.00032526
5230.0 0.00037577
5250.0 0.00046171
5270.0 0.00056012
5290.0 0.00063884
5310.0 0.0006969
5330.0 0.00078609
5350.0 0.000881
5370.0 0.0009108
5390.0 0.00083741
5410.0 0.00075962
5430.0 0.0007637
5450.0 0.00090346
5470.0 0.0011172
5490.0 0.0013013
5510.0 0.0013944
5530.0 0.0013975
5550.0 0.0013607
5570.0 0.0013328
5590.0 0.0013019
5610.0 0.0012946
5630.0 0.0013145
5650.0 0.0013425
5670.0 0.0013242
5690.0 0.0012112
5710.0 0.001053
5730.0 0.00096706
5750.0 0.00095265
5770.0 0.000997
5790.0 0.0010478
5810.0 0.001098
5830.0 0.0011306
5850.0 0.0011058
5870.0 0.0010732
5890.0 0.0010794
5910.0 0.001141
5930.0 0.0011977
5950.0 0.0011493
5970.0 0.0010305
5990.0 0.00086413
6010.0 0.00071236
6030.0 0.00066628
6050.0 0.00072497
6070.0 0.00076633
6090.0 0.00072125
6110.0 0.00064019
6130.0 0.00065976
6150.0 0.00076473
6170.0 0.00086876
6190.0 0.00094096
6210.0 0.00095736
6230.0 0.00094469
6250.0 0.00086049
6270.0 0.00071633
6290.0 0.00059138
6310.0 0.00052973
6330.0 0.00052193
6350.0 0.00053091
6370.0 0.00054496
6390.0 0.00062293
6410.0 0.00077609
6430.0 0.00093846
6450.0 0.0010324
6470.0 0.0010608
6490.0 0.001062
6510.0 0.0010797
6530.0 0.0011037
6550.0 0.0011045
6570.0 0.0011442
6590.0 0.0011764
6610.0 0.0011913
6630.0 0.0011588
6650.0 0.0010747
6670.0 0.00098158
6690.0 0.00090437
6710.0 0.00086125
6730.0 0.00084097
6750.0 0.00084454
6770.0 0.0008675
6790.0 0.00089904
6810.0 0.000919
6830.0 0.00090285
6850.0 0.00085605
6870.0 0.00080225
6890.0 0.00078384
6910.0 0.00076929
6930.0 0.00079578
6950.0 0.00083521
6970.0 0.00085629
6990.0 0.00086835
7010.0 0.00084116
7030.0 0.0007727
7050.0 0.0006856
7070.0 0.00062017
7090.0 0.00059195
7110.0 0.00058978
7130.0 0.00056637
7150.0 0.00050234
7170.0 0.0004802
7190.0 0.00053176
7210.0 0.00061946
7230.0 0.00070841
7250.0 0.00074336
7270.0 0.00073003
7290.0 0.00067612
7310.0 0.00062841
7330.0 0.00060926
7350.0 0.00061336
7370.0 0.00062395
7390.0 0.00065511
7410.0 0.00072758
7430.0 0.0008343
7450.0 0.00093196
7470.0 0.0009736
7490.0 0.00094091
7510.0 0.00086742
7530.0 0.00076673
7550.0 0.00069805
7570.0 0.00062523
7590.0 0.00058646
7610.0 0.00059092
7630.0 0.00062509
7650.0 0.00067906
7670.0 0.00073667
7690.0 0.00077802
7710.0 0.00081564
7730.0 0.00085127
7750.0 0.00087859
7770.0 0.00086565
7790.0 0.00086392
7810.0 0.0008653
7830.0 0.00084445
7850.0 0.00080781
7870.0 0.00077888
7890.0 0.00077976
7910.0 0.0007601
7930.0 0.00073969
7950.0 0.00069687
7970.0 0.0006683
7990.0 0.00063684
8010.0 0.00062934
8030.0 0.00062803
8050.0 0.00062503
8070.0 0.00061181
8090.0 0.00060177
8110.0 0.00057799
8130.0 0.00057271
8150.0 0.00056156
8170.0 0.00054338
8190.0 0.00052623
8210.0 0.00051657
8230.0 0.00050027
8250.0 0.00048871
8270.0 0.00044389
8290.0 0.00036393
8310.0 0.00027609
8330.0 0.00021618
8350.0 0.00020229
8370.0 0.000237
8390.0 0.00028242
8410.0 0.00030109
8430.0 0.00030577
8450.0 0.00032017
8470.0 0.00034212
8490.0 0.00038021
8510.0 0.00042916
8530.0 0.00048509
8550.0 0.00053349
8570.0 0.00057057
8590.0 0.00059721
8610.0 0.0006092
8630.0 0.00060347
8650.0 0.00059161
8670.0 0.00058754
8690.0 0.00061429
8710.0 0.00065155
8730.0 0.00067245
8750.0 0.00066529
8770.0 0.00067005
8790.0 0.00066393
8810.0 0.00062133
8830.0 0.0005783
8850.0 0.00052417
8870.0 0.00048083
8890.0 0.00046544
8910.0 0.00046127
8930.0 0.00043197
8950.0 0.00039865
8970.0 0.00038332
8990.0 0.00037853
9010.0 0.00036398
9030.0 0.00035596
9050.0 0.00035278
9070.0 0.00035131
9090.0 0.00035004
9110.0 0.00034882
9130.0 0.0003476
9150.0 0.0003464
9170.0 0.00034509
9190.0 0.00034416
9210.0 0.00034433
9230.0 0.0003426
9250.0 0.00034114
9270.0 0.00033983
9290.0 0.00033864
9310.0 0.00033749
9330.0 0.00033638
9350.0 0.00033535
9370.0 0.00033433
9390.0 0.00033329
9410.0 0.0003323
9430.0 0.00033126
9450.0 0.00032977
9470.0 0.00032845
9490.0 0.00032796
9510.0 0.00032723
9530.0 0.00032644
9550.0 0.00032561
9570.0 0.00032475
9590.0 0.00032388
9610.0 0.00032301
9630.0 0.00032214
9650.0 0.00032127
9670.0 0.00032041
9690.0 0.00031955
9710.0 0.0003187
9730.0 0.00031785
9750.0 0.000317
9770.0 0.00031616
9790.0 0.00031532
9810.0 0.00031448
9830.0 0.00031365
9850.0 0.00031281
9870.0 0.00031197
9890.0 0.00031113
9910.0 0.00031028
9930.0 0.0003094
9950.0 0.00030638
9970.0 0.00030616
9990.0 0.0003058
10010.0 0.00030539
10030.0 0.00030478
10050.0 0.00030401
10070.0 0.00030322
10090.0 0.00030242
10110.0 0.00030145
10130.0 0.00030047
10150.0 0.00029958
10170.0 0.00029862
10190.0 0.00029756
10210.0 0.00029659
10230.0 0.00029563
10250.0 0.00029456
10270.0 0.00029348
10290.0 0.00029248
10310.0 0.00029136
10330.0 0.00029015
10350.0 0.00028903
10370.0 0.0002879
10390.0 0.00028665
10410.0 0.0002854
10430.0 0.00028423
10450.0 0.00028295
10470.0 0.00028158
10490.0 0.00028028
10510.0 0.00027896
10530.0 0.00027746
10550.0 0.000276
10570.0 0.00027461
10590.0 0.0002731
10610.0 0.0002715
10630.0 0.00027
10650.0 0.00026844
10670.0 0.00026672
10690.0 0.00026503
10710.0 0.00026338
10730.0 0.0002616
10750.0 0.0002597
10770.0 0.00025795
10790.0 0.00025612
10810.0 0.00025415
10830.0 0.00025221
10850.0 0.00025032
10870.0 0.00024821
10890.0 0.00024606
10910.0 0.00024397
10930.0 0.00024179
10950.0 0.00023943
10970.0 0.00023705
10990.0 0.00023471
11010.0 0.00025161
11030.0 0.00024884
11050.0 0.00024616
11070.0 0.00024341
11090.0 0.00024046
11110.0 0.00023774
11130.0 0.0002351
11150.0 0.00023238
11170.0 0.0002297
11190.0 0.0002272
11210.0 0.00022464
11230.0 0.00022202
11250.0 0.00021952
11270.0 0.00021709
11290.0 0.00021454
11310.0 0.00021201
11330.0 0.00020965
11350.0 0.00020721
11370.0 0.0002047
11390.0 0.00020224
11410.0 0.00019977
11430.0 0.00019707
11450.0 0.00019432
11470.0 0.00019154
11490.0 0.00018855
11510.0 0.00018531
11530.0 0.00018205
11550.0 0.00017868
11570.0 0.00017502
11590.0 0.00017127
11610.0 0.00016754
11630.0 0.0001636
11650.0 0.00015951
11670.0 0.00015559
11690.0 0.00015169
11710.0 0.0001477
11730.0 0.00014382
11750.0 0.00014017
11770.0 0.00013648
11790.0 0.00013286
11810.0 0.00012946
11830.0 0.00012618
11850.0 0.00012285
11870.0 0.00011972
11890.0 0.0001168
11910.0 0.00011388
11930.0 0.00011104
11950.0 0.00010839
11970.0 0.00010581
11990.0 0.00010323
12010.0 0.00010082
12030.0 9.8556e-05
12050.0 9.6343e-05
12070.0 9.4217e-05
12090.0 9.2332e-05
12110.0 9.056e-05
12130.0 8.8904e-05
12150.0 8.7446e-05
12170.0 8.6188e-05
12190.0 8.5061e-05
12210.0 8.4146e-05
12230.0 8.3448e-05
12250.0 8.2938e-05
12270.0 8.2631e-05
12290.0 8.2521e-05
12310.0 8.2581e-05
12330.0 8.2837e-05
12350.0 8.3265e-05
12370.0 8.3813e-05
12390.0 8.4508e-05
12410.0 8.5391e-05
12430.0 8.6313e-05
12450.0 8.7299e-05
12470.0 8.8399e-05
12490.0 8.9543e-05
12510.0 9.0637e-05
12530.0 9.1775e-05
12550.0 9.292e-05
12570.0 9.3957e-05
12590.0 9.4893e-05
12610.0 9.5769e-05
12630.0 9.6492e-05
12650.0 9.6985e-05
12670.0 9.732e-05
12690.0 9.7457e-05
12710.0 9.7357e-05
12730.0 9.704e-05
12750.0 9.6503e-05
12770.0 9.5743e-05
12790.0 9.48e-05
12810.0 9.3672e-05
12830.0 9.2366e-05
12850.0 9.0977e-05
12870.0 8.9506e-05
12890.0 8.7934e-05
12910.0 8.6342e-05
12930.0 8.478e-05
12950.0 8.3186e-05
12970.0 8.1601e-05
12990.0 8.0114e-05
13010.0 7.8673e-05
13030.0 7.7253e-05
13050.0 7.5902e-05
13070.0 7.4636e-05
13090.0 7.3379e-05
13110.0 7.2154e-05
13130.0 7.0994e-05
13150.0 6.986e-05
13170.0 6.8712e-05
13190.0 6.7614e-05
13210.0 6.6562e-05
13230.0 6.5508e-05
13250.0 6.4475e-05
13270.0 6.3504e-05
13290.0 6.2563e-05
13310.0 6.1644e-05
13330.0 6.0804e-05
13350.0 6.0038e-05
13370.0 5.9329e-05
13390.0 5.8696e-05
13410.0 5.8163e-05
13430.0 5.7698e-05
13450.0 5.7298e-05
13470.0 5.6963e-05
13490.0 5.6673e-05
13510.0 5.6409e-05
13530.0 5.6156e-05
13550.0 5.5896e-05
13570.0 5.5612e-05
13590.0 5.5284e-05
13610.0 5.491e-05
13630.0 5.449e-05
13650.0 5.4002e-05
13670.0 5.346e-05
13690.0 5.2886e-05
13710.0 5.2269e-05
13730.0 5.1601e-05
13750.0 5.0952e-05
13770.0 5.031e-05
13790.0 4.9668e-05
13810.0 4.9055e-05
13830.0 4.8498e-05
13850.0 4.7967e-05
13870.0 4.7474e-05
13890.0 4.704e-05
13910.0 4.6652e-05
13930.0 4.6293e-05
13950.0 4.5971e-05
13970.0 4.5687e-05
13990.0 4.5416e-05
14010.0 4.5154e-05
14030.0 4.4901e-05
14050.0 4.4647e-05
14070.0 4.4372e-05
14090.0 4.4085e-05
14110.0 4.3784e-05
14130.0 4.3454e-05
14150.0 4.3091e-05
14170.0 4.2719e-05
14190.0 4.2327e-05
14210.0 4.1905e-05
14230.0 4.1477e-05
14250.0 4.1058e-05
14270.0 4.0628e-05
14290.0 4.0203e-05
14310.0 3.982e-05
14330.0 3.9463e-05
14350.0 3.9132e-05
14370.0 3.8849e-05
14390.0 3.8618e-05
14410.0 3.8421e-05
14430.0 3.8269e-05
14450.0 3.8164e-05
14470.0 3.8094e-05
14490.0 3.8056e-05
14510.0 3.805e-05
14530.0 3.8067e-05
14550.0 3.8107e-05
14570.0 3.8169e-05
14590.0 3.8251e-05
14610.0 3.8358e-05
14630.0 3.8499e-05
14650.0 3.8671e-05
14670.0 3.8879e-05
14690.0 3.9139e-05
14710.0 3.9455e-05
14730.0 3.9807e-05
14750.0 4.0223e-05
14770.0 4.071e-05
14790.0 4.1249e-05
14810.0 4.184e-05
14830.0 4.2536e-05
14850.0 4.3298e-05
14870.0 4.4102e-05
14890.0 4.4982e-05
14910.0 4.5934e-05
14930.0 4.688e-05
14950.0 4.7797e-05
14970.0 4.8701e-05
14990.0 4.9506e-05
15010.0 5.0176e-05
15030.0 5.0732e-05
15050.0 5.1174e-05
15070.0 5.149e-05
15090.0 5.1729e-05
15110.0 5.1917e-05
15130.0 5.207e-05
15150.0 5.2206e-05
15170.0 5.2334e-05
15190.0 5.246e-05
15210.0 5.2587e-05
15230.0 5.2716e-05
15250.0 5.2847e-05
15270.0 5.298e-05
15290.0 5.3117e-05
15310.0 5.3255e-05
15330.0 5.3396e-05
15350.0 5.354e-05
15370.0 5.3686e-05
15390.0 5.3834e-05
15410.0 5.3984e-05
15430.0 5.4137e-05
15450.0 5.4292e-05
15470.0 5.4448e-05
15490.0 5.4607e-05
15510.0 5.4769e-05
15530.0 5.4931e-05
15550.0 5.5096e-05
15570.0 5.5263e-05
15590.0 5.5432e-05
15610.0 5.5602e-05
15630.0 5.5774e-05
15650.0 5.5948e-05
15670.0 5.6123e-05
15690.0 5.6299e-05
15710.0 5.6478e-05
15730.0 5.6657e-05
15750.0 5.6838e-05
15770.0 5.7021e-05
15790.0 5.7204e-05
15810.0 5.7388e-05
15830.0 5.7574e-05
15850.0 5.7761e-05
15870.0 5.7949e-05
15890.0 5.8137e-05
15910.0 5.8327e-05
15930.0 5.8517e-05
15950.0 5.8707e-05
15970.0 5.8899e-05
15990.0 5.9091e-05
16010.0 5.9283e-05
16030.0 5.9476e-05
16050.0 5.967e-05
16070.0 5.9863e-05
16090.0 6.0057e-05
16110.0 6.025e-05
16130.0 6.0445e-05
16150.0 6.0638e-05
16170.0 6.0831e-05
16190.0 6.1025e-05
16210.0 6.1218e-05
16230.0 6.1411e-05
16250.0 6.1603e-05
16270.0 6.1795e-05
16290.0 6.1986e-05
16310.0 6.2177e-05
16330.0 6.2367e-05
16350.0 6.2556e-05
16370.0 6.2743e-05
16390.0 6.2931e-05
16410.0 6.3117e-05
16430.0 6.3301e-05
16450.0 6.3485e-05
16470.0 6.3667e-05
16490.0 6.3848e-05
16510.0 6.4027e-05
16530.0 6.4205e-05
16550.0 6.4381e-05
16570.0 6.4555e-05
16590.0 6.4727e-05
16610.0 6.4898e-05
16630.0 6.5066e-05
16650.0 6.5232e-05
16670.0 6.5397e-05
16690.0 6.5559e-05
16710.0 6.5718e-05
16730.0 6.5875e-05
16750.0 6.603e-05
16770.0 6.6182e-05
16790.0 6.6331e-05
16810.0 6.6478e-05
16830.0 6.6622e-05
16850.0 6.6763e-05
16870.0 6.6901e-05
16890.0 6.7036e-05
16910.0 6.7168e-05
16930.0 6.7296e-05
16950.0 6.7421e-05
16970.0 6.7544e-05
16990.0 6.7662e-05
17010.0 6.7777e-05
17030.0 6.7889e-05
17050.0 6.7997e-05
17070.0 6.8101e-05
17090.0 6.8202e-05
17110.0 6.8298e-05
17130.0 6.8391e-05
17150.0 6.848e-05
17170.0 6.8565e-05
17190.0 6.8646e-05
17210.0 6.8722e-05
17230.0 6.8795e-05
17250.0 6.8864e-05
17270.0 6.8927e-05
17290.0 6.8987e-05
17310.0 6.9043e-05
17330.0 6.9094e-05
17350.0 6.914e-05
17370.0 6.9183e-05
17390.0 6.9221e-05
17410.0 6.9254e-05
17430.0 6.9283e-05
17450.0 6.9307e-05
17470.0 6.9326e-05
17490.0 6.9341e-05
17510.0 6.9351e-05
17530.0 6.9356e-05
17550.0 6.9357e-05
17570.0 6.9353e-05
17590.0 6.9344e-05
17610.0 6.933e-05
17630.0 6.9312e-05
17650.0 6.9289e-05
17670.0 6.9261e-05
17690.0 6.9227e-05
17710.0 6.919e-05
17730.0 6.9148e-05
17750.0 6.91e-05
17770.0 6.9048e-05
17790.0 6.8992e-05
17810.0 6.893e-05
17830.0 6.8863e-05
17850.0 6.8792e-05
17870.0 6.8716e-05
17890.0 6.8635e-05
17910.0 6.855e-05
17930.0 6.846e-05
17950.0 6.8365e-05
17970.0 6.8266e-05
17990.0 6.8162e-05
18010.0 6.8054e-05
18030.0 6.794e-05
18050.0 6.7822e-05
18070.0 6.7701e-05
18090.0 6.7574e-05
18110.0 6.7443e-05
18130.0 6.7308e-05
18150.0 6.7168e-05
18170.0 6.7024e-05
18190.0 6.6876e-05
18210.0 6.6724e-05
18230.0 6.6568e-05
18250.0 6.6407e-05
18270.0 6.6243e-05
18290.0 6.6074e-05
18310.0 6.5901e-05
18330.0 6.5725e-05
18350.0 6.5546e-05
18370.0 6.5362e-05
18390.0 6.5174e-05
18410.0 6.4983e-05
18430.0 6.4789e-05
18450.0 6.459e-05
18470.0 6.4389e-05
18490.0 6.4184e-05
18510.0 6.3976e-05
18530.0 6.3764e-05
18550.0 6.355e-05
18570.0 6.3333e-05
18590.0 6.3112e-05
18610.0 6.2888e-05
18630.0 6.2662e-05
18650.0 6.2432e-05
18670.0 6.22e-05
18690.0 6.1966e-05
18710.0 6.1729e-05
18730.0 6.1489e-05
18750.0 6.1247e-05
18770.0 6.1003e-05
18790.0 6.0755e-05
18810.0 6.0506e-05
18830.0 6.0255e-05
18850.0 6.0002e-05
18870.0 5.9747e-05
18890.0 5.949e-05
18910.0 5.9231e-05
18930.0 5.897e-05
18950.0 5.8707e-05
18970.0 5.8444e-05
18990.0 5.8178e-05
19010.0 5.791e-05
19030.0 5.7642e-05
19050.0 5.7373e-05
19070.0 5.7101e-05
19090.0 5.6829e-05
19110.0 5.6556e-05
19130.0 5.6281e-05
19150.0 5.6005e-05
19170.0 5.5729e-05
19190.0 5.5452e-05
19210.0 5.5174e-05
19230.0 5.4895e-05
19250.0 5.4616e-05
19270.0 5.4336e-05
19290.0 5.4056e-05
19310.0 5.3775e-05
19330.0 5.3494e-05
19350.0 5.3212e-05
19370.0 5.293e-05
19390.0 5.2648e-05
19410.0 5.2366e-05
19430.0 5.2083e-05
19450.0 5.1801e-05
19470.0 5.1519e-05
19490.0 5.1237e-05
19510.0 5.0955e-05
19530.0 5.0673e-05
19550.0 5.0391e-05
19570.0 5.011e-05
19590.0 4.9829e-05
19610.0 4.9549e-05
19630.0 4.9268e-05
19650.0 4.8989e-05
19670.0 4.871e-05
19690.0 4.8431e-05
19710.0 4.8153e-05
19730.0 4.7877e-05
19750.0 4.76e-05
19770.0 4.7324e-05
19790.0 4.7049e-05
19810.0 4.6775e-05
19830.0 4.65e-05
19850.0 4.6225e-05
19870.0 4.5946e-05
19890.0 4.5659e-05
19910.0 4.5354e-05
19930.0 4.5024e-05
19950.0 4.4655e-05
19970.0 4.4224e-05
19990.0 4.3719e-05
20010.0 4.3151e-05
20030.0 4.2493e-05
20050.0 4.1751e-05
20070.0 4.0964e-05
20090.0 4.014e-05
20110.0 3.9252e-05
20130.0 3.8374e-05
20150.0 3.7521e-05
20170.0 3.6664e-05
20190.0 3.5817e-05
20210.0 3.5021e-05
20230.0 3.4252e-05
20250.0 3.349e-05
20270.0 3.2772e-05
20290.0 3.21e-05
20310.0 3.1447e-05
20330.0 3.0814e-05
20350.0 3.0243e-05
20370.0 2.9698e-05
20390.0 2.9174e-05
20410.0 2.8687e-05
20430.0 2.8239e-05
20450.0 2.7803e-05
20470.0 2.7398e-05
20490.0 2.7027e-05
20510.0 2.6681e-05
20530.0 2.6353e-05
20550.0 2.6054e-05
20570.0 2.5782e-05
20590.0 2.5527e-05
20610.0 2.5292e-05
20630.0 2.5078e-05
20650.0 2.4881e-05
20670.0 2.4697e-05
20690.0 2.453e-05
20710.0 2.4374e-05
20730.0 2.4229e-05
20750.0 2.4092e-05
20770.0 2.3962e-05
20790.0 2.3836e-05
20810.0 2.3713e-05
20830.0 2.3592e-05
20850.0 2.347e-05
20870.0 2.3346e-05
20890.0 2.3219e-05
20910.0 2.3088e-05
20930.0 2.2951e-05
20950.0 2.2808e-05
20970.0 2.2658e-05
20990.0 2.2502e-05
21010.0 2.2336e-05
21030.0 2.2163e-05
21050.0 2.1983e-05
21070.0 2.1796e-05
21090.0 2.1598e-05
21110.0 2.1397e-05
21130.0 2.1192e-05
21150.0 2.0977e-05
21170.0 2.0759e-05
21190.0 2.0542e-05
21210.0 2.0316e-05
21230.0 2.0086e-05
21250.0 1.986e-05
21270.0 1.9633e-05
21290.0 1.9402e-05
21310.0 1.9173e-05
21330.0 1.8952e-05
21350.0 1.8729e-05
21370.0 1.8508e-05
21390.0 1.8296e-05
21410.0 1.809e-05
21430.0 1.7884e-05
21450.0 1.7689e-05
21470.0 1.7506e-05
21490.0 1.733e-05
21510.0 1.7163e-05
21530.0 1.701e-05
21550.0 1.6867e-05
21570.0 1.6733e-05
21590.0 1.6613e-05
21610.0 1.6505e-05
21630.0 1.6409e-05
21650.0 1.6324e-05
21670.0 1.625e-05
21690.0 1.6187e-05
21710.0 1.6134e-05
21730.0 1.6089e-05
21750.0 1.6051e-05
21770.0 1.6022e-05
21790.0 1.5999e-05
21810.0 1.5978e-05
21830.0 1.5961e-05
21850.0 1.5948e-05
21870.0 1.5934e-05
21890.0 1.5919e-05
21910.0 1.5904e-05
21930.0 1.5887e-05
21950.0 1.5866e-05
21970.0 1.5841e-05
21990.0 1.5815e-05
22010.0 1.5781e-05
22030.0 1.5743e-05
22050.0 1.5701e-05
22070.0 1.5655e-05
22090.0 1.5603e-05
22110.0 1.5547e-05
22130.0 1.5488e-05
22150.0 1.5424e-05
22170.0 1.5358e-05
22190.0 1.5289e-05
22210.0 1.5216e-05
22230.0 1.5142e-05
22250.0 1.5065e-05
22270.0 1.4985e-05
22290.0 1.4902e-05
22310.0 1.4817e-05
22330.0 1.4727e-05
22350.0 1.4632e-05
22370.0 1.4534e-05
22390.0 1.4429e-05
22410.0 1.4315e-05
22430.0 1.4197e-05
22450.0 1.4072e-05
22470.0 1.3935e-05
22490.0 1.3791e-05
22510.0 1.3641e-05
22530.0 1.3479e-05
22550.0 1.3305e-05
22570.0 1.3129e-05
22590.0 1.2945e-05
22610.0 1.2752e-05
22630.0 1.2555e-05
22650.0 1.2361e-05
22670.0 1.216e-05
22690.0 1.1957e-05
