#lamb flux
1010.0 2.7676e-07
1030.0 2.8845e-07
1050.0 3.0203e-07
1070.0 3.1734e-07
1090.0 3.3476e-07
1110.0 3.5271e-07
1130.0 3.7087e-07
1150.0 3.9e-07
1170.0 4.0984e-07
1190.0 4.2882e-07
1210.0 4.482e-07
1230.0 4.6835e-07
1250.0 4.883e-07
1270.0 5.0787e-07
1290.0 5.2869e-07
1310.0 5.497e-07
1330.0 5.7011e-07
1350.0 5.9097e-07
1370.0 6.1269e-07
1390.0 6.3416e-07
1410.0 6.553e-07
1430.0 6.7756e-07
1450.0 7.0008e-07
1470.0 7.222e-07
1490.0 7.4477e-07
1510.0 7.687e-07
1530.0 7.9177e-07
1550.0 8.1478e-07
1570.0 8.3865e-07
1590.0 8.627e-07
1610.0 8.8595e-07
1630.0 9.099e-07
1650.0 9.3443e-07
1670.0 9.5826e-07
1690.0 9.8177e-07
1710.0 1.006e-06
1730.0 1.0301e-06
1750.0 1.0527e-06
1770.0 1.0756e-06
1790.0 1.0986e-06
1810.0 1.1205e-06
1830.0 1.1416e-06
1850.0 1.1634e-06
1870.0 1.1841e-06
1890.0 1.2035e-06
1910.0 1.2226e-06
1930.0 1.2416e-06
1950.0 1.2589e-06
1970.0 1.2754e-06
1990.0 1.2919e-06
2010.0 1.3075e-06
2030.0 1.3217e-06
2050.0 1.336e-06
2070.0 1.3504e-06
2090.0 1.3632e-06
2110.0 1.3757e-06
2130.0 1.3886e-06
2150.0 1.401e-06
2170.0 1.4127e-06
2190.0 1.4254e-06
2210.0 1.4385e-06
2230.0 1.4514e-06
2250.0 1.4649e-06
2270.0 1.4801e-06
2290.0 1.4958e-06
2310.0 1.5119e-06
2330.0 1.5299e-06
2350.0 1.5497e-06
2370.0 1.5704e-06
2390.0 1.5932e-06
2410.0 1.6189e-06
2430.0 1.6463e-06
2450.0 1.6755e-06
2470.0 1.7074e-06
2490.0 1.7418e-06
2510.0 1.7778e-06
2530.0 1.8191e-06
2550.0 1.8714e-06
2570.0 1.9427e-06
2590.0 2.0437e-06
2610.0 2.1994e-06
2630.0 2.4235e-06
2650.0 2.7139e-06
2670.0 3.0807e-06
2690.0 3.5221e-06
2710.0 3.9945e-06
2730.0 4.4739e-06
2750.0 4.9687e-06
2770.0 5.4459e-06
2790.0 5.8934e-06
2810.0 6.3333e-06
2830.0 6.7849e-06
2850.0 7.2269e-06
2870.0 7.6814e-06
2890.0 8.1666e-06
2910.0 8.6747e-06
2930.0 9.1932e-06
2950.0 9.7467e-06
2970.0 1.0332e-05
2990.0 1.0929e-05
3010.0 2.0015e-05
3030.0 2.1132e-05
3050.0 2.2254e-05
3070.0 2.3299e-05
3090.0 2.4225e-05
3110.0 2.4836e-05
3130.0 2.4893e-05
3150.0 2.4125e-05
3170.0 2.1992e-05
3190.0 1.8409e-05
3210.0 1.3407e-05
3230.0 7.7198e-06
3250.0 1.3534e-05
3270.0 5.8499e-06
3290.0 1.9594e-05
3310.0 3.8995e-06
3330.0 3.9783e-06
3350.0 6.0996e-06
3370.0 8.5154e-06
3390.0 1.1077e-05
3410.0 1.3628e-05
3430.0 1.6293e-05
3450.0 1.8949e-05
3470.0 2.1384e-05
3490.0 2.2979e-05
3510.0 2.8604e-05
3530.0 3.9178e-05
3550.0 3.9275e-05
3570.0 3.335e-05
3590.0 4.7791e-05
3610.0 3.0806e-05
3630.0 4.9665e-05
3650.0 5.6377e-05
3670.0 7.2472e-05
3690.0 6.9298e-05
3710.0 4.9453e-05
3730.0 6.6059e-05
3750.0 6.8691e-05
3770.0 7.0767e-05
3790.0 6.4021e-05
3810.0 5.6266e-05
3830.0 7.7797e-05
3850.0 8.3689e-05
3870.0 0.00010394
3890.0 9.8095e-05
3910.0 8.9059e-05
3930.0 9.6402e-05
3950.0 0.0001085
3970.0 0.0001415
3990.0 0.00011395
4010.0 7.5293e-05
4030.0 0.0001014
4050.0 0.00011091
4070.0 0.00012603
4090.0 0.00011061
4110.0 7.5642e-05
4130.0 9.9721e-05
4150.0 9.1665e-05
4170.0 9.7138e-05
4190.0 9.6663e-05
4210.0 0.00012005
4230.0 8.3968e-05
4250.0 0.00010033
4270.0 0.00010022
4290.0 0.00010133
4310.0 0.00012342
4330.0 0.00012657
4350.0 9.8154e-05
4370.0 8.4996e-05
4390.0 0.00010312
4410.0 0.00010505
4430.0 8.1178e-05
4450.0 8.1675e-05
4470.0 9.4651e-05
4490.0 7.0635e-05
4510.0 8.5977e-05
4530.0 9.2847e-05
4550.0 0.00012413
4570.0 0.00018177
4590.0 0.00017653
4610.0 0.00011812
4630.0 0.00018779
4650.0 0.00026872
4670.0 0.00024857
4690.0 0.00014771
4710.0 0.00015959
4730.0 0.00020619
4750.0 0.00018431
4770.0 0.00013959
4790.0 9.652e-05
4810.0 0.00013931
4830.0 0.00016069
4850.0 0.00014363
4870.0 5.208e-05
4890.0 0.00015418
4910.0 0.00021376
4930.0 0.00022924
4950.0 0.00022611
4970.0 0.00014276
4990.0 0.00016379
5010.0 0.00019032
5030.0 0.00020678
5050.0 0.00020381
5070.0 0.00014745
5090.0 0.00012103
5110.0 0.0001132
5130.0 0.00010097
5150.0 0.00011541
5170.0 0.00010061
5190.0 0.00012459
5210.0 0.00012472
5230.0 0.00013707
5250.0 0.00017459
5270.0 0.00014899
5290.0 0.00014698
5310.0 0.00021544
5330.0 0.00025065
5350.0 0.00021308
5370.0 0.00018704
5390.0 0.00021273
5410.0 0.00026709
5430.0 0.00029536
5450.0 0.0003182
5470.0 0.0003223
5490.0 0.00031771
5510.0 0.00037256
5530.0 0.00038812
5550.0 0.00041708
5570.0 0.00044412
5590.0 0.00044241
5610.0 0.0004215
5630.0 0.00040898
5650.0 0.00041874
5670.0 0.00041654
5690.0 0.00035818
5710.0 0.00034523
5730.0 0.00035068
5750.0 0.00038394
5770.0 0.00033545
5790.0 0.00030925
5810.0 0.00031524
5830.0 0.00033275
5850.0 0.0003062
5870.0 0.00030961
5890.0 0.00036919
5910.0 0.00035423
5930.0 0.00029314
5950.0 0.00025648
5970.0 0.00027542
5990.0 0.00025553
6010.0 0.00024162
6030.0 0.00024733
6050.0 0.00023203
6070.0 0.00017562
6090.0 0.00015797
6110.0 0.00020325
6130.0 0.00023415
6150.0 0.00024642
6170.0 0.00024039
6190.0 0.00022645
6210.0 0.00022189
6230.0 0.00025641
6250.0 0.00023702
6270.0 0.00021676
6290.0 0.00019917
6310.0 0.0001884
6330.0 0.00017927
6350.0 0.00015714
6370.0 0.00015613
6390.0 0.00018503
6410.0 0.00022981
6430.0 0.00026389
6450.0 0.00024886
6470.0 0.00024419
6490.0 0.00030404
6510.0 0.00034783
6530.0 0.00032954
6550.0 0.0003172
6570.0 0.00032209
6590.0 0.00031206
6610.0 0.00033897
6630.0 0.00031918
6650.0 0.00028288
6670.0 0.00025498
6690.0 0.00024691
6710.0 0.00030151
6730.0 0.00027728
6750.0 0.00023873
6770.0 0.0002153
6790.0 0.00022564
6810.0 0.00024955
6830.0 0.00024358
6850.0 0.00022172
6870.0 0.00022898
6890.0 0.00022483
6910.0 0.00021226
6930.0 0.00024316
6950.0 0.00022562
6970.0 0.00021162
6990.0 0.00021139
7010.0 0.00020233
7030.0 0.00019056
7050.0 0.00018381
7070.0 0.00019857
7090.0 0.00018816
7110.0 0.00016328
7130.0 0.00013224
7150.0 0.00012004
7170.0 0.00015895
7190.0 0.00017322
7210.0 0.00016755
7230.0 0.00017438
7250.0 0.00016255
7270.0 0.00015485
7290.0 0.00017114
7310.0 0.00019065
7330.0 0.00018711
7350.0 0.00017566
7370.0 0.00016795
7390.0 0.00017596
7410.0 0.00020509
7430.0 0.00022429
7450.0 0.00023884
7470.0 0.00023485
7490.0 0.00024116
7510.0 0.00023114
7530.0 0.00023062
7550.0 0.00022697
7570.0 0.00019949
7590.0 0.00019704
7610.0 0.00019096
7630.0 0.00017746
7650.0 0.00019426
7670.0 0.00021152
7690.0 0.00022909
7710.0 0.0002547
7730.0 0.0002707
7750.0 0.0002822
7770.0 0.00028155
7790.0 0.00030642
7810.0 0.0003155
7830.0 0.00029121
7850.0 0.00029257
7870.0 0.000278
7890.0 0.00028951
7910.0 0.00027386
7930.0 0.00027518
7950.0 0.00024383
7970.0 0.00024949
7990.0 0.00023874
8010.0 0.00023812
8030.0 0.00023662
8050.0 0.00024743
8070.0 0.00023818
8090.0 0.00023826
8110.0 0.00023174
8130.0 0.00023111
8150.0 0.00022082
8170.0 0.00021427
8190.0 0.00021117
8210.0 0.00021229
8230.0 0.00018869
8250.0 0.00017245
8270.0 0.00015099
8290.0 0.00012523
8310.0 0.00010661
8330.0 8.4855e-05
8350.0 7.1299e-05
8370.0 7.3402e-05
8390.0 7.5066e-05
8410.0 7.9526e-05
8430.0 9.6648e-05
8450.0 0.00010315
8470.0 0.00010874
8490.0 0.00012424
8510.0 0.00013519
8530.0 0.00015544
8550.0 0.00018337
8570.0 0.000204
8590.0 0.00021848
8610.0 0.00023789
8630.0 0.00026078
8650.0 0.00026445
8670.0 0.00026664
8690.0 0.00027633
8710.0 0.00027298
8730.0 0.00026981
8750.0 0.00025497
8770.0 0.00025461
8790.0 0.00025059
8810.0 0.00023088
8830.0 0.00022997
8850.0 0.00021554
8870.0 0.00020668
8890.0 0.00018898
8910.0 0.00020174
8930.0 0.00018445
8950.0 0.00018087
8970.0 0.00018086
8990.0 0.00017458
9010.0 0.0001772
9030.0 0.00017014
9050.0 0.0001692
9070.0 0.00016899
9090.0 0.00016875
9110.0 0.00016856
9130.0 0.00016826
9150.0 0.00016791
9170.0 0.00016716
9190.0 0.00016578
9210.0 0.00016766
9230.0 0.00016676
9250.0 0.00016612
9270.0 0.00016551
9290.0 0.00016493
9310.0 0.00016436
9330.0 0.00016379
9350.0 0.00016321
9370.0 0.00016262
9390.0 0.00016202
9410.0 0.0001614
9430.0 0.00016076
9450.0 0.0001601
9470.0 0.00015943
9490.0 0.00015877
9510.0 0.00015809
9530.0 0.0001574
9550.0 0.0001567
9570.0 0.00015599
9590.0 0.00015527
9610.0 0.00015454
9630.0 0.00015381
9650.0 0.00015308
9670.0 0.00015234
9690.0 0.0001516
9710.0 0.00015085
9730.0 0.00015011
9750.0 0.00014936
9770.0 0.00014861
9790.0 0.00014787
9810.0 0.00014712
9830.0 0.00014638
9850.0 0.00014564
9870.0 0.00014491
9890.0 0.00014417
9910.0 0.00014345
9930.0 0.00014272
9950.0 0.00014157
9970.0 0.00014099
9990.0 0.00014039
10010.0 0.00013978
10030.0 0.00013914
10050.0 0.00013846
10070.0 0.00013764
10090.0 0.00013705
10110.0 0.00013644
10130.0 0.00013582
10150.0 0.00013522
10170.0 0.0001346
10190.0 0.00013397
10210.0 0.00013336
10230.0 0.00013278
10250.0 0.00013218
10270.0 0.00013159
10290.0 0.00013104
10310.0 0.00013048
10330.0 0.00012991
10350.0 0.00012938
10370.0 0.00012886
10390.0 0.00012833
10410.0 0.00012782
10430.0 0.00012735
10450.0 0.00012686
10470.0 0.00012638
10490.0 0.00012592
10510.0 0.00012548
10530.0 0.00012502
10550.0 0.00012459
10570.0 0.00012418
10590.0 0.00012377
10610.0 0.00012337
10630.0 0.00012299
10650.0 0.00012262
10670.0 0.00012224
10690.0 0.00012189
10710.0 0.00012155
10730.0 0.00012121
10750.0 0.00012087
10770.0 0.00012056
10790.0 0.00012026
10810.0 0.00011996
10830.0 0.00011967
10850.0 0.00011939
10870.0 0.00011908
10890.0 0.00011874
10910.0 0.00011837
10930.0 0.0001179
10950.0 0.00011726
10970.0 0.00011641
10990.0 0.00011536
11010.0 0.00011328
11030.0 0.00011169
11050.0 0.00010984
11070.0 0.00010773
11090.0 0.00010529
11110.0 0.00010285
11130.0 0.00010041
11150.0 9.7876e-05
11170.0 9.5378e-05
11190.0 9.3059e-05
11210.0 9.0762e-05
11230.0 8.85e-05
11250.0 8.6423e-05
11270.0 8.4494e-05
11290.0 8.2607e-05
11310.0 8.0852e-05
11330.0 7.9326e-05
11350.0 7.7875e-05
11370.0 7.6505e-05
11390.0 7.5284e-05
11410.0 7.4164e-05
11430.0 7.3038e-05
11450.0 7.1984e-05
11470.0 7.0994e-05
11490.0 6.9983e-05
11510.0 6.8919e-05
11530.0 6.7881e-05
11550.0 6.6814e-05
11570.0 6.5642e-05
11590.0 6.4423e-05
11610.0 6.3194e-05
11630.0 6.1851e-05
11650.0 6.0409e-05
11670.0 5.8998e-05
11690.0 5.7555e-05
11710.0 5.6034e-05
11730.0 5.4529e-05
11750.0 5.3106e-05
11770.0 5.1646e-05
11790.0 5.0209e-05
11810.0 4.8881e-05
11830.0 4.7617e-05
11850.0 4.6349e-05
11870.0 4.5202e-05
11890.0 4.4172e-05
11910.0 4.3173e-05
11930.0 4.223e-05
11950.0 4.1392e-05
11970.0 4.0598e-05
11990.0 3.9812e-05
12010.0 3.9095e-05
12030.0 3.8433e-05
12050.0 3.7777e-05
12070.0 3.7133e-05
12090.0 3.6569e-05
12110.0 3.6022e-05
12130.0 3.5488e-05
12150.0 3.501e-05
12170.0 3.4595e-05
12190.0 3.42e-05
12210.0 3.388e-05
12230.0 3.3655e-05
12250.0 3.3513e-05
12270.0 3.3466e-05
12290.0 3.3538e-05
12310.0 3.3727e-05
12330.0 3.4038e-05
12350.0 3.4477e-05
12370.0 3.5024e-05
12390.0 3.5684e-05
12410.0 3.6475e-05
12430.0 3.7318e-05
12450.0 3.8214e-05
12470.0 3.9175e-05
12490.0 4.0157e-05
12510.0 4.1106e-05
12530.0 4.2059e-05
12550.0 4.2992e-05
12570.0 4.3854e-05
12590.0 4.465e-05
12610.0 4.5401e-05
12630.0 4.6073e-05
12650.0 4.6649e-05
12670.0 4.7162e-05
12690.0 4.7602e-05
12710.0 4.7965e-05
12730.0 4.8261e-05
12750.0 4.8491e-05
12770.0 4.8656e-05
12790.0 4.8764e-05
12810.0 4.8812e-05
12830.0 4.8796e-05
12850.0 4.8737e-05
12870.0 4.863e-05
12890.0 4.8457e-05
12910.0 4.8237e-05
12930.0 4.7983e-05
12950.0 4.7661e-05
12970.0 4.7274e-05
12990.0 4.6867e-05
13010.0 4.6413e-05
13030.0 4.5891e-05
13050.0 4.5337e-05
13070.0 4.4775e-05
13090.0 4.4151e-05
13110.0 4.3496e-05
13130.0 4.2855e-05
13150.0 4.221e-05
13170.0 4.1536e-05
13190.0 4.0915e-05
13210.0 4.0357e-05
13230.0 3.9828e-05
13250.0 3.9363e-05
13270.0 3.8997e-05
13290.0 3.8704e-05
13310.0 3.8486e-05
13330.0 3.8366e-05
13350.0 3.8327e-05
13370.0 3.8351e-05
13390.0 3.8431e-05
13410.0 3.8546e-05
13430.0 3.8673e-05
13450.0 3.8793e-05
13470.0 3.8885e-05
13490.0 3.8932e-05
13510.0 3.8914e-05
13530.0 3.8822e-05
13550.0 3.8659e-05
13570.0 3.8418e-05
13590.0 3.8091e-05
13610.0 3.7712e-05
13630.0 3.7295e-05
13650.0 3.6817e-05
13670.0 3.6318e-05
13690.0 3.5826e-05
13710.0 3.5327e-05
13730.0 3.4814e-05
13750.0 3.4351e-05
13770.0 3.3915e-05
13790.0 3.349e-05
13810.0 3.3094e-05
13830.0 3.2739e-05
13850.0 3.2391e-05
13870.0 3.2055e-05
13890.0 3.1743e-05
13910.0 3.1444e-05
13930.0 3.1139e-05
13950.0 3.0842e-05
13970.0 3.0564e-05
13990.0 3.0283e-05
14010.0 3.0005e-05
14030.0 2.9744e-05
14050.0 2.9497e-05
14070.0 2.9254e-05
14090.0 2.9035e-05
14110.0 2.8842e-05
14130.0 2.8666e-05
14150.0 2.8514e-05
14170.0 2.8391e-05
14190.0 2.8292e-05
14210.0 2.8218e-05
14230.0 2.8171e-05
14250.0 2.8147e-05
14270.0 2.815e-05
14290.0 2.818e-05
14310.0 2.8229e-05
14330.0 2.8298e-05
14350.0 2.8392e-05
14370.0 2.8498e-05
14390.0 2.861e-05
14410.0 2.8736e-05
14430.0 2.8866e-05
14450.0 2.8987e-05
14470.0 2.9102e-05
14490.0 2.9216e-05
14510.0 2.9311e-05
14530.0 2.9387e-05
14550.0 2.9456e-05
14570.0 2.9516e-05
14590.0 2.9563e-05
14610.0 2.9612e-05
14630.0 2.9671e-05
14650.0 2.9738e-05
14670.0 2.982e-05
14690.0 2.9934e-05
14710.0 3.0088e-05
14730.0 3.0262e-05
14750.0 3.0485e-05
14770.0 3.0763e-05
14790.0 3.1078e-05
14810.0 3.1426e-05
14830.0 3.1851e-05
14850.0 3.2309e-05
14870.0 3.2775e-05
14890.0 3.3268e-05
14910.0 3.3781e-05
14930.0 3.4251e-05
14950.0 3.4666e-05
14970.0 3.5038e-05
14990.0 3.5315e-05
15010.0 3.5483e-05
15030.0 3.556e-05
15050.0 3.5552e-05
15070.0 3.5462e-05
15090.0 3.532e-05
15110.0 3.5143e-05
15130.0 3.4943e-05
15150.0 3.4733e-05
15170.0 3.4515e-05
15190.0 3.4293e-05
15210.0 3.4072e-05
15230.0 3.3851e-05
15250.0 3.3627e-05
15270.0 3.3404e-05
15290.0 3.3184e-05
15310.0 3.2962e-05
15330.0 3.274e-05
15350.0 3.252e-05
15370.0 3.2301e-05
15390.0 3.2079e-05
15410.0 3.1859e-05
15430.0 3.1641e-05
15450.0 3.1422e-05
15470.0 3.1203e-05
15490.0 3.0987e-05
15510.0 3.0772e-05
15530.0 3.0555e-05
15550.0 3.034e-05
15570.0 3.0128e-05
15590.0 2.9914e-05
15610.0 2.97e-05
15630.0 2.949e-05
15650.0 2.928e-05
15670.0 2.907e-05
15690.0 2.8862e-05
15710.0 2.8656e-05
15730.0 2.845e-05
15750.0 2.8244e-05
15770.0 2.8041e-05
15790.0 2.7839e-05
15810.0 2.7636e-05
15830.0 2.7436e-05
15850.0 2.7238e-05
15870.0 2.704e-05
15890.0 2.6843e-05
15910.0 2.6649e-05
15930.0 2.6456e-05
15950.0 2.6262e-05
15970.0 2.6071e-05
15990.0 2.5882e-05
16010.0 2.5693e-05
16030.0 2.5505e-05
16050.0 2.5321e-05
16070.0 2.5137e-05
16090.0 2.4954e-05
16110.0 2.4773e-05
16130.0 2.4594e-05
16150.0 2.4414e-05
16170.0 2.4237e-05
16190.0 2.4062e-05
16210.0 2.3889e-05
16230.0 2.3715e-05
16250.0 2.3545e-05
16270.0 2.3376e-05
16290.0 2.3207e-05
16310.0 2.304e-05
16330.0 2.2876e-05
16350.0 2.2713e-05
16370.0 2.2549e-05
16390.0 2.2389e-05
16410.0 2.2231e-05
16430.0 2.2073e-05
16450.0 2.1916e-05
16470.0 2.1763e-05
16490.0 2.1609e-05
16510.0 2.1457e-05
16530.0 2.1307e-05
16550.0 2.1159e-05
16570.0 2.1011e-05
16590.0 2.0864e-05
16610.0 2.0721e-05
16630.0 2.0578e-05
16650.0 2.0436e-05
16670.0 2.0297e-05
16690.0 2.0159e-05
16710.0 2.0021e-05
16730.0 1.9885e-05
16750.0 1.9752e-05
16770.0 1.9618e-05
16790.0 1.9486e-05
16810.0 1.9357e-05
16830.0 1.9229e-05
16850.0 1.9101e-05
16870.0 1.8975e-05
16890.0 1.8851e-05
16910.0 1.8727e-05
16930.0 1.8604e-05
16950.0 1.8484e-05
16970.0 1.8365e-05
16990.0 1.8247e-05
17010.0 1.813e-05
17030.0 1.8016e-05
17050.0 1.7901e-05
17070.0 1.7788e-05
17090.0 1.7677e-05
17110.0 1.7567e-05
17130.0 1.7456e-05
17150.0 1.7348e-05
17170.0 1.7243e-05
17190.0 1.7137e-05
17210.0 1.7032e-05
17230.0 1.693e-05
17250.0 1.6828e-05
17270.0 1.6726e-05
17290.0 1.6627e-05
17310.0 1.6529e-05
17330.0 1.6431e-05
17350.0 1.6334e-05
17370.0 1.624e-05
17390.0 1.6146e-05
17410.0 1.6052e-05
17430.0 1.5961e-05
17450.0 1.5871e-05
17470.0 1.578e-05
17490.0 1.5691e-05
17510.0 1.5604e-05
17530.0 1.5517e-05
17550.0 1.5431e-05
17570.0 1.5346e-05
17590.0 1.5264e-05
17610.0 1.518e-05
17630.0 1.5098e-05
17650.0 1.5018e-05
17670.0 1.4938e-05
17690.0 1.4858e-05
17710.0 1.478e-05
17730.0 1.4704e-05
17750.0 1.4627e-05
17770.0 1.4551e-05
17790.0 1.4478e-05
17810.0 1.4404e-05
17830.0 1.433e-05
17850.0 1.4259e-05
17870.0 1.4188e-05
17890.0 1.4117e-05
17910.0 1.4047e-05
17930.0 1.398e-05
17950.0 1.3912e-05
17970.0 1.3844e-05
17990.0 1.3779e-05
18010.0 1.3714e-05
18030.0 1.3648e-05
18050.0 1.3584e-05
18070.0 1.3521e-05
18090.0 1.3458e-05
18110.0 1.3396e-05
18130.0 1.3335e-05
18150.0 1.3275e-05
18170.0 1.3215e-05
18190.0 1.3156e-05
18210.0 1.3099e-05
18230.0 1.304e-05
18250.0 1.2982e-05
18270.0 1.2927e-05
18290.0 1.2871e-05
18310.0 1.2815e-05
18330.0 1.2761e-05
18350.0 1.2708e-05
18370.0 1.2654e-05
18390.0 1.2601e-05
18410.0 1.255e-05
18430.0 1.2499e-05
18450.0 1.2446e-05
18470.0 1.2396e-05
18490.0 1.2347e-05
18510.0 1.2298e-05
18530.0 1.2249e-05
18550.0 1.2202e-05
18570.0 1.2154e-05
18590.0 1.2106e-05
18610.0 1.2059e-05
18630.0 1.2014e-05
18650.0 1.1968e-05
18670.0 1.1922e-05
18690.0 1.1878e-05
18710.0 1.1834e-05
18730.0 1.179e-05
18750.0 1.1747e-05
18770.0 1.1705e-05
18790.0 1.1662e-05
18810.0 1.162e-05
18830.0 1.1579e-05
18850.0 1.1538e-05
18870.0 1.1497e-05
18890.0 1.1457e-05
18910.0 1.1418e-05
18930.0 1.1378e-05
18950.0 1.1339e-05
18970.0 1.1301e-05
18990.0 1.1263e-05
19010.0 1.1224e-05
19030.0 1.1187e-05
19050.0 1.1151e-05
19070.0 1.1113e-05
19090.0 1.1077e-05
19110.0 1.1042e-05
19130.0 1.1006e-05
19150.0 1.097e-05
19170.0 1.0936e-05
19190.0 1.0901e-05
19210.0 1.0866e-05
19230.0 1.0832e-05
19250.0 1.0799e-05
19270.0 1.0766e-05
19290.0 1.0732e-05
19310.0 1.07e-05
19330.0 1.0668e-05
19350.0 1.0635e-05
19370.0 1.0603e-05
19390.0 1.0572e-05
19410.0 1.054e-05
19430.0 1.0509e-05
19450.0 1.0479e-05
19470.0 1.0449e-05
19490.0 1.0418e-05
19510.0 1.0388e-05
19530.0 1.0359e-05
19550.0 1.0328e-05
19570.0 1.0298e-05
19590.0 1.027e-05
19610.0 1.0241e-05
19630.0 1.0212e-05
19650.0 1.0184e-05
19670.0 1.0156e-05
19690.0 1.0128e-05
19710.0 1.01e-05
19730.0 1.0073e-05
19750.0 1.0045e-05
19770.0 1.0017e-05
19790.0 9.9902e-06
19810.0 9.9639e-06
19830.0 9.9366e-06
19850.0 9.9092e-06
19870.0 9.8823e-06
19890.0 9.8528e-06
19910.0 9.819e-06
19930.0 9.7814e-06
19950.0 9.7361e-06
19970.0 9.677e-06
19990.0 9.6027e-06
20010.0 9.516e-06
20030.0 9.4086e-06
20050.0 9.2814e-06
20070.0 9.1432e-06
20090.0 8.9948e-06
20110.0 8.8273e-06
20130.0 8.6592e-06
20150.0 8.4942e-06
20170.0 8.3242e-06
20190.0 8.1529e-06
20210.0 7.9925e-06
20230.0 7.8369e-06
20250.0 7.6815e-06
20270.0 7.5381e-06
20290.0 7.4082e-06
20310.0 7.2856e-06
20330.0 7.1723e-06
20350.0 7.0804e-06
20370.0 7.0013e-06
20390.0 6.9352e-06
20410.0 6.8866e-06
20430.0 6.855e-06
20450.0 6.8376e-06
20470.0 6.8372e-06
20490.0 6.8523e-06
20510.0 6.8817e-06
20530.0 6.9266e-06
20550.0 6.9834e-06
20570.0 7.049e-06
20590.0 7.1265e-06
20610.0 7.2124e-06
20630.0 7.3011e-06
20650.0 7.3947e-06
20670.0 7.4949e-06
20690.0 7.5909e-06
20710.0 7.6834e-06
20730.0 7.7749e-06
20750.0 7.8612e-06
20770.0 7.9371e-06
20790.0 8.0067e-06
20810.0 8.0689e-06
20830.0 8.1199e-06
20850.0 8.1607e-06
20870.0 8.193e-06
20890.0 8.2149e-06
20910.0 8.2268e-06
20930.0 8.2304e-06
20950.0 8.2254e-06
20970.0 8.2132e-06
20990.0 8.1948e-06
21010.0 8.1689e-06
21030.0 8.1377e-06
21050.0 8.1029e-06
21070.0 8.0632e-06
21090.0 8.0181e-06
21110.0 7.9726e-06
21130.0 7.9254e-06
21150.0 7.8749e-06
21170.0 7.8241e-06
21190.0 7.7755e-06
21210.0 7.7258e-06
21230.0 7.6767e-06
21250.0 7.6326e-06
21270.0 7.592e-06
21290.0 7.5541e-06
21310.0 7.5218e-06
21330.0 7.4965e-06
21350.0 7.476e-06
21370.0 7.4619e-06
21390.0 7.4552e-06
21410.0 7.4551e-06
21430.0 7.4622e-06
21450.0 7.4763e-06
21470.0 7.4965e-06
21490.0 7.5234e-06
21510.0 7.5568e-06
21530.0 7.5943e-06
21550.0 7.6367e-06
21570.0 7.6852e-06
21590.0 7.7368e-06
21610.0 7.7905e-06
21630.0 7.8488e-06
21650.0 7.9116e-06
21670.0 7.9728e-06
21690.0 8.0369e-06
21710.0 8.1048e-06
21730.0 8.1731e-06
21750.0 8.2408e-06
21770.0 8.314e-06
21790.0 8.3883e-06
21810.0 8.4616e-06
21830.0 8.537e-06
21850.0 8.6162e-06
21870.0 8.6947e-06
21890.0 8.7719e-06
21910.0 8.8528e-06
21930.0 8.9343e-06
21950.0 9.0132e-06
21970.0 9.0927e-06
21990.0 9.1748e-06
22010.0 9.2515e-06
22030.0 9.3249e-06
22050.0 9.3972e-06
22070.0 9.4652e-06
22090.0 9.5253e-06
22110.0 9.581e-06
22130.0 9.6308e-06
22150.0 9.6712e-06
22170.0 9.7026e-06
22190.0 9.7254e-06
22210.0 9.737e-06
22230.0 9.7376e-06
22250.0 9.7269e-06
22270.0 9.7037e-06
22290.0 9.6695e-06
22310.0 9.6245e-06
22330.0 9.5648e-06
22350.0 9.4941e-06
22370.0 9.4151e-06
22390.0 9.3239e-06
22410.0 9.2194e-06
22430.0 9.1116e-06
22450.0 8.997e-06
22470.0 8.8715e-06
22490.0 8.7419e-06
22510.0 8.613e-06
22530.0 8.4756e-06
22550.0 8.3338e-06
22570.0 8.1977e-06
22590.0 8.0623e-06
22610.0 7.9238e-06
