#lamb flux
1010.0 4.4714e-07
1030.0 4.8972e-07
1050.0 5.3872e-07
1070.0 5.9387e-07
1090.0 6.5653e-07
1110.0 7.2079e-07
1130.0 7.8548e-07
1150.0 8.5325e-07
1170.0 9.2317e-07
1190.0 9.8948e-07
1210.0 1.0567e-06
1230.0 1.1262e-06
1250.0 1.1942e-06
1270.0 1.2604e-06
1290.0 1.3303e-06
1310.0 1.4001e-06
1330.0 1.4671e-06
1350.0 1.5349e-06
1370.0 1.6049e-06
1390.0 1.6731e-06
1410.0 1.7394e-06
1430.0 1.8086e-06
1450.0 1.8779e-06
1470.0 1.9449e-06
1490.0 2.0126e-06
1510.0 2.0841e-06
1530.0 2.1519e-06
1550.0 2.2187e-06
1570.0 2.2879e-06
1590.0 2.3571e-06
1610.0 2.4232e-06
1630.0 2.4914e-06
1650.0 2.5613e-06
1670.0 2.6289e-06
1690.0 2.6955e-06
1710.0 2.7647e-06
1730.0 2.8341e-06
1750.0 2.8993e-06
1770.0 2.9663e-06
1790.0 3.0344e-06
1810.0 3.1002e-06
1830.0 3.1647e-06
1850.0 3.2329e-06
1870.0 3.299e-06
1890.0 3.3625e-06
1910.0 3.427e-06
1930.0 3.4927e-06
1950.0 3.5548e-06
1970.0 3.6156e-06
1990.0 3.6783e-06
2010.0 3.7393e-06
2030.0 3.7971e-06
2050.0 3.8561e-06
2070.0 3.916e-06
2090.0 3.971e-06
2110.0 4.0249e-06
2130.0 4.0796e-06
2150.0 4.1318e-06
2170.0 4.18e-06
2190.0 4.2292e-06
2210.0 4.2773e-06
2230.0 4.3212e-06
2250.0 4.3633e-06
2270.0 4.4064e-06
2290.0 4.4457e-06
2310.0 4.4805e-06
2330.0 4.5152e-06
2350.0 4.5485e-06
2370.0 4.5773e-06
2390.0 4.6048e-06
2410.0 4.6339e-06
2430.0 4.6605e-06
2450.0 4.6861e-06
2470.0 4.7161e-06
2490.0 4.7543e-06
2510.0 4.8019e-06
2530.0 4.8799e-06
2550.0 5.0205e-06
2570.0 5.2546e-06
2590.0 5.6179e-06
2610.0 6.208e-06
2630.0 7.0396e-06
2650.0 8.0578e-06
2670.0 9.2662e-06
2690.0 1.061e-05
2710.0 1.1892e-05
2730.0 1.3023e-05
2750.0 1.4025e-05
2770.0 1.4801e-05
2790.0 1.5349e-05
2810.0 1.5753e-05
2830.0 1.6074e-05
2850.0 1.6301e-05
2870.0 1.6493e-05
2890.0 1.6686e-05
2910.0 1.6873e-05
2930.0 1.7039e-05
2950.0 1.7218e-05
2970.0 1.7404e-05
2990.0 1.7573e-05
3010.0 0.0001614
3030.0 0.00016297
3050.0 0.00016446
3070.0 0.00016559
3090.0 0.0001665
3110.0 0.00016688
3130.0 0.00016633
3150.0 0.00016463
3170.0 0.00016142
3190.0 0.00015673
3210.0 0.00015097
3230.0 0.00014484
3250.0 0.00014426
3270.0 0.00013965
3290.0 0.00014515
3310.0 0.0001399
3330.0 0.00014259
3350.0 0.0001474
3370.0 0.00015369
3390.0 0.00016115
3410.0 0.00016887
3430.0 0.00017713
3450.0 0.00018601
3470.0 0.00019495
3490.0 0.00020354
3510.0 0.0002144
3530.0 0.00022739
3550.0 0.0002356
3570.0 0.00024165
3590.0 0.00025756
3610.0 0.00026152
3630.0 0.00028115
3650.0 0.00029562
3670.0 0.00031095
3690.0 0.00031338
3710.0 0.00030466
3730.0 0.00030913
3750.0 0.00030917
3770.0 0.0003219
3790.0 0.0003409
3810.0 0.00037921
3830.0 0.00045884
3850.0 0.0005465
3870.0 0.00062922
3890.0 0.00068365
3910.0 0.00070903
3930.0 0.00073753
3950.0 0.00076663
3970.0 0.00067229
3990.0 0.00045664
4010.0 0.00039487
4030.0 0.00053951
4050.0 0.00068017
4070.0 0.00060455
4090.0 0.00037268
4110.0 0.0003626
4130.0 0.00051564
4150.0 0.00058453
4170.0 0.0004921
4190.0 0.00041987
4210.0 0.00055085
4230.0 0.00057849
4250.0 0.00054946
4270.0 0.00055356
4290.0 0.00050473
4310.0 0.00056661
4330.0 0.00066037
4350.0 0.00075853
4370.0 0.00075529
4390.0 0.00073624
4410.0 0.00064981
4430.0 0.00051258
4450.0 0.00039016
4470.0 0.00042326
4490.0 0.00045813
4510.0 0.00062753
4530.0 0.00065439
4550.0 0.00064418
4570.0 0.00074845
4590.0 0.00095447
4610.0 0.0013058
4630.0 0.0016017
4650.0 0.0016171
4670.0 0.0016694
4690.0 0.0017992
4710.0 0.001762
4730.0 0.0014202
4750.0 0.0010125
4770.0 0.00084548
4790.0 0.00074546
4810.0 0.0007065
4830.0 0.000772
4850.0 0.00086702
4870.0 0.0010179
4890.0 0.0011176
4910.0 0.00099499
4930.0 0.0010355
4950.0 0.0012874
4970.0 0.0015947
4990.0 0.0018326
5010.0 0.0018318
5030.0 0.0015513
5050.0 0.0011231
5070.0 0.00082295
5090.0 0.00071186
5110.0 0.00073066
5130.0 0.00079582
5150.0 0.00074929
5170.0 0.0007464
5190.0 0.00074317
5210.0 0.0007561
5230.0 0.00081696
5250.0 0.00084201
5270.0 0.00090573
5290.0 0.0010851
5310.0 0.0012281
5330.0 0.001295
5350.0 0.0013188
5370.0 0.0014061
5390.0 0.0014599
5410.0 0.0013396
5430.0 0.0012182
5450.0 0.0012426
5470.0 0.0014695
5490.0 0.001881
5510.0 0.0022563
5530.0 0.0023711
5550.0 0.0022978
5570.0 0.0021679
5590.0 0.0020258
5610.0 0.0019341
5630.0 0.0019638
5650.0 0.0020243
5670.0 0.0019557
5690.0 0.0018375
5710.0 0.0017891
5730.0 0.0015793
5750.0 0.0012582
5770.0 0.0011435
5790.0 0.0012856
5810.0 0.0014281
5830.0 0.0015912
5850.0 0.0016317
5870.0 0.0015855
5890.0 0.0014993
5910.0 0.0013942
5930.0 0.0013878
5950.0 0.0014623
5970.0 0.0014903
5990.0 0.0013137
6010.0 0.0010688
6030.0 0.00086562
6050.0 0.00078327
6070.0 0.00083039
6090.0 0.00093257
6110.0 0.00095556
6130.0 0.00089503
6150.0 0.0008871
6170.0 0.00098064
6190.0 0.0011445
6210.0 0.0013708
6230.0 0.0015475
6250.0 0.0014682
6270.0 0.0012818
6290.0 0.0010705
6310.0 0.00084897
6330.0 0.00071917
6350.0 0.00071005
6370.0 0.00077933
6390.0 0.00085979
6410.0 0.0010059
6430.0 0.0012379
6450.0 0.0015242
6470.0 0.0017883
6490.0 0.0020214
6510.0 0.0021424
6530.0 0.0020671
6550.0 0.0019858
6570.0 0.0019952
6590.0 0.0019835
6610.0 0.0018878
6630.0 0.0017781
6650.0 0.0016543
6670.0 0.0016387
6690.0 0.0015973
6710.0 0.001477
6730.0 0.001285
6750.0 0.0011452
6770.0 0.0011812
6790.0 0.0012611
6810.0 0.0013702
6830.0 0.0013969
6850.0 0.0013129
6870.0 0.0012742
6890.0 0.0012485
6910.0 0.0011798
6930.0 0.0011394
6950.0 0.0011479
6970.0 0.0011725
6990.0 0.00124
7010.0 0.0013349
7030.0 0.0013086
7050.0 0.0011859
7070.0 0.0010655
7090.0 0.00091048
7110.0 0.00081096
7130.0 0.00085217
7150.0 0.00092322
7170.0 0.00094068
7190.0 0.00091922
7210.0 0.00090961
7230.0 0.0010214
7250.0 0.0011632
7270.0 0.001252
7290.0 0.0012635
7310.0 0.0012016
7330.0 0.0011036
7350.0 0.0010207
7370.0 0.00096943
7390.0 0.00095871
7410.0 0.0010248
7430.0 0.0011806
7450.0 0.001318
7470.0 0.0014837
7490.0 0.0016963
7510.0 0.0016229
7530.0 0.0013689
7550.0 0.0011559
7570.0 0.0009626
7590.0 0.00079773
7610.0 0.00077345
7630.0 0.00081355
7650.0 0.00089922
7670.0 0.0010318
7690.0 0.0011377
7710.0 0.0012852
7730.0 0.0013455
7750.0 0.0013941
7770.0 0.0014768
7790.0 0.0014932
7810.0 0.0014731
7830.0 0.0013973
7850.0 0.0013676
7870.0 0.0013253
7890.0 0.0012198
7910.0 0.0011133
7930.0 0.0010137
7950.0 0.00087177
7970.0 0.00083005
7990.0 0.00085867
8010.0 0.00099657
8030.0 0.0010039
8050.0 0.0010438
8070.0 0.0010278
8090.0 0.0010292
8110.0 0.0010051
8130.0 0.00095029
8150.0 0.00088449
8170.0 0.00087801
8190.0 0.00089086
8210.0 0.00090139
8230.0 0.00084533
8250.0 0.00079536
8270.0 0.00070109
8290.0 0.00057681
8310.0 0.00045723
8330.0 0.00032788
8350.0 0.00024678
8370.0 0.00023221
8390.0 0.00025646
8410.0 0.00030309
8430.0 0.00038077
8450.0 0.00042104
8470.0 0.00045179
8490.0 0.00049729
8510.0 0.00053394
8530.0 0.00059308
8550.0 0.00070144
8570.0 0.00080146
8590.0 0.00087966
8610.0 0.0010133
8630.0 0.0011734
8650.0 0.0012376
8670.0 0.0012574
8690.0 0.0012529
8710.0 0.001211
8730.0 0.0011623
8750.0 0.0010911
8770.0 0.0010737
8790.0 0.0010395
8810.0 0.00096244
8830.0 0.00091055
8850.0 0.00079436
8870.0 0.00072862
8890.0 0.00067158
8910.0 0.00073742
8930.0 0.0006984
8950.0 0.00071181
8970.0 0.00072601
8990.0 0.00072202
9010.0 0.00073175
9030.0 0.0007061
9050.0 0.0007043
9070.0 0.00070501
9090.0 0.00070573
9110.0 0.00070673
9130.0 0.00070747
9150.0 0.00070814
9170.0 0.00070781
9190.0 0.00070613
9210.0 0.00071351
9230.0 0.00071282
9250.0 0.00071299
9270.0 0.00071342
9290.0 0.00071403
9310.0 0.00071477
9330.0 0.0007156
9350.0 0.00071651
9370.0 0.00071747
9390.0 0.00071844
9410.0 0.00071946
9430.0 0.00072054
9450.0 0.00072161
9470.0 0.00072272
9490.0 0.00072387
9510.0 0.00072504
9530.0 0.00072624
9550.0 0.0007275
9570.0 0.00072879
9590.0 0.0007301
9610.0 0.00073144
9630.0 0.00073285
9650.0 0.00073428
9670.0 0.00073572
9690.0 0.00073723
9710.0 0.00073877
9730.0 0.00074033
9750.0 0.00074193
9770.0 0.00074361
9790.0 0.00074528
9810.0 0.00074698
9830.0 0.00074873
9850.0 0.00075053
9870.0 0.00075232
9890.0 0.00075415
9910.0 0.00075604
9930.0 0.00075793
9950.0 0.00075936
9970.0 0.00076147
9990.0 0.00076358
10010.0 0.00076552
10030.0 0.00076759
10050.0 0.00076939
10070.0 0.00076973
10090.0 0.00077238
10110.0 0.00077499
10130.0 0.00077743
10150.0 0.00077979
10170.0 0.00078203
10190.0 0.00078415
10210.0 0.0007863
10230.0 0.00078846
10250.0 0.00079053
10270.0 0.0007926
10290.0 0.00079473
10310.0 0.00079678
10330.0 0.00079877
10350.0 0.00080081
10370.0 0.00080285
10390.0 0.0008048
10410.0 0.00080674
10430.0 0.00080872
10450.0 0.00081062
10470.0 0.00081245
10490.0 0.00081431
10510.0 0.00081613
10530.0 0.00081782
10550.0 0.00081952
10570.0 0.00082122
10590.0 0.00082283
10610.0 0.00082437
10630.0 0.00082592
10650.0 0.00082741
10670.0 0.00082877
10690.0 0.00083012
10710.0 0.00083145
10730.0 0.00083266
10750.0 0.00083377
10770.0 0.00083492
10790.0 0.00083597
10810.0 0.0008369
10830.0 0.00083776
10850.0 0.00083852
10870.0 0.00083894
10890.0 0.0008389
10910.0 0.00083823
10930.0 0.00083639
10950.0 0.00083261
10970.0 0.00082656
10990.0 0.00081803
11010.0 0.00082401
11030.0 0.00080689
11050.0 0.00078727
11070.0 0.00076482
11090.0 0.00073891
11110.0 0.00071322
11130.0 0.00068758
11150.0 0.00066136
11170.0 0.00063598
11190.0 0.00061305
11210.0 0.00059114
11230.0 0.00057062
11250.0 0.00055283
11270.0 0.00053735
11290.0 0.00052331
11310.0 0.00051127
11330.0 0.00050149
11350.0 0.00049272
11370.0 0.00048473
11390.0 0.00047757
11410.0 0.0004707
11430.0 0.0004633
11450.0 0.0004556
11470.0 0.00044749
11490.0 0.00043845
11510.0 0.00042827
11530.0 0.00041774
11550.0 0.00040663
11570.0 0.00039456
11590.0 0.00038224
11610.0 0.00037017
11630.0 0.00035772
11650.0 0.00034523
11670.0 0.00033369
11690.0 0.00032266
11710.0 0.00031191
11730.0 0.00030196
11750.0 0.00029302
11770.0 0.00028441
11790.0 0.00027631
11810.0 0.00026898
11830.0 0.00026209
11850.0 0.00025522
11870.0 0.00024879
11890.0 0.00024269
11910.0 0.00023648
11930.0 0.00023019
11950.0 0.00022407
11970.0 0.00021782
11990.0 0.00021124
12010.0 0.00020473
12030.0 0.00019832
12050.0 0.00019177
12070.0 0.00018521
12090.0 0.00017924
12110.0 0.00017351
12130.0 0.00016809
12150.0 0.00016336
12170.0 0.00015941
12190.0 0.00015605
12210.0 0.00015366
12230.0 0.00015227
12250.0 0.00015184
12270.0 0.00015247
12290.0 0.00015408
12310.0 0.00015652
12330.0 0.00015996
12350.0 0.00016417
12370.0 0.00016881
12390.0 0.00017396
12410.0 0.00017974
12430.0 0.00018526
12450.0 0.00019064
12470.0 0.00019599
12490.0 0.00020093
12510.0 0.00020514
12530.0 0.00020892
12550.0 0.00021212
12570.0 0.00021448
12590.0 0.00021611
12610.0 0.0002171
12630.0 0.00021735
12650.0 0.00021689
12670.0 0.00021585
12690.0 0.00021423
12710.0 0.00021215
12730.0 0.00020967
12750.0 0.00020673
12770.0 0.00020351
12790.0 0.00020012
12810.0 0.00019645
12830.0 0.00019252
12850.0 0.00018857
12870.0 0.0001845
12890.0 0.00018013
12910.0 0.00017565
12930.0 0.00017113
12950.0 0.00016628
12970.0 0.00016114
12990.0 0.00015605
13010.0 0.00015081
13030.0 0.0001453
13050.0 0.00013982
13070.0 0.00013454
13090.0 0.00012916
13110.0 0.00012392
13130.0 0.0001191
13150.0 0.0001146
13170.0 0.00011035
13190.0 0.00010673
13210.0 0.00010372
13230.0 0.00010117
13250.0 9.9202e-05
13270.0 9.7835e-05
13290.0 9.6964e-05
13310.0 9.6576e-05
13330.0 9.6623e-05
13350.0 9.7e-05
13370.0 9.7675e-05
13390.0 9.8572e-05
13410.0 9.9504e-05
13430.0 0.00010049
13450.0 0.00010149
13470.0 0.00010238
13490.0 0.00010312
13510.0 0.00010379
13530.0 0.00010429
13550.0 0.00010462
13570.0 0.00010483
13590.0 0.00010495
13610.0 0.00010497
13630.0 0.00010493
13650.0 0.00010488
13670.0 0.00010482
13690.0 0.00010475
13710.0 0.0001047
13730.0 0.00010467
13750.0 0.00010462
13770.0 0.00010457
13790.0 0.00010449
13810.0 0.00010436
13830.0 0.00010417
13850.0 0.00010388
13870.0 0.00010349
13890.0 0.00010298
13910.0 0.00010236
13930.0 0.0001016
13950.0 0.00010072
13970.0 9.9792e-05
13990.0 9.8781e-05
14010.0 9.7719e-05
14030.0 9.6683e-05
14050.0 9.5678e-05
14070.0 9.4682e-05
14090.0 9.3785e-05
14110.0 9.2998e-05
14130.0 9.2294e-05
14150.0 9.1687e-05
14170.0 9.1204e-05
14190.0 9.0819e-05
14210.0 9.0527e-05
14230.0 9.0339e-05
14250.0 9.0247e-05
14270.0 9.0262e-05
14290.0 9.0396e-05
14310.0 9.0629e-05
14330.0 9.0978e-05
14350.0 9.1464e-05
14370.0 9.2056e-05
14390.0 9.2727e-05
14410.0 9.3531e-05
14430.0 9.4433e-05
14450.0 9.5376e-05
14470.0 9.639e-05
14490.0 9.7528e-05
14510.0 9.8688e-05
14530.0 9.9886e-05
14550.0 0.00010122
14570.0 0.00010268
14590.0 0.00010422
14610.0 0.00010595
14630.0 0.00010797
14650.0 0.00011016
14670.0 0.00011256
14690.0 0.00011531
14710.0 0.00011839
14730.0 0.00012153
14750.0 0.00012495
14770.0 0.00012865
14790.0 0.00013238
14810.0 0.00013608
14830.0 0.00014001
14850.0 0.00014377
14870.0 0.00014723
14890.0 0.00015051
14910.0 0.00015355
14930.0 0.00015609
14950.0 0.00015817
14970.0 0.0001599
14990.0 0.00016113
15010.0 0.00016191
15030.0 0.00016235
15050.0 0.00016248
15070.0 0.00016238
15090.0 0.00016214
15110.0 0.0001618
15130.0 0.0001614
15150.0 0.00016099
15170.0 0.00016055
15190.0 0.00016011
15210.0 0.00015968
15230.0 0.00015925
15250.0 0.00015881
15270.0 0.00015838
15290.0 0.00015797
15310.0 0.00015755
15330.0 0.00015712
15350.0 0.00015672
15370.0 0.00015631
15390.0 0.00015589
15410.0 0.00015548
15430.0 0.00015509
15450.0 0.00015468
15470.0 0.00015427
15490.0 0.00015388
15510.0 0.00015349
15530.0 0.00015309
15550.0 0.00015269
15570.0 0.00015232
15590.0 0.00015192
15610.0 0.00015151
15630.0 0.00015114
15650.0 0.00015076
15670.0 0.00015036
15690.0 0.00014998
15710.0 0.00014961
15730.0 0.00014922
15750.0 0.00014883
15770.0 0.00014846
15790.0 0.00014808
15810.0 0.00014768
15830.0 0.0001473
15850.0 0.00014693
15870.0 0.00014655
15890.0 0.00014616
15910.0 0.0001458
15930.0 0.00014542
15950.0 0.00014503
15970.0 0.00014465
15990.0 0.00014428
16010.0 0.00014389
16030.0 0.00014349
16050.0 0.00014313
16070.0 0.00014275
16090.0 0.00014235
16110.0 0.00014197
16130.0 0.0001416
16150.0 0.0001412
16170.0 0.00014081
16190.0 0.00014043
16210.0 0.00014004
16230.0 0.00013964
16250.0 0.00013925
16270.0 0.00013887
16290.0 0.00013847
16310.0 0.00013807
16330.0 0.00013769
16350.0 0.00013729
16370.0 0.00013687
16390.0 0.00013647
16410.0 0.00013608
16430.0 0.00013567
16450.0 0.00013526
16470.0 0.00013487
16490.0 0.00013446
16510.0 0.00013403
16530.0 0.00013363
16550.0 0.00013322
16570.0 0.00013279
16590.0 0.00013236
16610.0 0.00013196
16630.0 0.00013154
16650.0 0.0001311
16670.0 0.00013069
16690.0 0.00013027
16710.0 0.00012982
16730.0 0.00012938
16750.0 0.00012896
16770.0 0.00012852
16790.0 0.00012807
16810.0 0.00012764
16830.0 0.00012721
16850.0 0.00012675
16870.0 0.0001263
16890.0 0.00012587
16910.0 0.00012541
16930.0 0.00012494
16950.0 0.00012449
16970.0 0.00012404
16990.0 0.00012357
17010.0 0.00012311
17030.0 0.00012266
17050.0 0.00012219
17070.0 0.00012171
17090.0 0.00012125
17110.0 0.00012078
17130.0 0.00012029
17150.0 0.00011981
17170.0 0.00011935
17190.0 0.00011886
17210.0 0.00011837
17230.0 0.0001179
17250.0 0.00011741
17270.0 0.00011691
17290.0 0.00011642
17310.0 0.00011593
17330.0 0.00011543
17350.0 0.00011492
17370.0 0.00011444
17390.0 0.00011394
17410.0 0.00011342
17430.0 0.00011292
17450.0 0.00011243
17470.0 0.0001119
17490.0 0.00011139
17510.0 0.00011089
17530.0 0.00011037
17550.0 0.00010984
17570.0 0.00010933
17590.0 0.00010883
17610.0 0.00010829
17630.0 0.00010777
17650.0 0.00010726
17670.0 0.00010673
17690.0 0.00010618
17710.0 0.00010566
17730.0 0.00010514
17750.0 0.0001046
17770.0 0.00010406
17790.0 0.00010355
17810.0 0.000103
17830.0 0.00010245
17850.0 0.00010192
17870.0 0.00010139
17890.0 0.00010083
17910.0 0.00010029
17930.0 9.976e-05
17950.0 9.9213e-05
17970.0 9.8659e-05
17990.0 9.8123e-05
18010.0 9.7584e-05
18030.0 9.7016e-05
18050.0 9.6466e-05
18070.0 9.5927e-05
18090.0 9.5371e-05
18110.0 9.4807e-05
18130.0 9.4267e-05
18150.0 9.372e-05
18170.0 9.3155e-05
18190.0 9.2602e-05
18210.0 9.2059e-05
18230.0 9.1492e-05
18250.0 9.0922e-05
18270.0 9.0376e-05
18290.0 8.9822e-05
18310.0 8.9254e-05
18330.0 8.8698e-05
18350.0 8.8154e-05
18370.0 8.7585e-05
18390.0 8.7018e-05
18410.0 8.6468e-05
18430.0 8.591e-05
18450.0 8.5331e-05
18470.0 8.4774e-05
18490.0 8.4226e-05
18510.0 8.3659e-05
18530.0 8.3093e-05
18550.0 8.2546e-05
18570.0 8.1985e-05
18590.0 8.1408e-05
18610.0 8.0851e-05
18630.0 8.0299e-05
18650.0 7.9729e-05
18670.0 7.9158e-05
18690.0 7.8614e-05
18710.0 7.8055e-05
18730.0 7.7485e-05
18750.0 7.6931e-05
18770.0 7.6384e-05
18790.0 7.5806e-05
18810.0 7.5242e-05
18830.0 7.4695e-05
18850.0 7.4136e-05
18870.0 7.3567e-05
18890.0 7.3018e-05
18910.0 7.2471e-05
18930.0 7.1904e-05
18950.0 7.1346e-05
18970.0 7.0802e-05
18990.0 7.0245e-05
19010.0 6.967e-05
19030.0 6.9128e-05
19050.0 6.8582e-05
19070.0 6.8021e-05
19090.0 6.7469e-05
19110.0 6.6935e-05
19130.0 6.6376e-05
19150.0 6.5817e-05
19170.0 6.5275e-05
19190.0 6.4733e-05
19210.0 6.4172e-05
19230.0 6.3622e-05
19250.0 6.3092e-05
19270.0 6.2544e-05
19290.0 6.1994e-05
19310.0 6.1461e-05
19330.0 6.0926e-05
19350.0 6.0366e-05
19370.0 5.9827e-05
19390.0 5.9298e-05
19410.0 5.8754e-05
19430.0 5.8207e-05
19450.0 5.7684e-05
19470.0 5.7154e-05
19490.0 5.6609e-05
19510.0 5.6078e-05
19530.0 5.5558e-05
19550.0 5.5016e-05
19570.0 5.4474e-05
19590.0 5.3957e-05
19610.0 5.3432e-05
19630.0 5.2896e-05
19650.0 5.2374e-05
19670.0 5.1863e-05
19690.0 5.1329e-05
19710.0 5.0801e-05
19730.0 5.029e-05
19750.0 4.9771e-05
19770.0 4.9235e-05
19790.0 4.8722e-05
19810.0 4.8216e-05
19830.0 4.7693e-05
19850.0 4.717e-05
19870.0 4.6659e-05
19890.0 4.6121e-05
19910.0 4.5545e-05
19930.0 4.495e-05
19950.0 4.4303e-05
19970.0 4.3554e-05
19990.0 4.2708e-05
20010.0 4.1804e-05
20030.0 4.0778e-05
20050.0 3.9655e-05
20070.0 3.852e-05
20090.0 3.7384e-05
20110.0 3.6201e-05
20130.0 3.5107e-05
20150.0 3.4116e-05
20170.0 3.3184e-05
20190.0 3.2334e-05
20210.0 3.1612e-05
20230.0 3.098e-05
20250.0 3.0418e-05
20270.0 2.996e-05
20290.0 2.9594e-05
20310.0 2.9298e-05
20330.0 2.9074e-05
20350.0 2.8932e-05
20370.0 2.8851e-05
20390.0 2.8834e-05
20410.0 2.8877e-05
20430.0 2.8974e-05
20450.0 2.9137e-05
20470.0 2.9361e-05
20490.0 2.9633e-05
20510.0 2.9963e-05
20530.0 3.0364e-05
20550.0 3.081e-05
20570.0 3.1286e-05
20590.0 3.1827e-05
20610.0 3.2407e-05
20630.0 3.2994e-05
20650.0 3.3608e-05
20670.0 3.4265e-05
20690.0 3.4891e-05
20710.0 3.5498e-05
20730.0 3.6108e-05
20750.0 3.6697e-05
20770.0 3.7232e-05
20790.0 3.7753e-05
20810.0 3.8264e-05
20830.0 3.8738e-05
20850.0 3.919e-05
20870.0 3.9658e-05
20890.0 4.0126e-05
20910.0 4.0578e-05
20930.0 4.1054e-05
20950.0 4.1559e-05
20970.0 4.2064e-05
20990.0 4.2572e-05
21010.0 4.3117e-05
21030.0 4.3651e-05
21050.0 4.4154e-05
21070.0 4.4644e-05
21090.0 4.5113e-05
21110.0 4.551e-05
21130.0 4.5849e-05
21150.0 4.6136e-05
21170.0 4.6348e-05
21190.0 4.648e-05
21210.0 4.6545e-05
21230.0 4.6532e-05
21250.0 4.6444e-05
21270.0 4.6289e-05
21290.0 4.6061e-05
21310.0 4.5771e-05
21330.0 4.544e-05
21350.0 4.5048e-05
21370.0 4.4604e-05
21390.0 4.4136e-05
21410.0 4.364e-05
21430.0 4.3089e-05
21450.0 4.2537e-05
21470.0 4.199e-05
21490.0 4.1425e-05
21510.0 4.0856e-05
21530.0 4.032e-05
21550.0 3.9798e-05
21570.0 3.9283e-05
21590.0 3.8812e-05
21610.0 3.8389e-05
21630.0 3.7999e-05
21650.0 3.7654e-05
21670.0 3.7385e-05
21690.0 3.7169e-05
21710.0 3.7013e-05
21730.0 3.6926e-05
21750.0 3.6905e-05
21770.0 3.6953e-05
21790.0 3.7072e-05
21810.0 3.7252e-05
21830.0 3.7497e-05
21850.0 3.7816e-05
21870.0 3.8186e-05
21890.0 3.8594e-05
21910.0 3.9069e-05
21930.0 3.959e-05
21950.0 4.013e-05
21970.0 4.0709e-05
21990.0 4.1346e-05
22010.0 4.1973e-05
22030.0 4.2604e-05
22050.0 4.3263e-05
22070.0 4.3921e-05
22090.0 4.4542e-05
22110.0 4.5163e-05
22130.0 4.5778e-05
22150.0 4.6342e-05
22170.0 4.6862e-05
22190.0 4.736e-05
22210.0 4.7799e-05
22230.0 4.8156e-05
22250.0 4.8457e-05
22270.0 4.8689e-05
22290.0 4.8833e-05
22310.0 4.8895e-05
22330.0 4.8871e-05
22350.0 4.8752e-05
22370.0 4.8546e-05
22390.0 4.8243e-05
22410.0 4.7831e-05
22430.0 4.7349e-05
22450.0 4.6786e-05
22470.0 4.6119e-05
22490.0 4.538e-05
22510.0 4.46e-05
22530.0 4.3723e-05
22550.0 4.2771e-05
22570.0 4.1812e-05
22590.0 4.0816e-05
22610.0 3.9755e-05
22630.0 3.8686e-05
22650.0 3.765e-05
22670.0 3.657e-05
22690.0 3.5482e-05
22710.0 3.4444e-05
22730.0 3.3426e-05
22750.0 3.2379e-05
