#lamb flux
1010.0 8.38e-10
1030.0 1.0532e-09
1050.0 1.3e-09
1070.0 1.577e-09
1090.0 1.8907e-09
1110.0 2.211e-09
1130.0 2.5317e-09
1150.0 2.8662e-09
1170.0 3.2096e-09
1190.0 3.5332e-09
1210.0 3.8598e-09
1230.0 4.1965e-09
1250.0 4.5255e-09
1270.0 4.8446e-09
1290.0 5.1827e-09
1310.0 5.5215e-09
1330.0 5.848e-09
1350.0 6.1806e-09
1370.0 6.5269e-09
1390.0 6.8679e-09
1410.0 7.2025e-09
1430.0 7.5556e-09
1450.0 7.9123e-09
1470.0 8.2609e-09
1490.0 8.6162e-09
1510.0 8.993e-09
1530.0 9.3534e-09
1550.0 9.7108e-09
1570.0 1.0081e-08
1590.0 1.0452e-08
1610.0 1.0808e-08
1630.0 1.1174e-08
1650.0 1.1549e-08
1670.0 1.1911e-08
1690.0 1.2269e-08
1710.0 1.2639e-08
1730.0 1.3011e-08
1750.0 1.336e-08
1770.0 1.3719e-08
1790.0 1.4084e-08
1810.0 1.4437e-08
1830.0 1.4784e-08
1850.0 1.5148e-08
1870.0 1.5499e-08
1890.0 1.5839e-08
1910.0 1.6187e-08
1930.0 1.6546e-08
1950.0 1.6889e-08
1970.0 1.7231e-08
1990.0 1.7586e-08
2010.0 1.7937e-08
2030.0 1.8277e-08
2050.0 1.8629e-08
2070.0 1.8992e-08
2090.0 1.9336e-08
2110.0 1.9682e-08
2130.0 2.004e-08
2150.0 2.0394e-08
2170.0 2.0735e-08
2190.0 2.109e-08
2210.0 2.1448e-08
2230.0 2.179e-08
2250.0 2.2133e-08
2270.0 2.2494e-08
2290.0 2.2846e-08
2310.0 2.3188e-08
2330.0 2.3542e-08
2350.0 2.3901e-08
2370.0 2.4248e-08
2390.0 2.46e-08
2410.0 2.4971e-08
2430.0 2.5337e-08
2450.0 2.571e-08
2470.0 2.6125e-08
2490.0 2.6609e-08
2510.0 2.7168e-08
2530.0 2.7895e-08
2550.0 2.8903e-08
2570.0 3.0259e-08
2590.0 3.2054e-08
2610.0 3.462e-08
2630.0 3.8022e-08
2650.0 4.2181e-08
2670.0 4.7316e-08
2690.0 5.3531e-08
2710.0 6.034e-08
2730.0 6.7501e-08
2750.0 7.5248e-08
2770.0 8.2937e-08
2790.0 9.0089e-08
2810.0 9.6811e-08
2830.0 1.0311e-07
2850.0 1.084e-07
2870.0 1.1309e-07
2890.0 1.1746e-07
2910.0 1.2155e-07
2930.0 1.2544e-07
2950.0 1.2943e-07
2970.0 1.3358e-07
2990.0 1.3782e-07
3010.0 1.4224e-07
3030.0 1.4696e-07
3050.0 1.519e-07
3070.0 1.5693e-07
3090.0 1.6225e-07
3110.0 1.6792e-07
3130.0 1.74e-07
3150.0 1.8093e-07
3170.0 1.8976e-07
3190.0 2.0125e-07
3210.0 2.1627e-07
3230.0 2.3625e-07
3250.0 2.6157e-07
3270.0 2.8558e-07
3290.0 3.2382e-07
3310.0 4.0241e-07
3330.0 4.2849e-07
3350.0 4.4129e-07
3370.0 4.5359e-07
3390.0 4.661e-07
3410.0 4.7876e-07
3430.0 4.9152e-07
3450.0 5.0428e-07
3470.0 5.1682e-07
3490.0 5.2892e-07
3510.0 5.3995e-07
3530.0 5.3521e-07
3550.0 5.2041e-07
3570.0 5.2795e-07
3590.0 5.6099e-07
3610.0 6.113e-07
3630.0 6.3098e-07
3650.0 6.0594e-07
3670.0 5.5666e-07
3690.0 5.2817e-07
3710.0 5.3502e-07
3730.0 5.5263e-07
3750.0 5.6207e-07
3770.0 5.81e-07
3790.0 6.0215e-07
3810.0 5.9348e-07
3830.0 5.5312e-07
3850.0 5.171e-07
3870.0 5.0002e-07
3890.0 4.9418e-07
3910.0 4.8301e-07
3930.0 4.7742e-07
3950.0 4.9083e-07
3970.0 5.0653e-07
3990.0 5.1116e-07
4010.0 4.923e-07
4030.0 4.6551e-07
4050.0 4.4832e-07
4070.0 4.3377e-07
4090.0 4.2195e-07
4110.0 4.0648e-07
4130.0 3.8215e-07
4150.0 3.5771e-07
4170.0 3.4321e-07
4190.0 3.1998e-07
4210.0 2.8969e-07
4230.0 2.5902e-07
4250.0 2.2992e-07
4270.0 2.0823e-07
4290.0 1.9212e-07
4310.0 1.8361e-07
4330.0 1.8331e-07
4350.0 1.8411e-07
4370.0 1.8588e-07
4390.0 1.9269e-07
4410.0 1.974e-07
4430.0 1.905e-07
4450.0 1.7299e-07
4470.0 1.5771e-07
4490.0 1.4938e-07
4510.0 1.4404e-07
4530.0 1.4138e-07
4550.0 1.391e-07
4570.0 1.3852e-07
4590.0 1.4042e-07
4610.0 1.4479e-07
4630.0 1.474e-07
4650.0 1.4871e-07
4670.0 1.4509e-07
4690.0 1.3648e-07
4710.0 1.279e-07
4730.0 1.2236e-07
4750.0 1.1895e-07
4770.0 1.1936e-07
4790.0 1.1889e-07
4810.0 1.1634e-07
4830.0 1.1655e-07
4850.0 1.202e-07
4870.0 1.2139e-07
4890.0 1.192e-07
4910.0 1.1646e-07
4930.0 1.0983e-07
4950.0 1.0024e-07
4970.0 9.3693e-08
4990.0 8.8322e-08
5010.0 8.7166e-08
5030.0 9.0104e-08
5050.0 9.2418e-08
5070.0 9.587e-08
5090.0 1.0167e-07
5110.0 1.0322e-07
5130.0 1.0412e-07
5150.0 1.0604e-07
5170.0 1.0692e-07
5190.0 1.0973e-07
5210.0 1.103e-07
5230.0 1.0916e-07
5250.0 1.1005e-07
5270.0 1.1159e-07
5290.0 1.119e-07
5310.0 1.1106e-07
5330.0 1.0895e-07
5350.0 1.0746e-07
5370.0 1.0632e-07
5390.0 1.0491e-07
5410.0 1.0375e-07
5430.0 1.0372e-07
5450.0 1.0523e-07
5470.0 1.0718e-07
5490.0 1.1019e-07
5510.0 1.1353e-07
5530.0 1.1492e-07
5550.0 1.1665e-07
5570.0 1.1687e-07
5590.0 1.1442e-07
5610.0 1.1358e-07
5630.0 1.1445e-07
5650.0 1.1306e-07
5670.0 1.1056e-07
5690.0 1.0723e-07
5710.0 1.0697e-07
5730.0 1.0809e-07
5750.0 1.0348e-07
5770.0 9.8174e-08
5790.0 9.0214e-08
5810.0 7.8876e-08
5830.0 8.5055e-08
5850.0 9.422e-08
5870.0 9.6287e-08
5890.0 9.6806e-08
5910.0 9.7569e-08
5930.0 9.7374e-08
5950.0 9.5749e-08
5970.0 9.4602e-08
5990.0 9.3222e-08
6010.0 9.0388e-08
6030.0 8.7281e-08
6050.0 8.592e-08
6070.0 8.5556e-08
6090.0 8.4241e-08
6110.0 8.1423e-08
6130.0 7.8661e-08
6150.0 7.5499e-08
6170.0 7.2333e-08
6190.0 6.9127e-08
6210.0 6.668e-08
6230.0 6.5699e-08
6250.0 6.4307e-08
6270.0 6.2962e-08
6290.0 6.2457e-08
6310.0 6.2032e-08
6330.0 6.0663e-08
6350.0 5.8693e-08
6370.0 5.7562e-08
6390.0 5.6448e-08
6410.0 5.4864e-08
6430.0 5.3385e-08
6450.0 5.2202e-08
6470.0 5.1077e-08
6490.0 5.0294e-08
6510.0 4.9443e-08
6530.0 4.818e-08
6550.0 4.7113e-08
6570.0 4.6397e-08
6590.0 4.6308e-08
6610.0 4.6015e-08
6630.0 4.4471e-08
6650.0 4.3223e-08
6670.0 4.2781e-08
6690.0 4.2111e-08
6710.0 4.1104e-08
6730.0 4.0745e-08
6750.0 4.1061e-08
6770.0 4.3519e-08
6790.0 4.8691e-08
6810.0 4.6226e-08
6830.0 4.0565e-08
6850.0 3.8973e-08
6870.0 3.8376e-08
6890.0 3.8382e-08
6910.0 3.8465e-08
6930.0 3.8558e-08
6950.0 3.843e-08
6970.0 3.7455e-08
6990.0 3.7117e-08
7010.0 3.7671e-08
7030.0 3.784e-08
7050.0 3.729e-08
7070.0 3.6935e-08
7090.0 3.7194e-08
7110.0 3.8058e-08
7130.0 3.8183e-08
7150.0 3.832e-08
7170.0 3.8525e-08
7190.0 3.9061e-08
7210.0 3.9474e-08
7230.0 3.9881e-08
7250.0 4.0415e-08
7270.0 4.0792e-08
7290.0 4.1427e-08
7310.0 4.2206e-08
7330.0 4.1883e-08
7350.0 4.1007e-08
7370.0 4.0435e-08
7390.0 4.032e-08
7410.0 4.0513e-08
7430.0 4.1014e-08
7450.0 4.127e-08
7470.0 4.1839e-08
7490.0 4.1595e-08
7510.0 4.1155e-08
7530.0 4.1629e-08
7550.0 4.2955e-08
7570.0 4.2844e-08
7590.0 4.0625e-08
7610.0 4.0265e-08
7630.0 4.2562e-08
7650.0 4.3403e-08
7670.0 4.3726e-08
7690.0 4.5665e-08
7710.0 4.7146e-08
7730.0 4.7591e-08
7750.0 5.0081e-08
7770.0 4.8784e-08
7790.0 4.7613e-08
7810.0 5.0463e-08
7830.0 5.2382e-08
7850.0 5.372e-08
7870.0 5.4757e-08
7890.0 5.5192e-08
7910.0 5.4786e-08
7930.0 5.517e-08
7950.0 5.7654e-08
7970.0 5.7646e-08
7990.0 5.3691e-08
8010.0 5.1774e-08
8030.0 5.2787e-08
8050.0 5.3905e-08
8070.0 4.879e-08
8090.0 3.2022e-08
8110.0 3.3409e-08
8130.0 4.7605e-08
8150.0 5.1271e-08
8170.0 5.331e-08
8190.0 5.4484e-08
8210.0 5.3778e-08
8230.0 5.827e-08
8250.0 5.9528e-08
8270.0 5.6325e-08
8290.0 5.4117e-08
8310.0 5.3311e-08
8330.0 5.6177e-08
8350.0 5.8833e-08
8370.0 5.7741e-08
8390.0 5.5067e-08
8410.0 5.5011e-08
8430.0 5.1549e-08
8450.0 5.2656e-08
8470.0 5.7542e-08
8490.0 5.7716e-08
8510.0 5.3516e-08
8530.0 5.0186e-08
8550.0 4.8117e-08
8570.0 4.5333e-08
8590.0 4.663e-08
8610.0 4.9457e-08
8630.0 5.0796e-08
8650.0 5.1673e-08
8670.0 5.027e-08
8690.0 4.9098e-08
8710.0 4.5687e-08
8730.0 4.4038e-08
8750.0 4.5815e-08
8770.0 4.6523e-08
8790.0 4.6407e-08
8810.0 4.6158e-08
8830.0 4.7127e-08
8850.0 4.9495e-08
8870.0 4.6221e-08
8890.0 4.3582e-08
8910.0 4.2942e-08
8930.0 4.0395e-08
8950.0 3.8895e-08
8970.0 3.8868e-08
8990.0 3.721e-08
9010.0 3.4929e-08
9030.0 3.4137e-08
9050.0 3.3854e-08
9070.0 3.3601e-08
9090.0 3.3347e-08
9110.0 3.3092e-08
9130.0 3.2834e-08
9150.0 3.2576e-08
9170.0 3.2317e-08
9190.0 3.2058e-08
9210.0 3.1798e-08
9230.0 3.1538e-08
9250.0 3.1278e-08
9270.0 3.1019e-08
9290.0 3.0759e-08
9310.0 3.0501e-08
9330.0 3.0243e-08
9350.0 2.9987e-08
9370.0 2.9731e-08
9390.0 2.9477e-08
9410.0 2.9224e-08
9430.0 2.8972e-08
9450.0 2.8722e-08
9470.0 2.8474e-08
9490.0 2.8227e-08
9510.0 2.7982e-08
9530.0 2.7739e-08
9550.0 2.7498e-08
9570.0 2.7259e-08
9590.0 2.7022e-08
9610.0 2.6788e-08
9630.0 2.6556e-08
9650.0 2.6326e-08
9670.0 2.6099e-08
9690.0 2.5873e-08
9710.0 2.565e-08
9730.0 2.543e-08
9750.0 2.5212e-08
9770.0 2.4996e-08
9790.0 2.4783e-08
9810.0 2.4572e-08
9830.0 2.4363e-08
9850.0 2.4157e-08
9870.0 2.3954e-08
9890.0 2.3753e-08
9910.0 2.3554e-08
9930.0 2.3358e-08
9950.0 2.3164e-08
9970.0 2.2973e-08
9990.0 2.2784e-08
10010.0 2.2598e-08
10030.0 2.2414e-08
10050.0 2.2232e-08
10070.0 2.2052e-08
10090.0 2.1875e-08
10110.0 2.17e-08
10130.0 2.1528e-08
10150.0 2.1357e-08
10170.0 2.1189e-08
10190.0 2.1023e-08
10210.0 2.0859e-08
10230.0 2.0698e-08
10250.0 2.0538e-08
10270.0 2.038e-08
10290.0 2.0225e-08
10310.0 2.0071e-08
10330.0 1.992e-08
10350.0 1.977e-08
10370.0 1.9623e-08
10390.0 1.9474e-08
10410.0 1.93e-08
10430.0 1.9119e-08
10450.0 1.9012e-08
10470.0 1.8888e-08
10490.0 1.8762e-08
10510.0 1.8635e-08
10530.0 1.8502e-08
10550.0 1.8371e-08
10570.0 1.8243e-08
10590.0 1.8114e-08
10610.0 1.7986e-08
10630.0 1.7862e-08
10650.0 1.7739e-08
10670.0 1.7614e-08
10690.0 1.7492e-08
10710.0 1.7374e-08
10730.0 1.7254e-08
10750.0 1.7134e-08
10770.0 1.702e-08
10790.0 1.6906e-08
10810.0 1.6791e-08
10830.0 1.6678e-08
10850.0 1.6569e-08
10870.0 1.6457e-08
10890.0 1.6346e-08
10910.0 1.6238e-08
10930.0 1.613e-08
10950.0 1.602e-08
10970.0 1.591e-08
10990.0 1.5802e-08
11010.0 1.5518e-08
11030.0 1.5404e-08
11050.0 1.5292e-08
11070.0 1.5178e-08
11090.0 1.5058e-08
11110.0 1.4941e-08
11130.0 1.4824e-08
11150.0 1.4702e-08
11170.0 1.4579e-08
11190.0 1.446e-08
11210.0 1.4338e-08
11230.0 1.4213e-08
11250.0 1.4093e-08
11270.0 1.3975e-08
11290.0 1.3856e-08
11310.0 1.374e-08
11330.0 1.3633e-08
11350.0 1.3529e-08
11370.0 1.3427e-08
11390.0 1.3333e-08
11410.0 1.3244e-08
11430.0 1.3156e-08
11450.0 1.3073e-08
11470.0 1.2995e-08
11490.0 1.2918e-08
11510.0 1.2841e-08
11530.0 1.2767e-08
11550.0 1.2694e-08
11570.0 1.2618e-08
11590.0 1.2542e-08
11610.0 1.2467e-08
11630.0 1.2388e-08
11650.0 1.2306e-08
11670.0 1.2225e-08
11690.0 1.2142e-08
11710.0 1.2056e-08
11730.0 1.1969e-08
11750.0 1.1884e-08
11770.0 1.1796e-08
11790.0 1.1706e-08
11810.0 1.162e-08
11830.0 1.1534e-08
11850.0 1.1445e-08
11870.0 1.136e-08
11890.0 1.128e-08
11910.0 1.12e-08
11930.0 1.1122e-08
11950.0 1.1051e-08
11970.0 1.0982e-08
11990.0 1.0914e-08
12010.0 1.0853e-08
12030.0 1.0796e-08
12050.0 1.0742e-08
12070.0 1.0692e-08
12090.0 1.0648e-08
12110.0 1.0607e-08
12130.0 1.0569e-08
12150.0 1.0534e-08
12170.0 1.0503e-08
12190.0 1.0471e-08
12210.0 1.0442e-08
12230.0 1.0414e-08
12250.0 1.0385e-08
12270.0 1.0355e-08
12290.0 1.0323e-08
12310.0 1.0289e-08
12330.0 1.0251e-08
12350.0 1.0208e-08
12370.0 1.0163e-08
12390.0 1.0113e-08
12410.0 1.0055e-08
12430.0 9.9949e-09
12450.0 9.9311e-09
12470.0 9.8608e-09
12490.0 9.7862e-09
12510.0 9.7113e-09
12530.0 9.631e-09
12550.0 9.5458e-09
12570.0 9.4609e-09
12590.0 9.3754e-09
12610.0 9.285e-09
12630.0 9.1939e-09
12650.0 9.1076e-09
12670.0 9.0193e-09
12690.0 8.9302e-09
12710.0 8.8455e-09
12730.0 8.7637e-09
12750.0 8.6799e-09
12770.0 8.6009e-09
12790.0 8.5274e-09
12810.0 8.4558e-09
12830.0 8.3864e-09
12850.0 8.3241e-09
12870.0 8.2662e-09
12890.0 8.2107e-09
12910.0 8.1606e-09
12930.0 8.1166e-09
12950.0 8.0758e-09
12970.0 8.0394e-09
12990.0 8.0099e-09
13010.0 7.985e-09
13030.0 7.9643e-09
13050.0 7.9486e-09
13070.0 7.9375e-09
13090.0 7.9294e-09
13110.0 7.9244e-09
13130.0 7.9215e-09
13150.0 7.9197e-09
13170.0 7.918e-09
13190.0 7.9155e-09
13210.0 7.9112e-09
13230.0 7.904e-09
13250.0 7.8933e-09
13270.0 7.879e-09
13290.0 7.8602e-09
13310.0 7.8357e-09
13330.0 7.807e-09
13350.0 7.7741e-09
13370.0 7.7353e-09
13390.0 7.691e-09
13410.0 7.6451e-09
13430.0 7.5944e-09
13450.0 7.5383e-09
13470.0 7.4802e-09
13490.0 7.4206e-09
13510.0 7.3544e-09
13530.0 7.2863e-09
13550.0 7.2186e-09
13570.0 7.1481e-09
13590.0 7.0739e-09
13610.0 7.0006e-09
13630.0 6.9283e-09
13650.0 6.8519e-09
13670.0 6.7755e-09
13690.0 6.7015e-09
13710.0 6.6264e-09
13730.0 6.5478e-09
13750.0 6.4743e-09
13770.0 6.4023e-09
13790.0 6.3291e-09
13810.0 6.2578e-09
13830.0 6.1913e-09
13850.0 6.1243e-09
13870.0 6.0581e-09
13890.0 5.9963e-09
13910.0 5.9372e-09
13930.0 5.878e-09
13950.0 5.8213e-09
13970.0 5.7697e-09
13990.0 5.7186e-09
14010.0 5.6687e-09
14030.0 5.6225e-09
14050.0 5.5787e-09
14070.0 5.5345e-09
14090.0 5.4936e-09
14110.0 5.4557e-09
14130.0 5.4188e-09
14150.0 5.383e-09
14170.0 5.3505e-09
14190.0 5.3195e-09
14210.0 5.2889e-09
14230.0 5.26e-09
14250.0 5.2331e-09
14270.0 5.206e-09
14290.0 5.1792e-09
14310.0 5.1545e-09
14330.0 5.1302e-09
14350.0 5.1056e-09
14370.0 5.0819e-09
14390.0 5.0594e-09
14410.0 5.0363e-09
14430.0 5.0134e-09
14450.0 4.9916e-09
14470.0 4.97e-09
14490.0 4.9475e-09
14510.0 4.926e-09
14530.0 4.9051e-09
14550.0 4.8836e-09
14570.0 4.8618e-09
14590.0 4.8409e-09
14610.0 4.8194e-09
14630.0 4.7969e-09
14650.0 4.775e-09
14670.0 4.7531e-09
14690.0 4.7303e-09
14710.0 4.7068e-09
14730.0 4.6844e-09
14750.0 4.6612e-09
14770.0 4.6369e-09
14790.0 4.6129e-09
14810.0 4.5891e-09
14830.0 4.5632e-09
14850.0 4.5373e-09
14870.0 4.512e-09
14890.0 4.4861e-09
14910.0 4.4596e-09
14930.0 4.4344e-09
14950.0 4.4107e-09
14970.0 4.3872e-09
14990.0 4.3659e-09
15010.0 4.3473e-09
15030.0 4.3304e-09
15050.0 4.3148e-09
15070.0 4.3017e-09
15090.0 4.2897e-09
15110.0 4.2781e-09
15130.0 4.2671e-09
15150.0 4.2568e-09
15170.0 4.2462e-09
15190.0 4.2355e-09
15210.0 4.2252e-09
15230.0 4.215e-09
15250.0 4.2043e-09
15270.0 4.1937e-09
15290.0 4.1837e-09
15310.0 4.1732e-09
15330.0 4.1627e-09
15350.0 4.1525e-09
15370.0 4.1423e-09
15390.0 4.1315e-09
15410.0 4.1211e-09
15430.0 4.1109e-09
15450.0 4.1005e-09
15470.0 4.0898e-09
15490.0 4.0796e-09
15510.0 4.0694e-09
15530.0 4.0588e-09
15550.0 4.0484e-09
15570.0 4.0383e-09
15590.0 4.0278e-09
15610.0 4.0171e-09
15630.0 4.0069e-09
15650.0 3.9967e-09
15670.0 3.9861e-09
15690.0 3.9757e-09
15710.0 3.9657e-09
15730.0 3.9551e-09
15750.0 3.9446e-09
15770.0 3.9344e-09
15790.0 3.9242e-09
15810.0 3.9134e-09
15830.0 3.903e-09
15850.0 3.893e-09
15870.0 3.8825e-09
15890.0 3.872e-09
15910.0 3.8619e-09
15930.0 3.8516e-09
15950.0 3.8409e-09
15970.0 3.8306e-09
15990.0 3.8205e-09
16010.0 3.81e-09
16030.0 3.7993e-09
16050.0 3.7893e-09
16070.0 3.779e-09
16090.0 3.7685e-09
16110.0 3.7582e-09
16130.0 3.7482e-09
16150.0 3.7375e-09
16170.0 3.727e-09
16190.0 3.7169e-09
16210.0 3.7065e-09
16230.0 3.6959e-09
16250.0 3.6857e-09
16270.0 3.6756e-09
16290.0 3.6651e-09
16310.0 3.6547e-09
16330.0 3.6446e-09
16350.0 3.6343e-09
16370.0 3.6235e-09
16390.0 3.6133e-09
16410.0 3.6032e-09
16430.0 3.5927e-09
16450.0 3.5823e-09
16470.0 3.5723e-09
16490.0 3.5619e-09
16510.0 3.5513e-09
16530.0 3.5411e-09
16550.0 3.5309e-09
16570.0 3.5203e-09
16590.0 3.5099e-09
16610.0 3.4999e-09
16630.0 3.4895e-09
16650.0 3.479e-09
16670.0 3.4689e-09
16690.0 3.4588e-09
16710.0 3.4481e-09
16730.0 3.4377e-09
16750.0 3.4276e-09
16770.0 3.4172e-09
16790.0 3.4066e-09
16810.0 3.3965e-09
16830.0 3.3864e-09
16850.0 3.3759e-09
16870.0 3.3656e-09
16890.0 3.3555e-09
16910.0 3.345e-09
16930.0 3.3344e-09
16950.0 3.3243e-09
16970.0 3.3141e-09
16990.0 3.3035e-09
17010.0 3.2933e-09
17030.0 3.2833e-09
17050.0 3.2728e-09
17070.0 3.2623e-09
17090.0 3.2522e-09
17110.0 3.242e-09
17130.0 3.2313e-09
17150.0 3.221e-09
17170.0 3.2109e-09
17190.0 3.2005e-09
17210.0 3.1901e-09
17230.0 3.1801e-09
17250.0 3.1698e-09
17270.0 3.1592e-09
17290.0 3.1489e-09
17310.0 3.1388e-09
17330.0 3.1283e-09
17350.0 3.1177e-09
17370.0 3.1078e-09
17390.0 3.0975e-09
17410.0 3.087e-09
17430.0 3.0768e-09
17450.0 3.0668e-09
17470.0 3.0561e-09
17490.0 3.0456e-09
17510.0 3.0356e-09
17530.0 3.0253e-09
17550.0 3.0147e-09
17570.0 3.0045e-09
17590.0 2.9945e-09
17610.0 2.984e-09
17630.0 2.9736e-09
17650.0 2.9635e-09
17670.0 2.9532e-09
17690.0 2.9424e-09
17710.0 2.9323e-09
17730.0 2.9222e-09
17750.0 2.9117e-09
17770.0 2.9013e-09
17790.0 2.8914e-09
17810.0 2.8809e-09
17830.0 2.8704e-09
17850.0 2.8602e-09
17870.0 2.85e-09
17890.0 2.8394e-09
17910.0 2.829e-09
17930.0 2.819e-09
17950.0 2.8087e-09
17970.0 2.7982e-09
17990.0 2.7881e-09
18010.0 2.778e-09
18030.0 2.7672e-09
18050.0 2.7569e-09
18070.0 2.7468e-09
18090.0 2.7364e-09
18110.0 2.7259e-09
18130.0 2.7158e-09
18150.0 2.7056e-09
18170.0 2.6951e-09
18190.0 2.6848e-09
18210.0 2.6748e-09
18230.0 2.6642e-09
18250.0 2.6536e-09
18270.0 2.6436e-09
18290.0 2.6333e-09
18310.0 2.6228e-09
18330.0 2.6125e-09
18350.0 2.6025e-09
18370.0 2.592e-09
18390.0 2.5815e-09
18410.0 2.5714e-09
18430.0 2.5612e-09
18450.0 2.5505e-09
18470.0 2.5402e-09
18490.0 2.5301e-09
18510.0 2.5197e-09
18530.0 2.5093e-09
18550.0 2.4993e-09
18570.0 2.4889e-09
18590.0 2.4783e-09
18610.0 2.468e-09
18630.0 2.4579e-09
18650.0 2.4474e-09
18670.0 2.4369e-09
18690.0 2.4269e-09
18710.0 2.4166e-09
18730.0 2.4061e-09
18750.0 2.3959e-09
18770.0 2.3858e-09
18790.0 2.3751e-09
18810.0 2.3646e-09
18830.0 2.3546e-09
18850.0 2.3442e-09
18870.0 2.3337e-09
18890.0 2.3235e-09
18910.0 2.3134e-09
18930.0 2.3028e-09
18950.0 2.2925e-09
18970.0 2.2824e-09
18990.0 2.272e-09
19010.0 2.2612e-09
19030.0 2.2511e-09
19050.0 2.241e-09
19070.0 2.2305e-09
19090.0 2.2201e-09
19110.0 2.2101e-09
19130.0 2.1996e-09
19150.0 2.1891e-09
19170.0 2.1789e-09
19190.0 2.1687e-09
19210.0 2.1581e-09
19230.0 2.1477e-09
19250.0 2.1377e-09
19270.0 2.1272e-09
19290.0 2.1168e-09
19310.0 2.1067e-09
19330.0 2.0965e-09
19350.0 2.0857e-09
19370.0 2.0754e-09
19390.0 2.0653e-09
19410.0 2.0548e-09
19430.0 2.0443e-09
19450.0 2.0342e-09
19470.0 2.024e-09
19490.0 2.0134e-09
19510.0 2.0031e-09
19530.0 1.9931e-09
19550.0 1.9825e-09
19570.0 1.9719e-09
19590.0 1.9618e-09
19610.0 1.9515e-09
19630.0 1.941e-09
19650.0 1.9307e-09
19670.0 1.9207e-09
19690.0 1.9101e-09
19710.0 1.8997e-09
19730.0 1.8895e-09
19750.0 1.8792e-09
19770.0 1.8685e-09
19790.0 1.8583e-09
19810.0 1.8482e-09
19830.0 1.8377e-09
19850.0 1.8273e-09
19870.0 1.8174e-09
19890.0 1.8072e-09
19910.0 1.7969e-09
19930.0 1.7874e-09
19950.0 1.7785e-09
19970.0 1.7699e-09
19990.0 1.7623e-09
20010.0 1.756e-09
20030.0 1.7505e-09
20050.0 1.7459e-09
20070.0 1.7424e-09
20090.0 1.7395e-09
20110.0 1.7369e-09
20130.0 1.7348e-09
20150.0 1.7329e-09
20170.0 1.731e-09
20190.0 1.729e-09
20210.0 1.7271e-09
20230.0 1.7251e-09
20250.0 1.7229e-09
20270.0 1.7206e-09
20290.0 1.7183e-09
20310.0 1.7158e-09
20330.0 1.713e-09
20350.0 1.7103e-09
20370.0 1.7074e-09
20390.0 1.7043e-09
20410.0 1.7011e-09
20430.0 1.698e-09
20450.0 1.6945e-09
20470.0 1.691e-09
20490.0 1.6876e-09
20510.0 1.6841e-09
20530.0 1.6806e-09
20550.0 1.6771e-09
20570.0 1.6739e-09
20590.0 1.6705e-09
20610.0 1.6673e-09
20630.0 1.6642e-09
20650.0 1.6612e-09
20670.0 1.658e-09
20690.0 1.655e-09
20710.0 1.6521e-09
20730.0 1.6489e-09
20750.0 1.6457e-09
20770.0 1.6425e-09
20790.0 1.639e-09
20810.0 1.6352e-09
20830.0 1.6313e-09
20850.0 1.6271e-09
20870.0 1.6225e-09
20890.0 1.6175e-09
20910.0 1.6125e-09
20930.0 1.6072e-09
20950.0 1.6014e-09
20970.0 1.5956e-09
20990.0 1.5897e-09
21010.0 1.5834e-09
21030.0 1.5771e-09
21050.0 1.5709e-09
21070.0 1.5646e-09
21090.0 1.5581e-09
21110.0 1.552e-09
21130.0 1.546e-09
21150.0 1.5398e-09
21170.0 1.5337e-09
21190.0 1.528e-09
21210.0 1.522e-09
21230.0 1.5159e-09
21250.0 1.5101e-09
21270.0 1.5042e-09
21290.0 1.4981e-09
21310.0 1.4919e-09
21330.0 1.486e-09
21350.0 1.4796e-09
21370.0 1.473e-09
21390.0 1.4664e-09
21410.0 1.4597e-09
21430.0 1.4524e-09
21450.0 1.4452e-09
21470.0 1.4381e-09
21490.0 1.4305e-09
21510.0 1.4227e-09
21530.0 1.4152e-09
21550.0 1.4074e-09
21570.0 1.3992e-09
21590.0 1.3912e-09
21610.0 1.3833e-09
21630.0 1.3751e-09
21650.0 1.3667e-09
21670.0 1.3588e-09
21690.0 1.3508e-09
21710.0 1.3426e-09
21730.0 1.3346e-09
21750.0 1.3268e-09
21770.0 1.3186e-09
21790.0 1.3105e-09
21810.0 1.3027e-09
21830.0 1.2948e-09
21850.0 1.2866e-09
21870.0 1.2787e-09
21890.0 1.271e-09
21910.0 1.263e-09
21930.0 1.2551e-09
21950.0 1.2475e-09
21970.0 1.2398e-09
21990.0 1.2319e-09
22010.0 1.2244e-09
22030.0 1.2172e-09
22050.0 1.21e-09
22070.0 1.2029e-09
22090.0 1.1965e-09
22110.0 1.1901e-09
22130.0 1.1838e-09
22150.0 1.178e-09
22170.0 1.1725e-09
22190.0 1.1671e-09
22210.0 1.162e-09
22230.0 1.1574e-09
22250.0 1.1529e-09
22270.0 1.1485e-09
22290.0 1.1445e-09
22310.0 1.1406e-09
22330.0 1.1367e-09
22350.0 1.1329e-09
22370.0 1.1294e-09
22390.0 1.1257e-09
22410.0 1.122e-09
22430.0 1.1185e-09
22450.0 1.1149e-09
22470.0 1.1112e-09
22490.0 1.1075e-09
22510.0 1.1038e-09
22530.0 1.1e-09
22550.0 1.0961e-09
22570.0 1.0924e-09
22590.0 1.0886e-09
22610.0 1.0847e-09
22630.0 1.0809e-09
22650.0 1.0773e-09
