#lamb flux
1010.0 4.503e-08
1030.0 4.9365e-08
1050.0 5.4352e-08
1070.0 5.9965e-08
1090.0 6.6341e-08
1110.0 7.288e-08
1130.0 7.9462e-08
1150.0 8.6356e-08
1170.0 9.3468e-08
1190.0 1.0021e-07
1210.0 1.0705e-07
1230.0 1.1411e-07
1250.0 1.2103e-07
1270.0 1.2775e-07
1290.0 1.3485e-07
1310.0 1.4194e-07
1330.0 1.4874e-07
1350.0 1.5562e-07
1370.0 1.6273e-07
1390.0 1.6965e-07
1410.0 1.7637e-07
1430.0 1.8339e-07
1450.0 1.9041e-07
1470.0 1.972e-07
1490.0 2.0406e-07
1510.0 2.113e-07
1530.0 2.1816e-07
1550.0 2.2493e-07
1570.0 2.3192e-07
1590.0 2.3893e-07
1610.0 2.4561e-07
1630.0 2.525e-07
1650.0 2.5957e-07
1670.0 2.664e-07
1690.0 2.7314e-07
1710.0 2.8013e-07
1730.0 2.8716e-07
1750.0 2.9375e-07
1770.0 3.0052e-07
1790.0 3.0742e-07
1810.0 3.1408e-07
1830.0 3.2061e-07
1850.0 3.2752e-07
1870.0 3.3422e-07
1890.0 3.4066e-07
1910.0 3.4721e-07
1930.0 3.5388e-07
1950.0 3.6019e-07
1970.0 3.6637e-07
1990.0 3.7274e-07
2010.0 3.7894e-07
2030.0 3.8483e-07
2050.0 3.9085e-07
2070.0 3.9694e-07
2090.0 4.0255e-07
2110.0 4.0804e-07
2130.0 4.1362e-07
2150.0 4.1894e-07
2170.0 4.2385e-07
2190.0 4.2885e-07
2210.0 4.3375e-07
2230.0 4.3822e-07
2250.0 4.4249e-07
2270.0 4.4687e-07
2290.0 4.5085e-07
2310.0 4.544e-07
2330.0 4.5798e-07
2350.0 4.6151e-07
2370.0 4.6479e-07
2390.0 4.6837e-07
2410.0 4.7295e-07
2430.0 4.7846e-07
2450.0 4.8547e-07
2470.0 4.9522e-07
2490.0 5.0825e-07
2510.0 5.234e-07
2530.0 5.4239e-07
2550.0 5.673e-07
2570.0 5.994e-07
2590.0 6.4218e-07
2610.0 7.0752e-07
2630.0 8.0035e-07
2650.0 9.1944e-07
2670.0 1.0702e-06
2690.0 1.2508e-06
2710.0 1.4371e-06
2730.0 1.6143e-06
2750.0 1.7822e-06
2770.0 1.92e-06
2790.0 2.0206e-06
2810.0 2.0922e-06
2830.0 2.1399e-06
2850.0 2.1626e-06
2870.0 2.1713e-06
2890.0 2.172e-06
2910.0 2.167e-06
2930.0 2.1583e-06
2950.0 2.149e-06
2970.0 2.1398e-06
2990.0 2.13e-06
3010.0 6.7954e-05
3030.0 6.7676e-05
3050.0 6.7401e-05
3070.0 6.7088e-05
3090.0 6.674e-05
3110.0 6.6286e-05
3130.0 6.5647e-05
3150.0 6.4759e-05
3170.0 6.3498e-05
3190.0 6.1886e-05
3210.0 6.0028e-05
3230.0 5.8e-05
3250.0 5.5928e-05
3270.0 5.4375e-05
3290.0 5.3191e-05
3310.0 5.2916e-05
3330.0 5.3248e-05
3350.0 5.4175e-05
3370.0 5.5688e-05
3390.0 5.771e-05
3410.0 5.9977e-05
3430.0 6.257e-05
3450.0 6.5596e-05
3470.0 6.8939e-05
3490.0 7.2535e-05
3510.0 7.6637e-05
3530.0 8.1123e-05
3550.0 8.594e-05
3570.0 9.126e-05
3590.0 9.7205e-05
3610.0 0.00010384
3630.0 0.00011043
3650.0 0.00011743
3670.0 0.00012372
3690.0 0.00012841
3710.0 0.00013075
3730.0 0.00012934
3750.0 0.00012427
3770.0 0.00012712
3790.0 0.00012419
3810.0 9.5744e-05
3830.0 9.1977e-05
3850.0 0.00013556
3870.0 0.00013083
3890.0 9.8989e-05
3910.0 9.6225e-05
3930.0 0.00012288
3950.0 0.00014704
3970.0 0.00016714
3990.0 0.00011497
4010.0 0.00021513
4030.0 0.00020754
4050.0 0.00021898
4070.0 0.00024832
4090.0 0.00023524
4110.0 0.00020746
4130.0 0.00025574
4150.0 0.00034288
4170.0 0.00027139
4190.0 0.00023931
4210.0 0.00026994
4230.0 0.00033492
4250.0 0.00040048
4270.0 0.00043547
4290.0 0.00038675
4310.0 0.00035713
4330.0 0.00035343
4350.0 0.00045326
4370.0 0.0005517
4390.0 0.00043775
4410.0 0.0002434
4430.0 0.00017185
4450.0 0.00016056
4470.0 9.9032e-05
4490.0 0.00017548
4510.0 0.00037845
4530.0 0.0004618
4550.0 0.00043525
4570.0 0.0003893
4590.0 0.00041649
4610.0 0.00082897
4630.0 0.0011639
4650.0 0.0010969
4670.0 0.00096338
4690.0 0.0009907
4710.0 0.0010372
4730.0 0.00084456
4750.0 0.00054325
4770.0 0.00037227
4790.0 0.00041674
4810.0 0.00043952
4830.0 0.00043569
4850.0 0.00047347
4870.0 0.00062731
4890.0 0.00072684
4910.0 0.00056188
4930.0 0.00054611
4950.0 0.00063038
4970.0 0.00084237
4990.0 0.0011367
5010.0 0.001312
5030.0 0.0010428
5050.0 0.00063313
5070.0 0.00045144
5090.0 0.0003437
5110.0 0.00032051
5130.0 0.00038474
5150.0 0.00037002
5170.0 0.00034691
5190.0 0.00030797
5210.0 0.00034299
5230.0 0.00043044
5250.0 0.00050425
5270.0 0.00046366
5290.0 0.00050053
5310.0 0.00067711
5330.0 0.00072283
5350.0 0.00071182
5370.0 0.00080413
5390.0 0.0010057
5410.0 0.00085446
5430.0 0.00064803
5450.0 0.00065701
5470.0 0.00077009
5490.0 0.0009682
5510.0 0.00118
5530.0 0.0013688
5550.0 0.0012311
5570.0 0.0011017
5590.0 0.00090214
5610.0 0.00092088
5630.0 0.0010415
5650.0 0.00096138
5670.0 0.00088417
5690.0 0.00071091
5710.0 0.00073284
5730.0 0.00071489
5750.0 0.0003802
5770.0 0.00027124
5790.0 0.00033922
5810.0 0.00035807
5830.0 0.00056567
5850.0 0.0007411
5870.0 0.00079217
5890.0 0.00075054
5910.0 0.00072866
5930.0 0.00070349
5950.0 0.00072751
5970.0 0.00090704
5990.0 0.00073946
6010.0 0.00056516
6030.0 0.00045909
6050.0 0.00041021
6070.0 0.0004958
6090.0 0.00056079
6110.0 0.00056864
6130.0 0.00051862
6150.0 0.00040577
6170.0 0.00031642
6190.0 0.00039174
6210.0 0.0006267
6230.0 0.0009271
6250.0 0.00099426
6270.0 0.00075367
6290.0 0.00064558
6310.0 0.00049191
6330.0 0.00035749
6350.0 0.00035374
6370.0 0.00037152
6390.0 0.00044703
6410.0 0.00057868
6430.0 0.00069828
6450.0 0.0008621
6470.0 0.00090829
6490.0 0.0010899
6510.0 0.0012235
6530.0 0.0012466
6550.0 0.0011489
6570.0 0.00092616
6590.0 0.00088954
6610.0 0.00073539
6630.0 0.00076994
6650.0 0.00074692
6670.0 0.00065203
6690.0 0.00050427
6710.0 0.000494
6730.0 0.00021314
6750.0 0.00028972
6770.0 0.0004624
6790.0 0.00061777
6810.0 0.00043682
6830.0 0.00044595
6850.0 0.00037017
6870.0 0.00034886
6890.0 0.00029267
6910.0 0.00035591
6930.0 0.00033466
6950.0 0.00040494
6970.0 0.00041785
6990.0 0.00046264
7010.0 0.00044884
7030.0 0.00051308
7050.0 0.0004411
7070.0 0.0003658
7090.0 0.0003919
7110.0 0.00041311
7130.0 0.00047622
7150.0 0.00054342
7170.0 0.00060868
7190.0 0.00064415
7210.0 0.00056786
7230.0 0.00057376
7250.0 0.00061782
7270.0 0.0006669
7290.0 0.00081928
7310.0 0.00085683
7330.0 0.00079293
7350.0 0.00070837
7370.0 0.00051722
7390.0 0.00054006
7410.0 0.00067291
7430.0 0.0007675
7450.0 0.00082556
7470.0 0.00075475
7490.0 0.00060895
7510.0 0.001008
7530.0 0.00090679
7550.0 0.00085234
7570.0 0.0005706
7590.0 0.00024064
7610.0 0.00016494
7630.0 0.00026066
7650.0 0.00035532
7670.0 0.0005786
7690.0 0.0006476
7710.0 0.00057711
7730.0 0.00056704
7750.0 0.00075354
7770.0 0.00077387
7790.0 0.00070913
7810.0 0.00056968
7830.0 0.00061788
7850.0 0.00068239
7870.0 0.00067094
7890.0 0.00052272
7910.0 0.00034463
7930.0 0.0003577
7950.0 0.00032228
7970.0 0.00026933
7990.0 0.00024092
8010.0 0.00016384
8030.0 0.00015147
8050.0 0.0001632
8070.0 0.00018127
8090.0 0.00021779
8110.0 0.00020396
8130.0 0.00012534
8150.0 0.00012798
8170.0 7.5778e-05
8190.0 4.9631e-05
8210.0 0.00011433
8230.0 0.00013662
8250.0 5.9052e-05
8270.0 4.7325e-05
8290.0 8.2012e-05
8310.0 7.041e-05
8330.0 4.3091e-05
8350.0 3.4648e-05
8370.0 9.8231e-06
8390.0 3.7316e-05
8410.0 4.3709e-05
8430.0 5.4425e-05
8450.0 6.1129e-05
8470.0 9.9793e-05
8490.0 8.1734e-05
8510.0 6.3731e-05
8530.0 3.3417e-05
8550.0 0.00011045
8570.0 0.00017129
8590.0 0.00012179
8610.0 0.00018087
8630.0 0.00019667
8650.0 0.00010899
8670.0 0.00015731
8690.0 0.00024125
8710.0 0.00020817
8730.0 0.0002237
8750.0 0.00017707
8770.0 0.00015808
8790.0 0.00017513
8810.0 0.00018899
8830.0 0.00010678
8850.0 4.8837e-05
8870.0 3.5395e-05
8890.0 8.2567e-05
8910.0 0.00012856
8930.0 0.00016853
8950.0 0.00018944
8970.0 0.00018302
8990.0 0.00013938
9010.0 0.00011015
9030.0 8.4286e-05
9050.0 8.7877e-05
9070.0 9.149e-05
9090.0 9.4399e-05
9110.0 9.7875e-05
9130.0 0.00010039
9150.0 0.00010219
9170.0 0.00010411
9190.0 0.00010616
9210.0 0.00010831
9230.0 0.00011059
9250.0 0.0001129
9270.0 0.00011528
9290.0 0.00011772
9310.0 0.00012016
9330.0 0.00012264
9350.0 0.0001252
9370.0 0.00012778
9390.0 0.00013036
9410.0 0.00013302
9430.0 0.00013574
9450.0 0.00013845
9470.0 0.0001412
9490.0 0.00014402
9510.0 0.00014687
9530.0 0.00014972
9550.0 0.00015267
9570.0 0.00015566
9590.0 0.00015865
9610.0 0.00016168
9630.0 0.0001648
9650.0 0.00016794
9670.0 0.00017107
9690.0 0.00017428
9710.0 0.00017755
9730.0 0.00018081
9750.0 0.00018412
9770.0 0.00018753
9790.0 0.00019093
9810.0 0.00019434
9830.0 0.00019782
9850.0 0.00020135
9870.0 0.00020485
9890.0 0.00020841
9910.0 0.00021205
9930.0 0.00021567
9950.0 0.00021931
9970.0 0.00022303
9990.0 0.00022678
10010.0 0.00020426
10030.0 0.00020757
10050.0 0.00021091
10070.0 0.00021422
10090.0 0.00021756
10110.0 0.00022098
10130.0 0.00022439
10150.0 0.00022778
10170.0 0.00023119
10190.0 0.00023465
10210.0 0.00023807
10230.0 0.00024147
10250.0 0.00024492
10270.0 0.00024836
10290.0 0.00025176
10310.0 0.00025519
10330.0 0.00025864
10350.0 0.00026204
10370.0 0.00026542
10390.0 0.00026883
10410.0 0.00027222
10430.0 0.00027554
10450.0 0.00027888
10470.0 0.00028222
10490.0 0.0002855
10510.0 0.00028874
10530.0 0.00029203
10550.0 0.00029525
10570.0 0.0002984
10590.0 0.00030154
10610.0 0.00030468
10630.0 0.00030772
10650.0 0.00031073
10670.0 0.00031375
10690.0 0.0003167
10710.0 0.00031958
10730.0 0.00032244
10750.0 0.00032529
10770.0 0.00032801
10790.0 0.00033069
10810.0 0.00033334
10830.0 0.00033591
10850.0 0.00033834
10870.0 0.0003407
10890.0 0.00034283
10910.0 0.00034457
10930.0 0.00034577
10950.0 0.00034615
10970.0 0.00034543
10990.0 0.0003435
11010.0 0.00034844
11030.0 0.00034319
11050.0 0.00033659
11070.0 0.00032857
11090.0 0.00031886
11110.0 0.00030876
11130.0 0.00029822
11150.0 0.0002869
11170.0 0.00027528
11190.0 0.00026405
11210.0 0.00025253
11230.0 0.00024081
11250.0 0.00022967
11270.0 0.00021904
11290.0 0.00020846
11310.0 0.00019848
11330.0 0.00018969
11350.0 0.00018139
11370.0 0.00017369
11390.0 0.00016698
11410.0 0.00016103
11430.0 0.00015543
11450.0 0.00015049
11470.0 0.0001461
11490.0 0.00014193
11510.0 0.00013784
11530.0 0.00013397
11550.0 0.0001301
11570.0 0.000126
11590.0 0.00012178
11610.0 0.00011752
11630.0 0.00011296
11650.0 0.00010814
11670.0 0.00010343
11690.0 9.8694e-05
11710.0 9.3851e-05
11730.0 8.9174e-05
11750.0 8.484e-05
11770.0 8.0594e-05
11790.0 7.6601e-05
11810.0 7.3048e-05
11830.0 6.9833e-05
11850.0 6.6836e-05
11870.0 6.4266e-05
11890.0 6.2066e-05
11910.0 6.0079e-05
11930.0 5.8314e-05
11950.0 5.6782e-05
11970.0 5.5373e-05
11990.0 5.4016e-05
12010.0 5.2739e-05
12030.0 5.1501e-05
12050.0 5.0235e-05
12070.0 4.8934e-05
12090.0 4.7676e-05
12110.0 4.6403e-05
12130.0 4.5118e-05
12150.0 4.39e-05
12170.0 4.278e-05
12190.0 4.1727e-05
12210.0 4.0839e-05
12230.0 4.0157e-05
12250.0 3.9682e-05
12270.0 3.9457e-05
12290.0 3.9495e-05
12310.0 3.9777e-05
12330.0 4.0353e-05
12350.0 4.1195e-05
12370.0 4.223e-05
12390.0 4.349e-05
12410.0 4.5031e-05
12430.0 4.6615e-05
12450.0 4.8271e-05
12470.0 5.005e-05
12490.0 5.1837e-05
12510.0 5.3494e-05
12530.0 5.5137e-05
12550.0 5.6709e-05
12570.0 5.8062e-05
12590.0 5.9216e-05
12610.0 6.0217e-05
12630.0 6.0966e-05
12650.0 6.1407e-05
12670.0 6.162e-05
12690.0 6.1572e-05
12710.0 6.1254e-05
12730.0 6.0696e-05
12750.0 5.9883e-05
12770.0 5.8852e-05
12790.0 5.7651e-05
12810.0 5.6268e-05
12830.0 5.471e-05
12850.0 5.3096e-05
12870.0 5.1412e-05
12890.0 4.9618e-05
12910.0 4.7807e-05
12930.0 4.603e-05
12950.0 4.4194e-05
12970.0 4.2338e-05
12990.0 4.0579e-05
13010.0 3.8846e-05
13030.0 3.7099e-05
13050.0 3.5417e-05
13070.0 3.3831e-05
13090.0 3.2239e-05
13110.0 3.069e-05
13130.0 2.9248e-05
13150.0 2.7871e-05
13170.0 2.6512e-05
13190.0 2.5283e-05
13210.0 2.4181e-05
13230.0 2.3154e-05
13250.0 2.2242e-05
13270.0 2.1486e-05
13290.0 2.0857e-05
13310.0 2.0361e-05
13330.0 2.0037e-05
13350.0 1.9871e-05
13370.0 1.9867e-05
13390.0 2.0038e-05
13410.0 2.0345e-05
13430.0 2.08e-05
13450.0 2.1408e-05
13470.0 2.2115e-05
13490.0 2.2889e-05
13510.0 2.3792e-05
13530.0 2.4731e-05
13550.0 2.5647e-05
13570.0 2.657e-05
13590.0 2.7491e-05
13610.0 2.8324e-05
13630.0 2.9065e-05
13650.0 2.9758e-05
13670.0 3.0347e-05
13690.0 3.0812e-05
13710.0 3.1184e-05
13730.0 3.1464e-05
13750.0 3.1617e-05
13770.0 3.1674e-05
13790.0 3.1642e-05
13810.0 3.1518e-05
13830.0 3.1318e-05
13850.0 3.1041e-05
13870.0 3.0687e-05
13890.0 3.0279e-05
13910.0 2.9819e-05
13930.0 2.929e-05
13950.0 2.8716e-05
13970.0 2.8131e-05
13990.0 2.75e-05
14010.0 2.6835e-05
14030.0 2.6176e-05
14050.0 2.5516e-05
14070.0 2.4824e-05
14090.0 2.4163e-05
14110.0 2.3544e-05
14130.0 2.2945e-05
14150.0 2.238e-05
14170.0 2.1895e-05
14190.0 2.1472e-05
14210.0 2.1107e-05
14230.0 2.083e-05
14250.0 2.0641e-05
14270.0 2.0534e-05
14290.0 2.0522e-05
14310.0 2.0599e-05
14330.0 2.0761e-05
14350.0 2.1015e-05
14370.0 2.1343e-05
14390.0 2.1726e-05
14410.0 2.2188e-05
14430.0 2.2706e-05
14450.0 2.3248e-05
14470.0 2.3823e-05
14490.0 2.4448e-05
14510.0 2.5061e-05
14530.0 2.5659e-05
14550.0 2.6273e-05
14570.0 2.6879e-05
14590.0 2.7447e-05
14610.0 2.8012e-05
14630.0 2.8586e-05
14650.0 2.9135e-05
14670.0 2.9676e-05
14690.0 3.0244e-05
14710.0 3.0844e-05
14730.0 3.1443e-05
14750.0 3.21e-05
14770.0 3.2833e-05
14790.0 3.3616e-05
14810.0 3.4453e-05
14830.0 3.5426e-05
14850.0 3.6469e-05
14870.0 3.7546e-05
14890.0 3.8696e-05
14910.0 3.9907e-05
14930.0 4.1068e-05
14950.0 4.2152e-05
14970.0 4.3179e-05
14990.0 4.4049e-05
15010.0 4.4729e-05
15030.0 4.5249e-05
15050.0 4.5616e-05
15070.0 4.5829e-05
15090.0 4.5949e-05
15110.0 4.6003e-05
15130.0 4.6016e-05
15150.0 4.601e-05
15170.0 4.5991e-05
15190.0 4.5965e-05
15210.0 4.5942e-05
15230.0 4.592e-05
15250.0 4.5894e-05
15270.0 4.5871e-05
15290.0 4.5853e-05
15310.0 4.5833e-05
15330.0 4.5812e-05
15350.0 4.5795e-05
15370.0 4.578e-05
15390.0 4.5759e-05
15410.0 4.5742e-05
15430.0 4.5729e-05
15450.0 4.5713e-05
15470.0 4.5696e-05
15490.0 4.5684e-05
15510.0 4.5673e-05
15530.0 4.5657e-05
15550.0 4.5644e-05
15570.0 4.5635e-05
15590.0 4.5621e-05
15610.0 4.5605e-05
15630.0 4.5595e-05
15650.0 4.5585e-05
15670.0 4.557e-05
15690.0 4.5559e-05
15710.0 4.555e-05
15730.0 4.5536e-05
15750.0 4.5522e-05
15770.0 4.5512e-05
15790.0 4.55e-05
15810.0 4.5483e-05
15830.0 4.547e-05
15850.0 4.546e-05
15870.0 4.5445e-05
15890.0 4.5429e-05
15910.0 4.5417e-05
15930.0 4.5402e-05
15950.0 4.5383e-05
15970.0 4.5367e-05
15990.0 4.5352e-05
16010.0 4.5332e-05
16030.0 4.5311e-05
16050.0 4.5295e-05
16070.0 4.5276e-05
16090.0 4.5253e-05
16110.0 4.5232e-05
16130.0 4.5213e-05
16150.0 4.5185e-05
16170.0 4.5159e-05
16190.0 4.5136e-05
16210.0 4.511e-05
16230.0 4.508e-05
16250.0 4.5053e-05
16270.0 4.5026e-05
16290.0 4.4993e-05
16310.0 4.4961e-05
16330.0 4.493e-05
16350.0 4.4896e-05
16370.0 4.4855e-05
16390.0 4.4821e-05
16410.0 4.4785e-05
16430.0 4.4744e-05
16450.0 4.4703e-05
16470.0 4.4665e-05
16490.0 4.4621e-05
16510.0 4.4574e-05
16530.0 4.4529e-05
16550.0 4.4484e-05
16570.0 4.4432e-05
16590.0 4.438e-05
16610.0 4.4332e-05
16630.0 4.4279e-05
16650.0 4.4222e-05
16670.0 4.4169e-05
16690.0 4.4114e-05
16710.0 4.405e-05
16730.0 4.3989e-05
16750.0 4.393e-05
16770.0 4.3865e-05
16790.0 4.3797e-05
16810.0 4.3733e-05
16830.0 4.3667e-05
16850.0 4.3594e-05
16870.0 4.3523e-05
16890.0 4.3453e-05
16910.0 4.3377e-05
16930.0 4.3297e-05
16950.0 4.3222e-05
16970.0 4.3144e-05
16990.0 4.306e-05
17010.0 4.2978e-05
17030.0 4.2898e-05
17050.0 4.281e-05
17070.0 4.2721e-05
17090.0 4.2635e-05
17110.0 4.2545e-05
17130.0 4.2449e-05
17150.0 4.2356e-05
17170.0 4.2264e-05
17190.0 4.2166e-05
17210.0 4.2066e-05
17230.0 4.197e-05
17250.0 4.1869e-05
17270.0 4.1762e-05
17290.0 4.1659e-05
17310.0 4.1556e-05
17330.0 4.1446e-05
17350.0 4.1334e-05
17370.0 4.1229e-05
17390.0 4.1117e-05
17410.0 4.1002e-05
17430.0 4.0889e-05
17450.0 4.0776e-05
17470.0 4.0654e-05
17490.0 4.0533e-05
17510.0 4.0416e-05
17530.0 4.0295e-05
17550.0 4.0169e-05
17570.0 4.0046e-05
17590.0 3.9924e-05
17610.0 3.9794e-05
17630.0 3.9665e-05
17650.0 3.9539e-05
17670.0 3.9408e-05
17690.0 3.927e-05
17710.0 3.914e-05
17730.0 3.9008e-05
17750.0 3.887e-05
17770.0 3.8733e-05
17790.0 3.86e-05
17810.0 3.8459e-05
17830.0 3.8316e-05
17850.0 3.8177e-05
17870.0 3.8037e-05
17890.0 3.789e-05
17910.0 3.7744e-05
17930.0 3.7603e-05
17950.0 3.7456e-05
17970.0 3.7307e-05
17990.0 3.7162e-05
18010.0 3.7015e-05
18030.0 3.686e-05
18050.0 3.6709e-05
18070.0 3.656e-05
18090.0 3.6406e-05
18110.0 3.625e-05
18130.0 3.6099e-05
18150.0 3.5946e-05
18170.0 3.5787e-05
18190.0 3.5632e-05
18210.0 3.5478e-05
18230.0 3.5317e-05
18250.0 3.5155e-05
18270.0 3.4999e-05
18290.0 3.4841e-05
18310.0 3.4678e-05
18330.0 3.4518e-05
18350.0 3.436e-05
18370.0 3.4196e-05
18390.0 3.4031e-05
18410.0 3.3871e-05
18430.0 3.3708e-05
18450.0 3.354e-05
18470.0 3.3376e-05
18490.0 3.3215e-05
18510.0 3.3048e-05
18530.0 3.2881e-05
18550.0 3.2719e-05
18570.0 3.2553e-05
18590.0 3.2382e-05
18610.0 3.2217e-05
18630.0 3.2052e-05
18650.0 3.1882e-05
18670.0 3.1712e-05
18690.0 3.1549e-05
18710.0 3.1381e-05
18730.0 3.121e-05
18750.0 3.1044e-05
18770.0 3.0878e-05
18790.0 3.0705e-05
18810.0 3.0535e-05
18830.0 3.0369e-05
18850.0 3.02e-05
18870.0 3.0028e-05
18890.0 2.9862e-05
18910.0 2.9695e-05
18930.0 2.9523e-05
18950.0 2.9354e-05
18970.0 2.9188e-05
18990.0 2.9018e-05
19010.0 2.8844e-05
19030.0 2.8678e-05
19050.0 2.8511e-05
19070.0 2.834e-05
19090.0 2.8172e-05
19110.0 2.8008e-05
19130.0 2.7837e-05
19150.0 2.7666e-05
19170.0 2.75e-05
19190.0 2.7334e-05
19210.0 2.7163e-05
19230.0 2.6995e-05
19250.0 2.6832e-05
19270.0 2.6664e-05
19290.0 2.6495e-05
19310.0 2.6331e-05
19330.0 2.6167e-05
19350.0 2.5996e-05
19370.0 2.5831e-05
19390.0 2.5668e-05
19410.0 2.5502e-05
19430.0 2.5334e-05
19450.0 2.5173e-05
19470.0 2.5011e-05
19490.0 2.4844e-05
19510.0 2.4681e-05
19530.0 2.4521e-05
19550.0 2.4356e-05
19570.0 2.419e-05
19590.0 2.4032e-05
19610.0 2.3871e-05
19630.0 2.3707e-05
19650.0 2.3548e-05
19670.0 2.3391e-05
19690.0 2.3228e-05
19710.0 2.3068e-05
19730.0 2.2911e-05
19750.0 2.2753e-05
19770.0 2.259e-05
19790.0 2.2434e-05
19810.0 2.2279e-05
19830.0 2.212e-05
19850.0 2.1962e-05
19870.0 2.1806e-05
19890.0 2.1643e-05
19910.0 2.1469e-05
19930.0 2.1289e-05
19950.0 2.1091e-05
19970.0 2.0861e-05
19990.0 2.0597e-05
20010.0 1.9302e-05
20030.0 1.8979e-05
20050.0 1.8611e-05
20070.0 1.8221e-05
20090.0 1.7808e-05
20110.0 1.735e-05
20130.0 1.6892e-05
20150.0 1.6442e-05
20170.0 1.598e-05
20190.0 1.5517e-05
20210.0 1.5081e-05
20230.0 1.4657e-05
20250.0 1.4235e-05
20270.0 1.3844e-05
20290.0 1.3485e-05
20310.0 1.3143e-05
20330.0 1.2822e-05
20350.0 1.2552e-05
20370.0 1.2308e-05
20390.0 1.2091e-05
20410.0 1.191e-05
20430.0 1.1765e-05
20450.0 1.1643e-05
20470.0 1.1554e-05
20490.0 1.1495e-05
20510.0 1.1461e-05
20530.0 1.1452e-05
20550.0 1.1467e-05
20570.0 1.15e-05
20590.0 1.1554e-05
20610.0 1.1625e-05
20630.0 1.1707e-05
20650.0 1.1803e-05
20670.0 1.1917e-05
20690.0 1.2034e-05
20710.0 1.2156e-05
20730.0 1.229e-05
20750.0 1.243e-05
20770.0 1.2566e-05
20790.0 1.2709e-05
20810.0 1.2859e-05
20830.0 1.3006e-05
20850.0 1.3151e-05
20870.0 1.3306e-05
20890.0 1.3461e-05
20910.0 1.3608e-05
20930.0 1.3759e-05
20950.0 1.3915e-05
20970.0 1.4064e-05
20990.0 1.421e-05
21010.0 1.4363e-05
21030.0 1.4511e-05
21050.0 1.4651e-05
21070.0 1.4791e-05
21090.0 1.4931e-05
21110.0 1.5057e-05
21130.0 1.5176e-05
21150.0 1.5291e-05
21170.0 1.5396e-05
21190.0 1.5486e-05
21210.0 1.5568e-05
21230.0 1.5638e-05
21250.0 1.5688e-05
21270.0 1.5721e-05
21290.0 1.5737e-05
21310.0 1.5731e-05
21330.0 1.5702e-05
21350.0 1.5649e-05
21370.0 1.5569e-05
21390.0 1.5465e-05
21410.0 1.5336e-05
21430.0 1.517e-05
21450.0 1.4982e-05
21470.0 1.4774e-05
21490.0 1.4536e-05
21510.0 1.4273e-05
21530.0 1.4003e-05
21550.0 1.3717e-05
21570.0 1.3409e-05
21590.0 1.3103e-05
21610.0 1.2804e-05
21630.0 1.2501e-05
21650.0 1.22e-05
21670.0 1.1935e-05
21690.0 1.1685e-05
21710.0 1.1454e-05
21730.0 1.1257e-05
21750.0 1.1096e-05
21770.0 1.0962e-05
21790.0 1.0867e-05
21810.0 1.0811e-05
21830.0 1.0791e-05
21850.0 1.0809e-05
21870.0 1.0862e-05
21890.0 1.0944e-05
21910.0 1.106e-05
21930.0 1.1206e-05
21950.0 1.1369e-05
21970.0 1.1555e-05
21990.0 1.1771e-05
22010.0 1.199e-05
22030.0 1.2217e-05
22050.0 1.246e-05
22070.0 1.2708e-05
22090.0 1.2945e-05
22110.0 1.3189e-05
22130.0 1.3435e-05
22150.0 1.3669e-05
22170.0 1.3891e-05
22190.0 1.4114e-05
22210.0 1.4324e-05
22230.0 1.451e-05
22250.0 1.4687e-05
22270.0 1.4852e-05
22290.0 1.4993e-05
22310.0 1.5114e-05
22330.0 1.5222e-05
22350.0 1.5306e-05
22370.0 1.5365e-05
22390.0 1.5402e-05
22410.0 1.5416e-05
22430.0 1.5402e-05
22450.0 1.5363e-05
22470.0 1.5296e-05
22490.0 1.5202e-05
22510.0 1.5084e-05
22530.0 1.4934e-05
22550.0 1.4751e-05
22570.0 1.4549e-05
22590.0 1.4321e-05
22610.0 1.4059e-05
22630.0 1.3775e-05
22650.0 1.3481e-05
22670.0 1.3156e-05
