#lamb flux
1010.0 9.939e-09
1030.0 1.0993e-08
1050.0 1.2204e-08
1070.0 1.3569e-08
1090.0 1.5118e-08
1110.0 1.6707e-08
1130.0 1.8307e-08
1150.0 1.9982e-08
1170.0 2.1711e-08
1190.0 2.335e-08
1210.0 2.5011e-08
1230.0 2.6727e-08
1250.0 2.8409e-08
1270.0 3.0042e-08
1290.0 3.1768e-08
1310.0 3.3492e-08
1330.0 3.5146e-08
1350.0 3.6818e-08
1370.0 3.8545e-08
1390.0 4.0228e-08
1410.0 4.1862e-08
1430.0 4.357e-08
1450.0 4.5277e-08
1470.0 4.6928e-08
1490.0 4.8596e-08
1510.0 5.0359e-08
1530.0 5.2029e-08
1550.0 5.3677e-08
1570.0 5.5382e-08
1590.0 5.7089e-08
1610.0 5.8721e-08
1630.0 6.0403e-08
1650.0 6.2131e-08
1670.0 6.3803e-08
1690.0 6.5455e-08
1710.0 6.7172e-08
1730.0 6.8899e-08
1750.0 7.0525e-08
1770.0 7.2201e-08
1790.0 7.3912e-08
1810.0 7.5571e-08
1830.0 7.7203e-08
1850.0 7.8938e-08
1870.0 8.063e-08
1890.0 8.2269e-08
1910.0 8.3944e-08
1930.0 8.5662e-08
1950.0 8.7306e-08
1970.0 8.8934e-08
1990.0 9.0627e-08
2010.0 9.2296e-08
2030.0 9.3909e-08
2050.0 9.5575e-08
2070.0 9.7287e-08
2090.0 9.8905e-08
2110.0 1.0052e-07
2130.0 1.0219e-07
2150.0 1.0383e-07
2170.0 1.0541e-07
2190.0 1.0704e-07
2210.0 1.0869e-07
2230.0 1.1027e-07
2250.0 1.1185e-07
2270.0 1.1351e-07
2290.0 1.1511e-07
2310.0 1.1665e-07
2330.0 1.1825e-07
2350.0 1.199e-07
2370.0 1.2154e-07
2390.0 1.2332e-07
2410.0 1.2542e-07
2430.0 1.2784e-07
2450.0 1.3073e-07
2470.0 1.3444e-07
2490.0 1.3911e-07
2510.0 1.4442e-07
2530.0 1.5082e-07
2550.0 1.5882e-07
2570.0 1.6877e-07
2590.0 1.8172e-07
2610.0 2.0111e-07
2630.0 2.2879e-07
2650.0 2.6498e-07
2670.0 3.1177e-07
2690.0 3.6927e-07
2710.0 4.3065e-07
2730.0 4.913e-07
2750.0 5.5104e-07
2770.0 6.0301e-07
2790.0 6.4427e-07
2810.0 6.7702e-07
2830.0 7.026e-07
2850.0 7.2006e-07
2870.0 7.3288e-07
2890.0 7.4303e-07
2910.0 7.5113e-07
2930.0 7.5775e-07
2950.0 7.6407e-07
2970.0 7.7024e-07
2990.0 7.7604e-07
3010.0 2.1935e-05
3030.0 2.2099e-05
3050.0 2.2258e-05
3070.0 2.2393e-05
3090.0 2.251e-05
3110.0 2.2582e-05
3130.0 2.2579e-05
3150.0 2.2479e-05
3170.0 2.2238e-05
3190.0 2.186e-05
3210.0 2.1381e-05
3230.0 2.0832e-05
3250.0 2.029e-05
3270.0 1.9894e-05
3290.0 1.9675e-05
3310.0 1.971e-05
3330.0 1.9996e-05
3350.0 2.0492e-05
3370.0 2.1202e-05
3390.0 2.2095e-05
3410.0 2.3068e-05
3430.0 2.416e-05
3450.0 2.5418e-05
3470.0 2.6791e-05
3490.0 2.8246e-05
3510.0 2.989e-05
3530.0 3.1651e-05
3550.0 3.3435e-05
3570.0 3.5295e-05
3590.0 3.7318e-05
3610.0 3.9402e-05
3630.0 4.148e-05
3650.0 4.3636e-05
3670.0 4.5604e-05
3690.0 4.7075e-05
3710.0 4.7919e-05
3730.0 4.7947e-05
3750.0 4.7279e-05
3770.0 4.7017e-05
3790.0 4.6738e-05
3810.0 4.5589e-05
3830.0 4.7e-05
3850.0 5.2552e-05
3870.0 5.5599e-05
3890.0 5.5345e-05
3910.0 5.5581e-05
3930.0 5.7045e-05
3950.0 5.7945e-05
3970.0 5.2793e-05
3990.0 4.5426e-05
4010.0 0.00013615
4030.0 0.00016496
4050.0 0.00018912
4070.0 0.00016409
4090.0 0.00014862
4110.0 0.00013114
4130.0 0.0001207
4150.0 0.00012839
4170.0 0.00012647
4190.0 0.00013481
4210.0 0.00013358
4230.0 0.00014129
4250.0 0.00016715
4270.0 0.00016911
4290.0 0.00015584
4310.0 0.00016192
4330.0 0.00017224
4350.0 0.00019312
4370.0 0.00021978
4390.0 0.00020624
4410.0 0.00015237
4430.0 0.00012899
4450.0 0.00011853
4470.0 9.0976e-05
4490.0 9.8174e-05
4510.0 0.00014829
4530.0 0.00017103
4550.0 0.00017251
4570.0 0.00019412
4590.0 0.00022112
4610.0 0.00029824
4630.0 0.00038735
4650.0 0.00042008
4670.0 0.00038903
4690.0 0.0003712
4710.0 0.00039239
4730.0 0.0003703
4750.0 0.00027685
4770.0 0.00020308
4790.0 0.00018964
4810.0 0.00018075
4830.0 0.00016548
4850.0 0.00018158
4870.0 0.00023989
4890.0 0.0002829
4910.0 0.00024821
4930.0 0.00021963
4950.0 0.00024129
4970.0 0.00030944
4990.0 0.00041937
5010.0 0.00048243
5030.0 0.00042539
5050.0 0.00028781
5070.0 0.00018968
5090.0 0.00015295
5110.0 0.00015729
5130.0 0.00018154
5150.0 0.00019668
5170.0 0.00019373
5190.0 0.00018103
5210.0 0.00018922
5230.0 0.00019891
5250.0 0.00021437
5270.0 0.00023129
5290.0 0.00025632
5310.0 0.00029835
5330.0 0.00033016
5350.0 0.00032806
5370.0 0.00034459
5390.0 0.00039543
5410.0 0.00039507
5430.0 0.00034939
5450.0 0.00032101
5470.0 0.00034085
5490.0 0.00041643
5510.0 0.00052068
5530.0 0.0005972
5550.0 0.0005772
5570.0 0.00052472
5590.0 0.00045625
5610.0 0.00042077
5630.0 0.00040801
5650.0 0.0003886
5670.0 0.00036823
5690.0 0.00032919
5710.0 0.00032097
5730.0 0.00029566
5750.0 0.00020846
5770.0 0.00016263
5790.0 0.0001843
5810.0 0.00020811
5830.0 0.00025538
5850.0 0.000304
5870.0 0.00033729
5890.0 0.00034301
5910.0 0.00033652
5930.0 0.00032032
5950.0 0.00032641
5970.0 0.00037207
5990.0 0.00034984
6010.0 0.00029327
6030.0 0.00024777
6050.0 0.00021578
6070.0 0.0002146
6090.0 0.0002327
6110.0 0.00026019
6130.0 0.00026418
6150.0 0.0002273
6170.0 0.00019996
6190.0 0.00022502
6210.0 0.00029747
6230.0 0.00039037
6250.0 0.00042283
6270.0 0.00036949
6290.0 0.00031088
6310.0 0.00024269
6330.0 0.00018595
6350.0 0.00016586
6370.0 0.00017442
6390.0 0.00020164
6410.0 0.00024863
6430.0 0.00029033
6450.0 0.00033222
6470.0 0.00038039
6490.0 0.00045949
6510.0 0.00051377
6530.0 0.00050404
6550.0 0.00045579
6570.0 0.00038692
6590.0 0.0003489
6610.0 0.00030084
6630.0 0.00027255
6650.0 0.00025764
6670.0 0.00025029
6690.0 0.00022615
6710.0 0.00020558
6730.0 0.00014807
6750.0 0.0001468
6770.0 0.00015956
6790.0 0.0001834
6810.0 0.00016782
6830.0 0.0001728
6850.0 0.00016163
6870.0 0.00014765
6890.0 0.00014176
6910.0 0.00015107
6930.0 0.0001415
6950.0 0.00014557
6970.0 0.00015312
6990.0 0.0001738
7010.0 0.00017528
7030.0 0.00017807
7050.0 0.00016981
7070.0 0.0001618
7090.0 0.00016228
7110.0 0.00016697
7130.0 0.00017969
7150.0 0.00019084
7170.0 0.00021058
7190.0 0.00023149
7210.0 0.00022747
7230.0 0.00023384
7250.0 0.0002513
7270.0 0.00027385
7290.0 0.00032504
7310.0 0.00035269
7330.0 0.00034091
7350.0 0.00030833
7370.0 0.00026828
7390.0 0.00026026
7410.0 0.00027658
7430.0 0.00030738
7450.0 0.00033479
7470.0 0.00033172
7490.0 0.00030246
7510.0 0.00034262
7530.0 0.00033887
7550.0 0.00030458
7570.0 0.00023793
7590.0 0.00016357
7610.0 0.00014039
7630.0 0.00015951
7650.0 0.0001886
7670.0 0.00023473
7690.0 0.0002583
7710.0 0.00026918
7730.0 0.00028287
7750.0 0.00031756
7770.0 0.00032255
7790.0 0.00029628
7810.0 0.00027034
7830.0 0.00027878
7850.0 0.00027099
7870.0 0.00024846
7890.0 0.00020875
7910.0 0.00016969
7930.0 0.00016203
7950.0 0.00014761
7970.0 0.00013664
7990.0 0.00013586
8010.0 1.0062e-05
8030.0 9.9313e-06
8050.0 9.7974e-06
8070.0 9.9257e-06
8090.0 1.0665e-05
8110.0 1.0483e-05
8130.0 8.6473e-06
8150.0 8.4214e-06
8170.0 7.2539e-06
8190.0 6.8746e-06
8210.0 8.9273e-06
8230.0 9.9394e-06
8250.0 8.9583e-06
8270.0 7.7969e-06
8290.0 7.6006e-06
8310.0 5.8497e-06
8330.0 3.9427e-06
8350.0 2.7981e-06
8370.0 1.7629e-06
8390.0 3.2226e-06
8410.0 3.7552e-06
8430.0 4.6288e-06
8450.0 5.4355e-06
8470.0 6.756e-06
8490.0 6.7083e-06
8510.0 6.5986e-06
8530.0 6.8866e-06
8550.0 9.2914e-06
8570.0 1.1e-05
8590.0 1.1869e-05
8610.0 1.4992e-05
8630.0 1.8061e-05
8650.0 1.8893e-05
8670.0 2.0078e-05
8690.0 2.019e-05
8710.0 1.8285e-05
8730.0 1.7008e-05
8750.0 1.5013e-05
8770.0 1.4245e-05
8790.0 1.3995e-05
8810.0 1.341e-05
8830.0 1.0723e-05
8850.0 7.8503e-06
8870.0 6.0109e-06
8890.0 5.8766e-06
8910.0 6.7347e-06
8930.0 7.6602e-06
8950.0 7.8069e-06
8970.0 7.8438e-06
8990.0 6.9957e-06
9010.0 7.3312e-05
9030.0 6.6429e-05
9050.0 6.675e-05
9070.0 6.7277e-05
9090.0 6.7739e-05
9110.0 6.831e-05
9130.0 6.875e-05
9150.0 6.9092e-05
9170.0 6.9457e-05
9190.0 6.9847e-05
9210.0 7.0257e-05
9230.0 7.069e-05
9250.0 7.113e-05
9270.0 7.1586e-05
9290.0 7.2056e-05
9310.0 7.253e-05
9330.0 7.3012e-05
9350.0 7.3513e-05
9370.0 7.4019e-05
9390.0 7.453e-05
9410.0 7.5056e-05
9430.0 7.5598e-05
9450.0 7.6138e-05
9470.0 7.6689e-05
9490.0 7.7256e-05
9510.0 7.783e-05
9530.0 7.8407e-05
9550.0 7.9003e-05
9570.0 7.961e-05
9590.0 8.0219e-05
9610.0 8.0838e-05
9630.0 8.1474e-05
9650.0 8.2115e-05
9670.0 8.2757e-05
9690.0 8.3417e-05
9710.0 8.4087e-05
9730.0 8.4758e-05
9750.0 8.5439e-05
9770.0 8.6141e-05
9790.0 8.6841e-05
9810.0 8.7545e-05
9830.0 8.8263e-05
9850.0 8.8992e-05
9870.0 8.9717e-05
9890.0 9.0454e-05
9910.0 9.1205e-05
9930.0 9.1956e-05
9950.0 9.271e-05
9970.0 9.3479e-05
9990.0 9.4256e-05
10010.0 8.1789e-05
10030.0 8.2461e-05
10050.0 8.3146e-05
10070.0 8.3854e-05
10090.0 8.4522e-05
10110.0 8.5207e-05
10130.0 8.5894e-05
10150.0 8.6579e-05
10170.0 8.7272e-05
10190.0 8.7977e-05
10210.0 8.8674e-05
10230.0 8.9369e-05
10250.0 9.0075e-05
10270.0 9.0781e-05
10290.0 9.1477e-05
10310.0 9.2183e-05
10330.0 9.2896e-05
10350.0 9.3596e-05
10370.0 9.4294e-05
10390.0 9.5001e-05
10410.0 9.5703e-05
10430.0 9.6392e-05
10450.0 9.7088e-05
10470.0 9.7786e-05
10490.0 9.8472e-05
10510.0 9.9153e-05
10530.0 9.9846e-05
10550.0 0.00010053
10570.0 0.00010119
10590.0 0.00010186
10610.0 0.00010253
10630.0 0.00010319
10650.0 0.00010384
10670.0 0.00010449
10690.0 0.00010513
10710.0 0.00010576
10730.0 0.00010639
10750.0 0.00010702
10770.0 0.00010763
10790.0 0.00010822
10810.0 0.00010882
10830.0 0.0001094
10850.0 0.00010996
10870.0 0.00011049
10890.0 0.00011096
10910.0 0.00011132
10930.0 0.00011153
10950.0 0.00011148
10970.0 0.0001111
10990.0 0.00011036
11010.0 0.00010912
11030.0 0.00010738
11050.0 0.00010527
11070.0 0.00010274
11090.0 9.9699e-05
11110.0 9.6555e-05
11130.0 9.3275e-05
11150.0 8.9744e-05
11170.0 8.6104e-05
11190.0 8.2573e-05
11210.0 7.8927e-05
11230.0 7.5187e-05
11250.0 7.1615e-05
11270.0 6.8184e-05
11290.0 6.4746e-05
11310.0 6.149e-05
11330.0 5.8623e-05
11350.0 5.5914e-05
11370.0 5.341e-05
11390.0 5.1244e-05
11410.0 4.935e-05
11430.0 4.7589e-05
11450.0 4.6072e-05
11470.0 4.4761e-05
11490.0 4.354e-05
11510.0 4.2364e-05
11530.0 4.1273e-05
11550.0 4.0189e-05
11570.0 3.9032e-05
11590.0 3.7835e-05
11610.0 3.6616e-05
11630.0 3.5289e-05
11650.0 3.3868e-05
11670.0 3.2468e-05
11690.0 3.1048e-05
11710.0 2.9584e-05
11730.0 2.8164e-05
11750.0 2.6851e-05
11770.0 2.5563e-05
11790.0 2.4356e-05
11810.0 2.3293e-05
11830.0 2.2343e-05
11850.0 2.1467e-05
11870.0 2.0735e-05
11890.0 2.0126e-05
11910.0 1.9591e-05
11930.0 1.9132e-05
11950.0 1.8749e-05
11970.0 1.8407e-05
11990.0 1.8083e-05
12010.0 1.7784e-05
12030.0 1.7496e-05
12050.0 1.7198e-05
12070.0 1.6888e-05
12090.0 1.6589e-05
12110.0 1.6286e-05
12130.0 1.5982e-05
12150.0 1.5702e-05
12170.0 1.5457e-05
12190.0 1.5245e-05
12210.0 1.5098e-05
12230.0 1.5027e-05
12250.0 1.5038e-05
12270.0 1.5151e-05
12290.0 1.5366e-05
12310.0 1.5673e-05
12330.0 1.6103e-05
12350.0 1.664e-05
12370.0 1.7252e-05
12390.0 1.7956e-05
12410.0 1.8782e-05
12430.0 1.9622e-05
12450.0 2.0491e-05
12470.0 2.1415e-05
12490.0 2.2343e-05
12510.0 2.3214e-05
12530.0 2.4081e-05
12550.0 2.4916e-05
12570.0 2.5654e-05
12590.0 2.6302e-05
12610.0 2.6879e-05
12630.0 2.7339e-05
12650.0 2.7657e-05
12670.0 2.7865e-05
12690.0 2.7949e-05
12710.0 2.7903e-05
12730.0 2.7741e-05
12750.0 2.7452e-05
12770.0 2.7056e-05
12790.0 2.6576e-05
12810.0 2.6003e-05
12830.0 2.5339e-05
12850.0 2.4645e-05
12870.0 2.3912e-05
12890.0 2.3118e-05
12910.0 2.2311e-05
12930.0 2.1516e-05
12950.0 2.0686e-05
12970.0 1.9841e-05
12990.0 1.9042e-05
13010.0 1.8253e-05
13030.0 1.7455e-05
13050.0 1.6688e-05
13070.0 1.597e-05
13090.0 1.5249e-05
13110.0 1.4552e-05
13130.0 1.3909e-05
13150.0 1.3301e-05
13170.0 1.2705e-05
13190.0 1.2174e-05
13210.0 1.1708e-05
13230.0 1.1281e-05
13250.0 1.0913e-05
13270.0 1.0624e-05
13290.0 1.0398e-05
13310.0 1.0243e-05
13330.0 1.0172e-05
13350.0 1.018e-05
13370.0 1.0272e-05
13390.0 1.0451e-05
13410.0 1.0694e-05
13430.0 1.1009e-05
13450.0 1.1398e-05
13470.0 1.183e-05
13490.0 1.2288e-05
13510.0 1.2804e-05
13530.0 1.3327e-05
13550.0 1.3828e-05
13570.0 1.4322e-05
13590.0 1.4803e-05
13610.0 1.5231e-05
13630.0 1.5605e-05
13650.0 1.5946e-05
13670.0 1.623e-05
13690.0 1.6449e-05
13710.0 1.6618e-05
13730.0 1.6739e-05
13750.0 1.68e-05
13770.0 1.6813e-05
13790.0 1.6783e-05
13810.0 1.6709e-05
13830.0 1.6599e-05
13850.0 1.6451e-05
13870.0 1.6264e-05
13890.0 1.605e-05
13910.0 1.5809e-05
13930.0 1.553e-05
13950.0 1.5225e-05
13970.0 1.4914e-05
13990.0 1.4574e-05
14010.0 1.4214e-05
14030.0 1.3854e-05
14050.0 1.3491e-05
14070.0 1.3108e-05
14090.0 1.2741e-05
14110.0 1.2397e-05
14130.0 1.2063e-05
14150.0 1.1748e-05
14170.0 1.148e-05
14190.0 1.1247e-05
14210.0 1.105e-05
14230.0 1.0905e-05
14250.0 1.081e-05
14270.0 1.0765e-05
14290.0 1.0774e-05
14310.0 1.0835e-05
14330.0 1.0942e-05
14350.0 1.1101e-05
14370.0 1.1299e-05
14390.0 1.1523e-05
14410.0 1.1788e-05
14430.0 1.2078e-05
14450.0 1.2375e-05
14470.0 1.2682e-05
14490.0 1.301e-05
14510.0 1.3323e-05
14530.0 1.362e-05
14550.0 1.3917e-05
14570.0 1.4202e-05
14590.0 1.4462e-05
14610.0 1.4713e-05
14630.0 1.4961e-05
14650.0 1.5193e-05
14670.0 1.5416e-05
14690.0 1.5649e-05
14710.0 1.5894e-05
14730.0 1.6139e-05
14750.0 1.6411e-05
14770.0 1.6719e-05
14790.0 1.7053e-05
14810.0 1.7414e-05
14830.0 1.7843e-05
14850.0 1.8309e-05
14870.0 1.8794e-05
14890.0 1.9319e-05
14910.0 1.9875e-05
14930.0 2.0411e-05
14950.0 2.0911e-05
14970.0 2.1385e-05
14990.0 2.1782e-05
15010.0 2.2086e-05
15030.0 2.2311e-05
15050.0 2.2459e-05
15070.0 2.2532e-05
15090.0 2.2557e-05
15110.0 2.255e-05
15130.0 2.2522e-05
15150.0 2.2484e-05
15170.0 2.2439e-05
15190.0 2.239e-05
15210.0 2.2343e-05
15230.0 2.2295e-05
15250.0 2.2246e-05
15270.0 2.2197e-05
15290.0 2.2151e-05
15310.0 2.2104e-05
15330.0 2.2056e-05
15350.0 2.201e-05
15370.0 2.1965e-05
15390.0 2.1917e-05
15410.0 2.187e-05
15430.0 2.1825e-05
15450.0 2.1779e-05
15470.0 2.1733e-05
15490.0 2.1689e-05
15510.0 2.1644e-05
15530.0 2.1599e-05
15550.0 2.1554e-05
15570.0 2.1511e-05
15590.0 2.1466e-05
15610.0 2.142e-05
15630.0 2.1377e-05
15650.0 2.1334e-05
15670.0 2.1289e-05
15690.0 2.1245e-05
15710.0 2.1203e-05
15730.0 2.116e-05
15750.0 2.1116e-05
15770.0 2.1073e-05
15790.0 2.1031e-05
15810.0 2.0986e-05
15830.0 2.0944e-05
15850.0 2.0902e-05
15870.0 2.0859e-05
15890.0 2.0816e-05
15910.0 2.0775e-05
15930.0 2.0733e-05
15950.0 2.0689e-05
15970.0 2.0647e-05
15990.0 2.0606e-05
16010.0 2.0563e-05
16030.0 2.052e-05
16050.0 2.0479e-05
16070.0 2.0437e-05
16090.0 2.0395e-05
16110.0 2.0353e-05
16130.0 2.0312e-05
16150.0 2.0269e-05
16170.0 2.0226e-05
16190.0 2.0185e-05
16210.0 2.0144e-05
16230.0 2.0101e-05
16250.0 2.0059e-05
16270.0 2.0019e-05
16290.0 1.9976e-05
16310.0 1.9933e-05
16330.0 1.9893e-05
16350.0 1.9851e-05
16370.0 1.9806e-05
16390.0 1.9765e-05
16410.0 1.9724e-05
16430.0 1.9681e-05
16450.0 1.9638e-05
16470.0 1.9598e-05
16490.0 1.9555e-05
16510.0 1.9512e-05
16530.0 1.947e-05
16550.0 1.9428e-05
16570.0 1.9384e-05
16590.0 1.9341e-05
16610.0 1.93e-05
16630.0 1.9257e-05
16650.0 1.9213e-05
16670.0 1.9171e-05
16690.0 1.9129e-05
16710.0 1.9084e-05
16730.0 1.9041e-05
16750.0 1.8999e-05
16770.0 1.8955e-05
16790.0 1.891e-05
16810.0 1.8868e-05
16830.0 1.8825e-05
16850.0 1.878e-05
16870.0 1.8737e-05
16890.0 1.8694e-05
16910.0 1.8649e-05
16930.0 1.8604e-05
16950.0 1.856e-05
16970.0 1.8517e-05
16990.0 1.8471e-05
17010.0 1.8427e-05
17030.0 1.8384e-05
17050.0 1.8338e-05
17070.0 1.8292e-05
17090.0 1.8248e-05
17110.0 1.8204e-05
17130.0 1.8156e-05
17150.0 1.8111e-05
17170.0 1.8067e-05
17190.0 1.8021e-05
17210.0 1.7975e-05
17230.0 1.793e-05
17250.0 1.7885e-05
17270.0 1.7837e-05
17290.0 1.7791e-05
17310.0 1.7746e-05
17330.0 1.7699e-05
17350.0 1.7651e-05
17370.0 1.7606e-05
17390.0 1.7559e-05
17410.0 1.7512e-05
17430.0 1.7465e-05
17450.0 1.7419e-05
17470.0 1.737e-05
17490.0 1.7322e-05
17510.0 1.7276e-05
17530.0 1.7228e-05
17550.0 1.718e-05
17570.0 1.7133e-05
17590.0 1.7086e-05
17610.0 1.7037e-05
17630.0 1.6988e-05
17650.0 1.6941e-05
17670.0 1.6893e-05
17690.0 1.6842e-05
17710.0 1.6795e-05
17730.0 1.6747e-05
17750.0 1.6697e-05
17770.0 1.6648e-05
17790.0 1.6601e-05
17810.0 1.6551e-05
17830.0 1.6501e-05
17850.0 1.6452e-05
17870.0 1.6403e-05
17890.0 1.6353e-05
17910.0 1.6303e-05
17930.0 1.6254e-05
17950.0 1.6204e-05
17970.0 1.6154e-05
17990.0 1.6105e-05
18010.0 1.6056e-05
18030.0 1.6004e-05
18050.0 1.5953e-05
18070.0 1.5904e-05
18090.0 1.5853e-05
18110.0 1.5802e-05
18130.0 1.5752e-05
18150.0 1.5702e-05
18170.0 1.5651e-05
18190.0 1.56e-05
18210.0 1.555e-05
18230.0 1.5499e-05
18250.0 1.5446e-05
18270.0 1.5396e-05
18290.0 1.5346e-05
18310.0 1.5293e-05
18330.0 1.5242e-05
18350.0 1.5193e-05
18370.0 1.514e-05
18390.0 1.5088e-05
18410.0 1.5038e-05
18430.0 1.4986e-05
18450.0 1.4933e-05
18470.0 1.4882e-05
18490.0 1.4831e-05
18510.0 1.4779e-05
18530.0 1.4726e-05
18550.0 1.4676e-05
18570.0 1.4624e-05
18590.0 1.4571e-05
18610.0 1.4519e-05
18630.0 1.4468e-05
18650.0 1.4415e-05
18670.0 1.4362e-05
18690.0 1.4311e-05
18710.0 1.4259e-05
18730.0 1.4206e-05
18750.0 1.4154e-05
18770.0 1.4103e-05
18790.0 1.4049e-05
18810.0 1.3996e-05
18830.0 1.3945e-05
18850.0 1.3893e-05
18870.0 1.3839e-05
18890.0 1.3788e-05
18910.0 1.3736e-05
18930.0 1.3683e-05
18950.0 1.363e-05
18970.0 1.3579e-05
18990.0 1.3526e-05
19010.0 1.3472e-05
19030.0 1.342e-05
19050.0 1.3369e-05
19070.0 1.3315e-05
19090.0 1.3263e-05
19110.0 1.3212e-05
19130.0 1.3158e-05
19150.0 1.3105e-05
19170.0 1.3053e-05
19190.0 1.3001e-05
19210.0 1.2947e-05
19230.0 1.2894e-05
19250.0 1.2843e-05
19270.0 1.279e-05
19290.0 1.2737e-05
19310.0 1.2686e-05
19330.0 1.2634e-05
19350.0 1.258e-05
19370.0 1.2527e-05
19390.0 1.2476e-05
19410.0 1.2423e-05
19430.0 1.2369e-05
19450.0 1.2318e-05
19470.0 1.2266e-05
19490.0 1.2213e-05
19510.0 1.2161e-05
19530.0 1.2109e-05
19550.0 1.2056e-05
19570.0 1.2002e-05
19590.0 1.1951e-05
19610.0 1.1899e-05
19630.0 1.1846e-05
19650.0 1.1794e-05
19670.0 1.1744e-05
19690.0 1.169e-05
19710.0 1.1637e-05
19730.0 1.1586e-05
19750.0 1.1534e-05
19770.0 1.148e-05
19790.0 1.1429e-05
19810.0 1.1378e-05
19830.0 1.1325e-05
19850.0 1.1272e-05
19870.0 1.122e-05
19890.0 1.1164e-05
19910.0 1.1102e-05
19930.0 1.1036e-05
19950.0 1.0961e-05
19970.0 1.0868e-05
19990.0 1.0756e-05
20010.0 9.5698e-06
20030.0 9.4314e-06
20050.0 9.2692e-06
20070.0 9.0936e-06
20090.0 8.9047e-06
20110.0 8.6909e-06
20130.0 8.4746e-06
20150.0 8.2602e-06
20170.0 8.0379e-06
20190.0 7.8124e-06
20210.0 7.5994e-06
20230.0 7.3917e-06
20250.0 7.1835e-06
20270.0 6.9903e-06
20290.0 6.8139e-06
20310.0 6.6463e-06
20330.0 6.4897e-06
20350.0 6.3596e-06
20370.0 6.2442e-06
20390.0 6.143e-06
20410.0 6.0613e-06
20430.0 5.9982e-06
20450.0 5.9483e-06
20470.0 5.9149e-06
20490.0 5.8969e-06
20510.0 5.8917e-06
20530.0 5.899e-06
20550.0 5.9172e-06
20570.0 5.9437e-06
20590.0 5.9796e-06
20610.0 6.023e-06
20630.0 6.0709e-06
20650.0 6.1244e-06
20670.0 6.1856e-06
20690.0 6.248e-06
20710.0 6.3125e-06
20730.0 6.382e-06
20750.0 6.4547e-06
20770.0 6.5261e-06
20790.0 6.6011e-06
20810.0 6.6804e-06
20830.0 6.7594e-06
20850.0 6.8387e-06
20870.0 6.9236e-06
20890.0 7.0102e-06
20910.0 7.0937e-06
20930.0 7.1803e-06
20950.0 7.2701e-06
20970.0 7.3577e-06
20990.0 7.444e-06
21010.0 7.5348e-06
21030.0 7.6236e-06
21050.0 7.7084e-06
21070.0 7.7929e-06
21090.0 7.8778e-06
21110.0 7.9552e-06
21130.0 8.0279e-06
21150.0 8.0984e-06
21170.0 8.1621e-06
21190.0 8.217e-06
21210.0 8.2664e-06
21230.0 8.3074e-06
21250.0 8.3367e-06
21270.0 8.3552e-06
21290.0 8.3622e-06
21310.0 8.3555e-06
21330.0 8.3358e-06
21350.0 8.3012e-06
21370.0 8.2503e-06
21390.0 8.1857e-06
21410.0 8.1066e-06
21430.0 8.0064e-06
21450.0 7.894e-06
21470.0 7.7715e-06
21490.0 7.633e-06
21510.0 7.481e-06
21530.0 7.3266e-06
21550.0 7.1649e-06
21570.0 6.9924e-06
21590.0 6.8228e-06
21610.0 6.6589e-06
21630.0 6.4948e-06
21650.0 6.3344e-06
21670.0 6.1955e-06
21690.0 6.0673e-06
21710.0 5.9519e-06
21730.0 5.8574e-06
21750.0 5.7844e-06
21770.0 5.7289e-06
21790.0 5.6969e-06
21810.0 5.6881e-06
21830.0 5.7007e-06
21850.0 5.7363e-06
21870.0 5.7919e-06
21890.0 5.8637e-06
21910.0 5.9557e-06
21930.0 6.0637e-06
21950.0 6.1807e-06
21970.0 6.3103e-06
21990.0 6.4558e-06
22010.0 6.6012e-06
22030.0 6.7488e-06
22050.0 6.9039e-06
22070.0 7.0598e-06
22090.0 7.2074e-06
22110.0 7.3563e-06
22130.0 7.5049e-06
22150.0 7.6436e-06
22170.0 7.7745e-06
22190.0 7.9041e-06
22210.0 8.0248e-06
22230.0 8.131e-06
22250.0 8.2309e-06
22270.0 8.323e-06
22290.0 8.4017e-06
22310.0 8.4693e-06
22330.0 8.5287e-06
22350.0 8.5747e-06
22370.0 8.6071e-06
22390.0 8.6274e-06
22410.0 8.6338e-06
22430.0 8.6256e-06
22450.0 8.6034e-06
22470.0 8.565e-06
22490.0 8.511e-06
22510.0 8.4438e-06
22530.0 8.3578e-06
22550.0 8.2532e-06
22570.0 8.1371e-06
22590.0 8.0063e-06
22610.0 7.8557e-06
