#lamb flux
1010.0 2.1517e-07
1030.0 2.2749e-07
1050.0 2.4175e-07
1070.0 2.5783e-07
1090.0 2.7611e-07
1110.0 2.9492e-07
1130.0 3.1391e-07
1150.0 3.3388e-07
1170.0 3.5456e-07
1190.0 3.7429e-07
1210.0 3.9438e-07
1230.0 4.1523e-07
1250.0 4.358e-07
1270.0 4.5592e-07
1290.0 4.7727e-07
1310.0 4.9875e-07
1330.0 5.1954e-07
1350.0 5.4071e-07
1370.0 5.627e-07
1390.0 5.8434e-07
1410.0 6.0556e-07
1430.0 6.2785e-07
1450.0 6.5033e-07
1470.0 6.7229e-07
1490.0 6.9464e-07
1510.0 7.1831e-07
1530.0 7.41e-07
1550.0 7.6356e-07
1570.0 7.8694e-07
1590.0 8.1045e-07
1610.0 8.3309e-07
1630.0 8.5641e-07
1650.0 8.8029e-07
1670.0 9.0345e-07
1690.0 9.2628e-07
1710.0 9.4981e-07
1730.0 9.7332e-07
1750.0 9.9534e-07
1770.0 1.0177e-06
1790.0 1.0402e-06
1810.0 1.0617e-06
1830.0 1.0825e-06
1850.0 1.1041e-06
1870.0 1.1246e-06
1890.0 1.144e-06
1910.0 1.1632e-06
1930.0 1.1823e-06
1950.0 1.1999e-06
1970.0 1.2167e-06
1990.0 1.2336e-06
2010.0 1.2496e-06
2030.0 1.2642e-06
2050.0 1.2789e-06
2070.0 1.2936e-06
2090.0 1.3065e-06
2110.0 1.319e-06
2130.0 1.3317e-06
2150.0 1.3437e-06
2170.0 1.3545e-06
2190.0 1.3659e-06
2210.0 1.3773e-06
2230.0 1.3879e-06
2250.0 1.3986e-06
2270.0 1.4102e-06
2290.0 1.4215e-06
2310.0 1.4324e-06
2330.0 1.4444e-06
2350.0 1.457e-06
2370.0 1.4696e-06
2390.0 1.4831e-06
2410.0 1.4982e-06
2430.0 1.5137e-06
2450.0 1.5299e-06
2470.0 1.5478e-06
2490.0 1.5679e-06
2510.0 1.5903e-06
2530.0 1.6201e-06
2550.0 1.6653e-06
2570.0 1.7353e-06
2590.0 1.8414e-06
2610.0 2.012e-06
2630.0 2.2574e-06
2650.0 2.5688e-06
2670.0 2.9526e-06
2690.0 3.3998e-06
2710.0 3.8566e-06
2730.0 4.2957e-06
2750.0 4.7246e-06
2770.0 5.1097e-06
2790.0 5.4441e-06
2810.0 5.7528e-06
2830.0 6.0558e-06
2850.0 6.3399e-06
2870.0 6.6267e-06
2890.0 6.9318e-06
2910.0 7.2499e-06
2930.0 7.5723e-06
2950.0 7.9176e-06
2970.0 8.2837e-06
2990.0 8.6553e-06
3010.0 2.4215e-05
3030.0 2.5289e-05
3050.0 2.6361e-05
3070.0 2.7338e-05
3090.0 2.8173e-05
3110.0 2.8645e-05
3130.0 2.8494e-05
3150.0 2.7431e-05
3170.0 2.4874e-05
3190.0 2.0767e-05
3210.0 1.5174e-05
3230.0 8.8786e-06
3250.0 1.5626e-05
3270.0 8.2786e-06
3290.0 2.3936e-05
3310.0 7.0229e-06
3330.0 6.8858e-06
3350.0 8.9744e-06
3370.0 1.1443e-05
3390.0 1.4118e-05
3410.0 1.6792e-05
3430.0 1.9605e-05
3450.0 2.2432e-05
3470.0 2.5025e-05
3490.0 2.6782e-05
3510.0 3.2982e-05
3530.0 4.4129e-05
3550.0 4.2863e-05
3570.0 3.4483e-05
3590.0 4.8554e-05
3610.0 2.9381e-05
3630.0 5.0862e-05
3650.0 5.9718e-05
3670.0 7.7457e-05
3690.0 7.1731e-05
3710.0 4.6538e-05
3730.0 6.2199e-05
3750.0 6.4015e-05
3770.0 6.8027e-05
3790.0 6.4175e-05
3810.0 6.3152e-05
3830.0 9.9777e-05
3850.0 0.00011988
3870.0 0.00014906
3890.0 0.00014244
3910.0 0.0001256
3930.0 0.00012849
3950.0 0.00014061
3970.0 0.00016421
3990.0 0.00011027
4010.0 5.9676e-05
4030.0 0.0001021
4050.0 0.00013037
4070.0 0.0001441
4090.0 0.00010734
4110.0 6.6605e-05
4130.0 0.00010512
4150.0 0.00010356
4170.0 0.00010071
4190.0 9.4215e-05
4210.0 0.00012999
4230.0 9.1028e-05
4250.0 0.00010275
4270.0 0.00010222
4290.0 9.8901e-05
4310.0 0.00012674
4330.0 0.00013419
4350.0 0.00010593
4370.0 8.8165e-05
4390.0 0.00011113
4410.0 0.00011558
4430.0 8.5452e-05
4450.0 8.0959e-05
4470.0 9.9343e-05
4490.0 7.2904e-05
4510.0 9.8781e-05
4530.0 0.00010355
4550.0 0.00012912
4570.0 0.00018674
4590.0 0.00017907
4610.0 0.00012546
4630.0 0.00021073
4650.0 0.00029583
4670.0 0.0002772
4690.0 0.00017699
4710.0 0.00019241
4730.0 0.00023576
4750.0 0.00020078
4770.0 0.00015145
4790.0 9.9591e-05
4810.0 0.00014349
4830.0 0.00016876
4850.0 0.0001451
4870.0 4.6456e-05
4890.0 0.00016111
4910.0 0.00022253
4930.0 0.00024081
4950.0 0.00024041
4970.0 0.0001512
4990.0 0.00017768
5010.0 0.00021365
5030.0 0.00023742
5050.0 0.00022978
5070.0 0.00016232
5090.0 0.00013093
5110.0 0.00012469
5130.0 0.000115
5150.0 0.00012417
5170.0 0.00010864
5190.0 0.00013358
5210.0 0.00013483
5230.0 0.00014926
5250.0 0.00018255
5270.0 0.00014799
5290.0 0.00014915
5310.0 0.00022665
5330.0 0.00026338
5350.0 0.00021669
5370.0 0.00018944
5390.0 0.00022282
5410.0 0.00027742
5430.0 0.00030159
5450.0 0.00031847
5470.0 0.00031573
5490.0 0.00031414
5510.0 0.00037531
5530.0 0.00039016
5550.0 0.00041785
5570.0 0.00044477
5590.0 0.00043969
5610.0 0.00041174
5630.0 0.00039925
5650.0 0.00041197
5670.0 0.00040452
5690.0 0.00034279
5710.0 0.00033812
5730.0 0.00034465
5750.0 0.00037006
5770.0 0.00031747
5790.0 0.00029581
5810.0 0.00030077
5830.0 0.0003225
5850.0 0.00029668
5870.0 0.00030029
5890.0 0.00035964
5910.0 0.00033766
5930.0 0.00027342
5950.0 0.00024073
5970.0 0.00026446
5990.0 0.0002426
6010.0 0.00022616
6030.0 0.0002277
6050.0 0.00020964
6070.0 0.00015638
6090.0 0.00014398
6110.0 0.00019052
6130.0 0.00021877
6150.0 0.00022732
6170.0 0.0002183
6190.0 0.00020316
6210.0 0.00020573
6230.0 0.00025033
6250.0 0.00023124
6270.0 0.00020975
6290.0 0.00019285
6310.0 0.00017865
6330.0 0.00016772
6350.0 0.00014744
6370.0 0.00014755
6390.0 0.00017369
6410.0 0.00021701
6430.0 0.00025332
6450.0 0.00024436
6470.0 0.00024125
6490.0 0.00030148
6510.0 0.00035001
6530.0 0.00033085
6550.0 0.0003138
6570.0 0.00031864
6590.0 0.000312
6610.0 0.0003358
6630.0 0.0003127
6650.0 0.00027025
6670.0 0.00024605
6690.0 0.00024398
6710.0 0.00029954
6730.0 0.00026871
6750.0 0.0002205
6770.0 0.00019552
6790.0 0.00020721
6810.0 0.00023797
6830.0 0.00023532
6850.0 0.00021046
6870.0 0.00021967
6890.0 0.00021831
6910.0 0.00020522
6930.0 0.00023303
6950.0 0.00021447
6970.0 0.00019758
6990.0 0.00019586
7010.0 0.00019344
7030.0 0.00018637
7050.0 0.00018055
7070.0 0.00019856
7090.0 0.00018723
7110.0 0.00015869
7130.0 0.0001313
7150.0 0.00012513
7170.0 0.00016461
7190.0 0.00017708
7210.0 0.00016748
7230.0 0.00017435
7250.0 0.0001645
7270.0 0.00015774
7290.0 0.00017419
7310.0 0.00019534
7330.0 0.00019173
7350.0 0.00017807
7370.0 0.00016535
7390.0 0.00016785
7410.0 0.00019496
7430.0 0.0002172
7450.0 0.00022974
7470.0 0.00022812
7490.0 0.00024812
7510.0 0.00024366
7530.0 0.00022862
7550.0 0.00022193
7570.0 0.00019355
7590.0 0.00018795
7610.0 0.00018134
7630.0 0.0001651
7650.0 0.00017776
7670.0 0.00019545
7690.0 0.00021236
7710.0 0.00024149
7730.0 0.00025459
7750.0 0.00026493
7770.0 0.00027169
7790.0 0.00029718
7810.0 0.00030188
7830.0 0.00027105
7850.0 0.00027264
7870.0 0.0002613
7890.0 0.00027163
7910.0 0.00025662
7930.0 0.00025708
7950.0 0.00021785
7970.0 0.00022066
7990.0 0.00021175
8010.0 0.00022451
8030.0 0.00022331
8050.0 0.0002368
8070.0 0.00022676
8090.0 0.00022761
8110.0 0.00022372
8130.0 0.00022239
8150.0 0.00020983
8170.0 0.00020513
8190.0 0.0002038
8210.0 0.00020557
8230.0 0.00017944
8250.0 0.00016371
8270.0 0.00014454
8290.0 0.00012257
8310.0 0.00010817
8330.0 8.6327e-05
8350.0 7.0582e-05
8370.0 6.9129e-05
8390.0 6.7123e-05
8410.0 6.983e-05
8430.0 8.9117e-05
8450.0 9.6556e-05
8470.0 0.00010345
8490.0 0.00012091
8510.0 0.00013149
8530.0 0.00015006
8550.0 0.00017739
8570.0 0.00019484
8590.0 0.00020516
8610.0 0.00022645
8630.0 0.0002557
8650.0 0.0002614
8670.0 0.00026615
8690.0 0.0002768
8710.0 0.00027162
8730.0 0.0002641
8750.0 0.00024424
8770.0 0.00024441
8790.0 0.00024113
8810.0 0.00022162
8830.0 0.00022248
8850.0 0.00020529
8870.0 0.00019627
8890.0 0.00017599
8910.0 0.00019462
8930.0 0.00017586
8950.0 0.00017536
8970.0 0.0001783
8990.0 0.00017264
9010.0 0.00017732
9030.0 0.00016857
9050.0 0.00016771
9070.0 0.00016772
9090.0 0.00016769
9110.0 0.00016777
9130.0 0.00016769
9150.0 0.00016753
9170.0 0.00016691
9190.0 0.00016559
9210.0 0.00016813
9230.0 0.00016732
9250.0 0.00016682
9270.0 0.00016638
9290.0 0.00016597
9310.0 0.00016559
9330.0 0.00016521
9350.0 0.00016482
9370.0 0.00016443
9390.0 0.00016401
9410.0 0.00016359
9430.0 0.00016315
9450.0 0.00016269
9470.0 0.00016223
9490.0 0.00016175
9510.0 0.00016126
9530.0 0.00016076
9550.0 0.00016025
9570.0 0.00015973
9590.0 0.00015921
9610.0 0.00015868
9630.0 0.00015815
9650.0 0.00015762
9670.0 0.00015707
9690.0 0.00015653
9710.0 0.00015599
9730.0 0.00015545
9750.0 0.00015491
9770.0 0.00015437
9790.0 0.00015384
9810.0 0.0001533
9830.0 0.00015277
9850.0 0.00015225
9870.0 0.00015173
9890.0 0.00015121
9910.0 0.00015071
9930.0 0.0001502
9950.0 0.00014944
9970.0 0.00014904
9990.0 0.00014863
10010.0 0.00014821
10030.0 0.00014779
10050.0 0.00014731
10070.0 0.00014658
10090.0 0.00014626
10110.0 0.00014594
10130.0 0.00014559
10150.0 0.00014525
10170.0 0.00014489
10190.0 0.00014451
10210.0 0.00014416
10230.0 0.00014382
10250.0 0.00014348
10270.0 0.00014315
10290.0 0.00014285
10310.0 0.00014254
10330.0 0.00014224
10350.0 0.00014197
10370.0 0.00014171
10390.0 0.00014145
10410.0 0.0001412
10430.0 0.00014098
10450.0 0.00014076
10470.0 0.00014055
10490.0 0.00014036
10510.0 0.00014019
10530.0 0.00014001
10550.0 0.00013985
10570.0 0.00013971
10590.0 0.00013957
10610.0 0.00013944
10630.0 0.00013933
10650.0 0.00013923
10670.0 0.00013914
10690.0 0.00013905
10710.0 0.00013899
10730.0 0.00013893
10750.0 0.00013887
10770.0 0.00013884
10790.0 0.00013881
10810.0 0.00013879
10830.0 0.00013877
10850.0 0.00013876
10870.0 0.00013872
10890.0 0.00013863
10910.0 0.00013847
10930.0 0.00013815
10950.0 0.00013758
10970.0 0.00013669
10990.0 0.00013546
11010.0 0.00013705
11030.0 0.00013478
11050.0 0.00013211
11070.0 0.00012901
11090.0 0.00012542
11110.0 0.00012182
11130.0 0.00011823
11150.0 0.00011453
11170.0 0.00011093
11190.0 0.00010764
11210.0 0.00010444
11230.0 0.00010138
11250.0 9.8646e-05
11270.0 9.6182e-05
11290.0 9.3854e-05
11310.0 9.1759e-05
11330.0 8.998e-05
11350.0 8.8325e-05
11370.0 8.6781e-05
11390.0 8.5397e-05
11410.0 8.4106e-05
11430.0 8.2779e-05
11450.0 8.1486e-05
11470.0 8.0216e-05
11490.0 7.8877e-05
11510.0 7.7433e-05
11530.0 7.5991e-05
11550.0 7.4498e-05
11570.0 7.2876e-05
11590.0 7.121e-05
11610.0 6.9555e-05
11630.0 6.7796e-05
11650.0 6.5962e-05
11670.0 6.4206e-05
11690.0 6.2455e-05
11710.0 6.0657e-05
11730.0 5.8912e-05
11750.0 5.7282e-05
11770.0 5.5637e-05
11790.0 5.403e-05
11810.0 5.2546e-05
11830.0 5.113e-05
11850.0 4.9706e-05
11870.0 4.8398e-05
11890.0 4.7198e-05
11910.0 4.6015e-05
11930.0 4.4871e-05
11950.0 4.3823e-05
11970.0 4.2804e-05
11990.0 4.1775e-05
12010.0 4.0809e-05
12030.0 3.9897e-05
12050.0 3.8983e-05
12070.0 3.8081e-05
12090.0 3.7278e-05
12110.0 3.6504e-05
12130.0 3.5757e-05
12150.0 3.5094e-05
12170.0 3.4524e-05
12190.0 3.4003e-05
12210.0 3.3595e-05
12230.0 3.332e-05
12250.0 3.3166e-05
12270.0 3.3148e-05
12290.0 3.3283e-05
12310.0 3.356e-05
12330.0 3.3993e-05
12350.0 3.4574e-05
12370.0 3.5267e-05
12390.0 3.6079e-05
12410.0 3.703e-05
12430.0 3.8007e-05
12450.0 3.9015e-05
12470.0 4.007e-05
12490.0 4.1115e-05
12510.0 4.209e-05
12530.0 4.3041e-05
12550.0 4.3943e-05
12570.0 4.4741e-05
12590.0 4.5449e-05
12610.0 4.6087e-05
12630.0 4.6628e-05
12650.0 4.706e-05
12670.0 4.7417e-05
12690.0 4.7694e-05
12710.0 4.7892e-05
12730.0 4.8024e-05
12750.0 4.8087e-05
12770.0 4.8089e-05
12790.0 4.8043e-05
12810.0 4.7939e-05
12830.0 4.7774e-05
12850.0 4.7573e-05
12870.0 4.7325e-05
12890.0 4.7007e-05
12910.0 4.6641e-05
12930.0 4.6237e-05
12950.0 4.5755e-05
12970.0 4.5197e-05
12990.0 4.4615e-05
13010.0 4.398e-05
13030.0 4.3267e-05
13050.0 4.2522e-05
13070.0 4.1778e-05
13090.0 4.0973e-05
13110.0 4.0146e-05
13130.0 3.9355e-05
13150.0 3.8579e-05
13170.0 3.7791e-05
13190.0 3.7085e-05
13210.0 3.6465e-05
13230.0 3.5896e-05
13250.0 3.541e-05
13270.0 3.5037e-05
13290.0 3.4748e-05
13310.0 3.4541e-05
13330.0 3.4431e-05
13350.0 3.4397e-05
13370.0 3.442e-05
13390.0 3.4488e-05
13410.0 3.4579e-05
13430.0 3.4673e-05
13450.0 3.4752e-05
13470.0 3.4797e-05
13490.0 3.4799e-05
13510.0 3.4739e-05
13530.0 3.4615e-05
13550.0 3.4436e-05
13570.0 3.4197e-05
13590.0 3.3896e-05
13610.0 3.3566e-05
13630.0 3.3217e-05
13650.0 3.2835e-05
13670.0 3.2451e-05
13690.0 3.2086e-05
13710.0 3.1728e-05
13730.0 3.1372e-05
13750.0 3.106e-05
13770.0 3.0773e-05
13790.0 3.0497e-05
13810.0 3.024e-05
13830.0 3.0006e-05
13850.0 2.9771e-05
13870.0 2.9534e-05
13890.0 2.9301e-05
13910.0 2.9064e-05
13930.0 2.881e-05
13950.0 2.8547e-05
13970.0 2.829e-05
13990.0 2.8021e-05
14010.0 2.7748e-05
14030.0 2.7487e-05
14050.0 2.7238e-05
14070.0 2.6991e-05
14090.0 2.677e-05
14110.0 2.6578e-05
14130.0 2.6406e-05
14150.0 2.6261e-05
14170.0 2.6148e-05
14190.0 2.6062e-05
14210.0 2.6004e-05
14230.0 2.5974e-05
14250.0 2.5969e-05
14270.0 2.5993e-05
14290.0 2.6047e-05
14310.0 2.6121e-05
14330.0 2.6219e-05
14350.0 2.6345e-05
14370.0 2.6487e-05
14390.0 2.6637e-05
14410.0 2.6807e-05
14430.0 2.6987e-05
14450.0 2.7161e-05
14470.0 2.7335e-05
14490.0 2.7517e-05
14510.0 2.7683e-05
14530.0 2.7836e-05
14550.0 2.7992e-05
14570.0 2.8148e-05
14590.0 2.8296e-05
14610.0 2.8457e-05
14630.0 2.8642e-05
14650.0 2.8841e-05
14670.0 2.9063e-05
14690.0 2.933e-05
14710.0 2.9646e-05
14730.0 2.998e-05
14750.0 3.0367e-05
14770.0 3.0814e-05
14790.0 3.129e-05
14810.0 3.1788e-05
14830.0 3.2358e-05
14850.0 3.2943e-05
14870.0 3.3512e-05
14890.0 3.4089e-05
14910.0 3.4663e-05
14930.0 3.5172e-05
14950.0 3.5607e-05
14970.0 3.5984e-05
14990.0 3.6257e-05
15010.0 3.6418e-05
15030.0 3.6489e-05
15050.0 3.6476e-05
15070.0 3.6387e-05
15090.0 3.625e-05
15110.0 3.608e-05
15130.0 3.5891e-05
15150.0 3.5693e-05
15170.0 3.5487e-05
15190.0 3.5278e-05
15210.0 3.5071e-05
15230.0 3.4863e-05
15250.0 3.4653e-05
15270.0 3.4444e-05
15290.0 3.4239e-05
15310.0 3.4032e-05
15330.0 3.3824e-05
15350.0 3.3619e-05
15370.0 3.3415e-05
15390.0 3.3208e-05
15410.0 3.3003e-05
15430.0 3.2801e-05
15450.0 3.2598e-05
15470.0 3.2394e-05
15490.0 3.2194e-05
15510.0 3.1994e-05
15530.0 3.1793e-05
15550.0 3.1594e-05
15570.0 3.1398e-05
15590.0 3.1199e-05
15610.0 3.1001e-05
15630.0 3.0807e-05
15650.0 3.0613e-05
15670.0 3.0418e-05
15690.0 3.0226e-05
15710.0 3.0036e-05
15730.0 2.9845e-05
15750.0 2.9654e-05
15770.0 2.9467e-05
15790.0 2.9281e-05
15810.0 2.9092e-05
15830.0 2.8907e-05
15850.0 2.8725e-05
15870.0 2.8542e-05
15890.0 2.8359e-05
15910.0 2.8181e-05
15930.0 2.8002e-05
15950.0 2.7822e-05
15970.0 2.7646e-05
15990.0 2.7471e-05
16010.0 2.7296e-05
16030.0 2.7121e-05
16050.0 2.6951e-05
16070.0 2.6781e-05
16090.0 2.661e-05
16110.0 2.6442e-05
16130.0 2.6277e-05
16150.0 2.6109e-05
16170.0 2.5943e-05
16190.0 2.5781e-05
16210.0 2.5619e-05
16230.0 2.5457e-05
16250.0 2.5298e-05
16270.0 2.5141e-05
16290.0 2.4982e-05
16310.0 2.4826e-05
16330.0 2.4673e-05
16350.0 2.4519e-05
16370.0 2.4364e-05
16390.0 2.4214e-05
16410.0 2.4065e-05
16430.0 2.3916e-05
16450.0 2.3768e-05
16470.0 2.3623e-05
16490.0 2.3478e-05
16510.0 2.3332e-05
16530.0 2.319e-05
16550.0 2.305e-05
16570.0 2.2907e-05
16590.0 2.2767e-05
16610.0 2.2631e-05
16630.0 2.2494e-05
16650.0 2.2357e-05
16670.0 2.2223e-05
16690.0 2.2091e-05
16710.0 2.1956e-05
16730.0 2.1824e-05
16750.0 2.1695e-05
16770.0 2.1566e-05
16790.0 2.1436e-05
16810.0 2.131e-05
16830.0 2.1185e-05
16850.0 2.1058e-05
16870.0 2.0934e-05
16890.0 2.0813e-05
16910.0 2.069e-05
16930.0 2.0567e-05
16950.0 2.0448e-05
16970.0 2.033e-05
16990.0 2.0211e-05
17010.0 2.0094e-05
17030.0 1.9979e-05
17050.0 1.9863e-05
17070.0 1.9748e-05
17090.0 1.9636e-05
17110.0 1.9524e-05
17130.0 1.941e-05
17150.0 1.93e-05
17170.0 1.9191e-05
17190.0 1.9082e-05
17210.0 1.8973e-05
17230.0 1.8868e-05
17250.0 1.8762e-05
17270.0 1.8654e-05
17290.0 1.855e-05
17310.0 1.8447e-05
17330.0 1.8343e-05
17350.0 1.824e-05
17370.0 1.814e-05
17390.0 1.804e-05
17410.0 1.7939e-05
17430.0 1.784e-05
17450.0 1.7744e-05
17470.0 1.7644e-05
17490.0 1.7546e-05
17510.0 1.7452e-05
17530.0 1.7356e-05
17550.0 1.726e-05
17570.0 1.7167e-05
17590.0 1.7075e-05
17610.0 1.6982e-05
17630.0 1.6889e-05
17650.0 1.6799e-05
17670.0 1.6709e-05
17690.0 1.6616e-05
17710.0 1.6528e-05
17730.0 1.6441e-05
17750.0 1.6352e-05
17770.0 1.6264e-05
17790.0 1.618e-05
17810.0 1.6093e-05
17830.0 1.6006e-05
17850.0 1.5922e-05
17870.0 1.5838e-05
17890.0 1.5753e-05
17910.0 1.5669e-05
17930.0 1.5589e-05
17950.0 1.5506e-05
17970.0 1.5424e-05
17990.0 1.5344e-05
18010.0 1.5265e-05
18030.0 1.5183e-05
18050.0 1.5104e-05
18070.0 1.5026e-05
18090.0 1.4948e-05
18110.0 1.4869e-05
18130.0 1.4793e-05
18150.0 1.4717e-05
18170.0 1.464e-05
18190.0 1.4565e-05
18210.0 1.4491e-05
18230.0 1.4415e-05
18250.0 1.4339e-05
18270.0 1.4267e-05
18290.0 1.4194e-05
18310.0 1.412e-05
18330.0 1.4048e-05
18350.0 1.3978e-05
18370.0 1.3906e-05
18390.0 1.3834e-05
18410.0 1.3765e-05
18430.0 1.3695e-05
18450.0 1.3623e-05
18470.0 1.3555e-05
18490.0 1.3487e-05
18510.0 1.3418e-05
18530.0 1.335e-05
18550.0 1.3284e-05
18570.0 1.3217e-05
18590.0 1.3148e-05
18610.0 1.3083e-05
18630.0 1.3018e-05
18650.0 1.2951e-05
18670.0 1.2885e-05
18690.0 1.2822e-05
18710.0 1.2758e-05
18730.0 1.2693e-05
18750.0 1.263e-05
18770.0 1.2568e-05
18790.0 1.2503e-05
18810.0 1.244e-05
18830.0 1.2379e-05
18850.0 1.2317e-05
18870.0 1.2255e-05
18890.0 1.2195e-05
18910.0 1.2135e-05
18930.0 1.2073e-05
18950.0 1.2013e-05
18970.0 1.1954e-05
18990.0 1.1895e-05
19010.0 1.1833e-05
19030.0 1.1776e-05
19050.0 1.1718e-05
19070.0 1.1659e-05
19090.0 1.1601e-05
19110.0 1.1545e-05
19130.0 1.1487e-05
19150.0 1.1429e-05
19170.0 1.1373e-05
19190.0 1.1318e-05
19210.0 1.126e-05
19230.0 1.1204e-05
19250.0 1.115e-05
19270.0 1.1095e-05
19290.0 1.1039e-05
19310.0 1.0985e-05
19330.0 1.0932e-05
19350.0 1.0876e-05
19370.0 1.0822e-05
19390.0 1.0769e-05
19410.0 1.0715e-05
19430.0 1.0661e-05
19450.0 1.061e-05
19470.0 1.0558e-05
19490.0 1.0504e-05
19510.0 1.0453e-05
19530.0 1.0402e-05
19550.0 1.0349e-05
19570.0 1.0297e-05
19590.0 1.0247e-05
19610.0 1.0196e-05
19630.0 1.0144e-05
19650.0 1.0094e-05
19670.0 1.0046e-05
19690.0 9.9946e-06
19710.0 9.9441e-06
19730.0 9.8956e-06
19750.0 9.8464e-06
19770.0 9.7953e-06
19790.0 9.7469e-06
19810.0 9.6992e-06
19830.0 9.6497e-06
19850.0 9.6001e-06
19870.0 9.5517e-06
19890.0 9.4995e-06
19910.0 9.4419e-06
19930.0 9.3803e-06
19950.0 9.3096e-06
19970.0 9.2225e-06
19990.0 9.1181e-06
20010.0 9.001e-06
20030.0 8.8611e-06
20050.0 8.7008e-06
20070.0 8.532e-06
20090.0 8.3558e-06
20110.0 8.1631e-06
20130.0 7.9759e-06
20150.0 7.7978e-06
20170.0 7.6201e-06
20190.0 7.447e-06
20210.0 7.2902e-06
20230.0 7.1429e-06
20250.0 7.0007e-06
20270.0 6.8741e-06
20290.0 6.7634e-06
20310.0 6.663e-06
20330.0 6.5746e-06
20350.0 6.5073e-06
20370.0 6.4539e-06
20390.0 6.4149e-06
20410.0 6.3932e-06
20430.0 6.3878e-06
20450.0 6.3985e-06
20470.0 6.4266e-06
20490.0 6.4696e-06
20510.0 6.5279e-06
20530.0 6.6036e-06
20550.0 6.6914e-06
20570.0 6.7878e-06
20590.0 6.8984e-06
20610.0 7.018e-06
20630.0 7.1398e-06
20650.0 7.2668e-06
20670.0 7.4019e-06
20690.0 7.5303e-06
20710.0 7.6537e-06
20730.0 7.7756e-06
20750.0 7.8908e-06
20770.0 7.9926e-06
20790.0 8.0872e-06
20810.0 8.1741e-06
20830.0 8.2483e-06
20850.0 8.3118e-06
20870.0 8.3685e-06
20890.0 8.4161e-06
20910.0 8.4542e-06
20930.0 8.4868e-06
20950.0 8.5142e-06
20970.0 8.5359e-06
20990.0 8.553e-06
21010.0 8.5664e-06
21030.0 8.575e-06
21050.0 8.5791e-06
21070.0 8.5784e-06
21090.0 8.5722e-06
21110.0 8.5611e-06
21130.0 8.545e-06
21150.0 8.5229e-06
21170.0 8.496e-06
21190.0 8.4659e-06
21210.0 8.4307e-06
21230.0 8.3914e-06
21250.0 8.3517e-06
21270.0 8.311e-06
21290.0 8.2685e-06
21310.0 8.2272e-06
21330.0 8.1894e-06
21350.0 8.1527e-06
21370.0 8.1187e-06
21390.0 8.0898e-06
21410.0 8.0653e-06
21430.0 8.0443e-06
21450.0 8.0294e-06
21470.0 8.0201e-06
21490.0 8.0159e-06
21510.0 8.0171e-06
21530.0 8.0235e-06
21550.0 8.0349e-06
21570.0 8.0518e-06
21590.0 8.0735e-06
21610.0 8.0993e-06
21630.0 8.1305e-06
21650.0 8.1677e-06
21670.0 8.2071e-06
21690.0 8.2515e-06
21710.0 8.3019e-06
21730.0 8.356e-06
21750.0 8.413e-06
21770.0 8.4781e-06
21790.0 8.5479e-06
21810.0 8.62e-06
21830.0 8.6975e-06
21850.0 8.7824e-06
21870.0 8.8696e-06
21890.0 8.958e-06
21910.0 9.0536e-06
21930.0 9.1526e-06
21950.0 9.2507e-06
21970.0 9.352e-06
21990.0 9.4592e-06
22010.0 9.5615e-06
22030.0 9.6614e-06
22050.0 9.7624e-06
22070.0 9.86e-06
22090.0 9.9489e-06
22110.0 1.0034e-05
22130.0 1.0114e-05
22150.0 1.0184e-05
22170.0 1.0243e-05
22190.0 1.0293e-05
22210.0 1.033e-05
22230.0 1.0353e-05
22250.0 1.0363e-05
22270.0 1.0358e-05
22290.0 1.0339e-05
22310.0 1.0305e-05
22330.0 1.0253e-05
22350.0 1.0187e-05
22370.0 1.0108e-05
22390.0 1.0013e-05
22410.0 9.9006e-06
22430.0 9.7811e-06
22450.0 9.6514e-06
22470.0 9.5066e-06
22490.0 9.3545e-06
22510.0 9.2009e-06
22530.0 9.0349e-06
22550.0 8.8615e-06
22570.0 8.6929e-06
22590.0 8.5233e-06
22610.0 8.3481e-06
