#lamb flux
1010.0 3.2161e-07
1030.0 3.5398e-07
1050.0 3.9122e-07
1070.0 4.3314e-07
1090.0 4.8075e-07
1110.0 5.2958e-07
1130.0 5.7873e-07
1150.0 6.3021e-07
1170.0 6.8331e-07
1190.0 7.3366e-07
1210.0 7.8469e-07
1230.0 8.3742e-07
1250.0 8.8908e-07
1270.0 9.3924e-07
1290.0 9.9225e-07
1310.0 1.0452e-06
1330.0 1.096e-06
1350.0 1.1474e-06
1370.0 1.2004e-06
1390.0 1.2521e-06
1410.0 1.3022e-06
1430.0 1.3546e-06
1450.0 1.407e-06
1470.0 1.4577e-06
1490.0 1.5089e-06
1510.0 1.5629e-06
1530.0 1.6141e-06
1550.0 1.6646e-06
1570.0 1.7169e-06
1590.0 1.7691e-06
1610.0 1.819e-06
1630.0 1.8705e-06
1650.0 1.9232e-06
1670.0 1.9743e-06
1690.0 2.0246e-06
1710.0 2.0768e-06
1730.0 2.1293e-06
1750.0 2.1786e-06
1770.0 2.2292e-06
1790.0 2.2808e-06
1810.0 2.3307e-06
1830.0 2.3795e-06
1850.0 2.4313e-06
1870.0 2.4816e-06
1890.0 2.5299e-06
1910.0 2.5791e-06
1930.0 2.6292e-06
1950.0 2.6767e-06
1970.0 2.7233e-06
1990.0 2.7714e-06
2010.0 2.8182e-06
2030.0 2.8628e-06
2050.0 2.9084e-06
2070.0 2.9547e-06
2090.0 2.9974e-06
2110.0 3.0393e-06
2130.0 3.0818e-06
2150.0 3.1226e-06
2170.0 3.1604e-06
2190.0 3.1989e-06
2210.0 3.2367e-06
2230.0 3.2714e-06
2250.0 3.3047e-06
2270.0 3.3388e-06
2290.0 3.3699e-06
2310.0 3.3978e-06
2330.0 3.4256e-06
2350.0 3.4523e-06
2370.0 3.4758e-06
2390.0 3.4988e-06
2410.0 3.5238e-06
2430.0 3.5482e-06
2450.0 3.5738e-06
2470.0 3.6059e-06
2490.0 3.6485e-06
2510.0 3.7024e-06
2530.0 3.7851e-06
2550.0 3.9229e-06
2570.0 4.1383e-06
2590.0 4.4577e-06
2610.0 4.9581e-06
2630.0 5.6445e-06
2650.0 6.4675e-06
2670.0 7.4267e-06
2690.0 8.4741e-06
2710.0 9.4553e-06
2730.0 1.0304e-05
2750.0 1.1038e-05
2770.0 1.1587e-05
2790.0 1.1957e-05
2810.0 1.2214e-05
2830.0 1.2402e-05
2850.0 1.2519e-05
2870.0 1.261e-05
2890.0 1.2699e-05
2910.0 1.2783e-05
2930.0 1.2853e-05
2950.0 1.2931e-05
2970.0 1.3012e-05
2990.0 1.3083e-05
3010.0 0.00014136
3030.0 0.00014213
3050.0 0.00014285
3070.0 0.00014332
3090.0 0.00014367
3110.0 0.00014373
3130.0 0.00014324
3150.0 0.00014215
3170.0 0.00014035
3190.0 0.00013788
3210.0 0.00013507
3230.0 0.00013221
3250.0 0.00012893
3270.0 0.00012772
3290.0 0.00012634
3310.0 0.00012892
3330.0 0.00013198
3350.0 0.00013615
3370.0 0.00014164
3390.0 0.00014823
3410.0 0.00015512
3430.0 0.00016259
3450.0 0.0001708
3470.0 0.00017933
3490.0 0.00018799
3510.0 0.00019704
3530.0 0.00020612
3550.0 0.00021607
3570.0 0.00022694
3590.0 0.00023722
3610.0 0.00024998
3630.0 0.00025978
3650.0 0.0002703
3670.0 0.00027884
3690.0 0.00028651
3710.0 0.00029284
3730.0 0.0002935
3750.0 0.00029396
3770.0 0.00028346
3790.0 0.00027731
3810.0 0.00026979
3830.0 0.00024427
3850.0 0.00022597
3870.0 0.00024139
3890.0 0.00028547
3910.0 0.00036176
3930.0 0.00042378
3950.0 0.00045439
3970.0 0.00043516
3990.0 0.00040624
4010.0 0.00042575
4030.0 0.00045946
4050.0 0.00047669
4070.0 0.0004293
4090.0 0.00035539
4110.0 0.00037973
4130.0 0.00042163
4150.0 0.00044009
4170.0 0.00042601
4190.0 0.00040783
4210.0 0.00044539
4230.0 0.0004845
4250.0 0.00050054
4270.0 0.00051581
4290.0 0.00050162
4310.0 0.0005222
4330.0 0.00057702
4350.0 0.00067456
4370.0 0.00072903
4390.0 0.00069092
4410.0 0.00058255
4430.0 0.00049267
4450.0 0.00040267
4470.0 0.00038813
4490.0 0.00043492
4510.0 0.00053047
4530.0 0.00057439
4550.0 0.00061191
4570.0 0.00071418
4590.0 0.00089719
4610.0 0.0011952
4630.0 0.0014318
4650.0 0.0014401
4670.0 0.0014515
4690.0 0.0015715
4710.0 0.0015715
4730.0 0.001282
4750.0 0.00094851
4770.0 0.0007816
4790.0 0.00074166
4810.0 0.00069011
4830.0 0.00070375
4850.0 0.00083021
4870.0 0.0010406
4890.0 0.0011034
4910.0 0.0009504
4930.0 0.00091411
4950.0 0.001093
4970.0 0.0014403
4990.0 0.0017255
5010.0 0.0017451
5030.0 0.001414
5050.0 0.00097331
5070.0 0.00071639
5090.0 0.00062443
5110.0 0.00062626
5130.0 0.00068167
5150.0 0.00068527
5170.0 0.00068253
5190.0 0.00067622
5210.0 0.00066546
5230.0 0.00070086
5250.0 0.0007452
5270.0 0.0008526
5290.0 0.0010068
5310.0 0.0010914
5330.0 0.0011313
5350.0 0.0011999
5370.0 0.0013078
5390.0 0.0013413
5410.0 0.0012308
5430.0 0.0010965
5450.0 0.0010853
5470.0 0.0013012
5490.0 0.0016714
5510.0 0.0020283
5530.0 0.0021742
5550.0 0.0021035
5570.0 0.0019504
5590.0 0.0017832
5610.0 0.0017074
5630.0 0.0017153
5650.0 0.0017429
5670.0 0.0017053
5690.0 0.001624
5710.0 0.0015602
5730.0 0.0013737
5750.0 0.0010562
5770.0 0.00094516
5790.0 0.0010445
5810.0 0.0012067
5830.0 0.0013572
5850.0 0.0014363
5870.0 0.0014236
5890.0 0.0013194
5910.0 0.0012638
5930.0 0.0012861
5950.0 0.00136
5970.0 0.0013905
5990.0 0.0012631
6010.0 0.001034
6030.0 0.00084276
6050.0 0.0007703
6070.0 0.00081238
6090.0 0.00090715
6110.0 0.0009207
6130.0 0.00085351
6150.0 0.00083718
6170.0 0.00092893
6190.0 0.0011109
6210.0 0.0013344
6230.0 0.0014822
6250.0 0.0014499
6270.0 0.0012856
6290.0 0.0010578
6310.0 0.00084085
6330.0 0.00070049
6350.0 0.00067107
6370.0 0.00073719
6390.0 0.00083355
6410.0 0.00096677
6430.0 0.0011401
6450.0 0.0013691
6470.0 0.0016809
6490.0 0.0019995
6510.0 0.0021073
6530.0 0.0019928
6550.0 0.0019088
6570.0 0.0019055
6590.0 0.0018478
6610.0 0.0017139
6630.0 0.0015972
6650.0 0.0015208
6670.0 0.0015245
6690.0 0.0014894
6710.0 0.0013348
6730.0 0.0011643
6750.0 0.0010586
6770.0 0.001106
6790.0 0.0011833
6810.0 0.0012467
6830.0 0.001267
6850.0 0.0012169
6870.0 0.0011619
6890.0 0.001132
6910.0 0.0010743
6930.0 0.0010307
6950.0 0.0010413
6970.0 0.001077
6990.0 0.0011718
7010.0 0.0012427
7030.0 0.0011956
7050.0 0.0010928
7070.0 0.00095513
7090.0 0.00080545
7110.0 0.00074203
7130.0 0.00078075
7150.0 0.00082814
7170.0 0.0008366
7190.0 0.00081411
7210.0 0.00081275
7230.0 0.00091803
7250.0 0.0010687
7270.0 0.0011876
7290.0 0.001228
7310.0 0.0011445
7330.0 0.0010293
7350.0 0.00094374
7370.0 0.00092276
7390.0 0.00094833
7410.0 0.0010091
7430.0 0.0011223
7450.0 0.0012523
7470.0 0.0013917
7490.0 0.0014904
7510.0 0.0013273
7530.0 0.0012406
7550.0 0.0010856
7570.0 0.00092088
7590.0 0.00075057
7610.0 0.00071331
7630.0 0.000769
7650.0 0.00087604
7670.0 0.00099717
7690.0 0.0011
7710.0 0.0012237
7730.0 0.0013136
7750.0 0.0013685
7770.0 0.0013731
7790.0 0.0013658
7810.0 0.001382
7830.0 0.0013528
7850.0 0.0013018
7870.0 0.0012321
7890.0 0.0011316
7910.0 0.0010156
7930.0 0.00090197
7950.0 0.00081325
7970.0 0.00078859
7990.0 0.00082091
8010.0 0.00087185
8030.0 0.0008814
8050.0 0.00089848
8070.0 0.00088877
8090.0 0.00088699
8110.0 0.00085839
8130.0 0.00080258
8150.0 0.0007534
8170.0 0.000746
8190.0 0.000758
8210.0 0.00076608
8230.0 0.00074633
8250.0 0.00071395
8270.0 0.00062943
8290.0 0.00050434
8310.0 0.00037671
8330.0 0.00025778
8350.0 0.00018703
8370.0 0.00018318
8390.0 0.00021751
8410.0 0.00027009
8430.0 0.0003324
8450.0 0.00036623
8470.0 0.00038752
8490.0 0.00041144
8510.0 0.00043559
8530.0 0.00048228
8550.0 0.00056591
8570.0 0.00066035
8590.0 0.00074886
8610.0 0.00087096
8630.0 0.0010104
8650.0 0.0010841
8670.0 0.0010901
8690.0 0.0010628
8710.0 0.0010144
8730.0 0.00097276
8750.0 0.00092715
8770.0 0.00090466
8790.0 0.00087006
8810.0 0.00080695
8830.0 0.00074394
8850.0 0.00064008
8870.0 0.00057273
8890.0 0.00053194
8910.0 0.00056765
8930.0 0.00055138
8950.0 0.00056439
8970.0 0.00057199
8990.0 0.00057576
9010.0 0.00058357
9030.0 0.00057139
9050.0 0.00057058
9070.0 0.00057105
9090.0 0.00057155
9110.0 0.00057203
9130.0 0.00057261
9150.0 0.00057334
9170.0 0.00057363
9190.0 0.00057333
9210.0 0.00057732
9230.0 0.00057752
9250.0 0.00057818
9270.0 0.000579
9290.0 0.00057994
9310.0 0.00058101
9330.0 0.00058216
9350.0 0.00058338
9370.0 0.00058467
9390.0 0.00058603
9410.0 0.00058743
9430.0 0.00058889
9450.0 0.00059041
9470.0 0.00059198
9490.0 0.0005936
9510.0 0.00059527
9530.0 0.000597
9550.0 0.00059877
9570.0 0.00060059
9590.0 0.00060246
9610.0 0.00060438
9630.0 0.00060634
9650.0 0.00060835
9670.0 0.0006104
9690.0 0.0006125
9710.0 0.00061463
9730.0 0.00061681
9750.0 0.00061902
9770.0 0.00062127
9790.0 0.00062356
9810.0 0.00062588
9830.0 0.00062823
9850.0 0.00063061
9870.0 0.00063301
9890.0 0.00063544
9910.0 0.0006379
9930.0 0.00064037
9950.0 0.00064264
9970.0 0.00064521
9990.0 0.00064779
10010.0 0.00064996
10030.0 0.00065253
10050.0 0.00065491
10070.0 0.00065639
10090.0 0.00065933
10110.0 0.0006622
10130.0 0.00066497
10150.0 0.00066768
10170.0 0.0006703
10190.0 0.00067281
10210.0 0.00067535
10230.0 0.00067788
10250.0 0.00068032
10270.0 0.00068274
10290.0 0.0006852
10310.0 0.00068757
10330.0 0.00068985
10350.0 0.00069218
10370.0 0.00069447
10390.0 0.00069667
10410.0 0.00069883
10430.0 0.00070102
10450.0 0.0007031
10470.0 0.00070509
10490.0 0.00070709
10510.0 0.00070904
10530.0 0.00071084
10550.0 0.00071261
10570.0 0.00071439
10590.0 0.00071605
10610.0 0.00071761
10630.0 0.00071916
10650.0 0.00072064
10670.0 0.00072197
10690.0 0.00072326
10710.0 0.00072451
10730.0 0.00072563
10750.0 0.00072662
10770.0 0.00072763
10790.0 0.00072854
10810.0 0.00072929
10830.0 0.00072996
10850.0 0.00073053
10870.0 0.00073076
10890.0 0.00073057
10910.0 0.00072982
10930.0 0.00072804
10950.0 0.00072456
10970.0 0.00071911
10990.0 0.00071153
11010.0 0.00069099
11030.0 0.00067666
11050.0 0.00066027
11070.0 0.00064149
11090.0 0.00061973
11110.0 0.00059804
11130.0 0.00057624
11150.0 0.00055376
11170.0 0.00053179
11190.0 0.00051176
11210.0 0.00049242
11230.0 0.0004741
11250.0 0.00045807
11270.0 0.00044398
11290.0 0.00043112
11310.0 0.00042004
11330.0 0.00041107
11350.0 0.00040309
11370.0 0.00039596
11390.0 0.00038973
11410.0 0.00038392
11430.0 0.00037782
11450.0 0.00037158
11470.0 0.00036506
11490.0 0.0003578
11510.0 0.00034955
11530.0 0.00034093
11550.0 0.00033174
11570.0 0.00032164
11590.0 0.00031122
11610.0 0.00030091
11630.0 0.0002902
11650.0 0.0002794
11670.0 0.00026941
11690.0 0.00025988
11710.0 0.00025065
11730.0 0.00024221
11750.0 0.00023474
11770.0 0.0002277
11790.0 0.00022124
11810.0 0.00021557
11830.0 0.00021039
11850.0 0.00020537
11870.0 0.00020079
11890.0 0.0001965
11910.0 0.00019215
11930.0 0.00018774
11950.0 0.00018339
11970.0 0.00017887
11990.0 0.00017402
12010.0 0.00016912
12030.0 0.00016421
12050.0 0.00015909
12070.0 0.0001539
12090.0 0.00014912
12110.0 0.00014449
12130.0 0.0001401
12150.0 0.00013627
12170.0 0.00013307
12190.0 0.00013039
12210.0 0.00012852
12230.0 0.0001275
12250.0 0.0001273
12270.0 0.00012801
12290.0 0.00012953
12310.0 0.00013172
12330.0 0.00013476
12350.0 0.00013842
12370.0 0.00014242
12390.0 0.00014682
12410.0 0.00015173
12430.0 0.00015641
12450.0 0.00016094
12470.0 0.00016543
12490.0 0.00016956
12510.0 0.00017305
12530.0 0.00017615
12550.0 0.00017873
12570.0 0.00018057
12590.0 0.00018174
12610.0 0.00018232
12630.0 0.00018222
12650.0 0.00018148
12670.0 0.0001802
12690.0 0.00017838
12710.0 0.00017614
12730.0 0.00017355
12750.0 0.00017053
12770.0 0.00016727
12790.0 0.00016389
12810.0 0.0001603
12830.0 0.00015649
12850.0 0.00015274
12870.0 0.00014892
12890.0 0.00014491
12910.0 0.00014087
12930.0 0.00013687
12950.0 0.00013265
12970.0 0.00012828
12990.0 0.00012401
13010.0 0.00011969
13030.0 0.00011521
13050.0 0.0001108
13070.0 0.0001066
13090.0 0.00010236
13110.0 9.8264e-05
13130.0 9.4531e-05
13150.0 9.1082e-05
13170.0 8.7851e-05
13190.0 8.5131e-05
13210.0 8.2904e-05
13230.0 8.1072e-05
13250.0 7.9714e-05
13270.0 7.8849e-05
13290.0 7.8408e-05
13310.0 7.8401e-05
13330.0 7.8773e-05
13350.0 7.9447e-05
13370.0 8.0428e-05
13390.0 8.166e-05
13410.0 8.2945e-05
13430.0 8.4344e-05
13450.0 8.5828e-05
13470.0 8.7252e-05
13490.0 8.8575e-05
13510.0 8.9908e-05
13530.0 9.11e-05
13550.0 9.2106e-05
13570.0 9.2999e-05
13590.0 9.3787e-05
13610.0 9.4409e-05
13630.0 9.4891e-05
13650.0 9.5297e-05
13670.0 9.5593e-05
13690.0 9.5779e-05
13710.0 9.589e-05
13730.0 9.5935e-05
13750.0 9.5879e-05
13770.0 9.5746e-05
13790.0 9.5535e-05
13810.0 9.5234e-05
13830.0 9.4845e-05
13850.0 9.4356e-05
13870.0 9.3755e-05
13890.0 9.306e-05
13910.0 9.2271e-05
13930.0 9.1358e-05
13950.0 9.0357e-05
13970.0 8.933e-05
13990.0 8.8229e-05
14010.0 8.7084e-05
14030.0 8.5968e-05
14050.0 8.488e-05
14070.0 8.3786e-05
14090.0 8.2785e-05
14110.0 8.1888e-05
14130.0 8.1069e-05
14150.0 8.0347e-05
14170.0 7.9765e-05
14190.0 7.9298e-05
14210.0 7.8944e-05
14230.0 7.8722e-05
14250.0 7.8624e-05
14270.0 7.8657e-05
14290.0 7.8829e-05
14310.0 7.9112e-05
14330.0 7.9512e-05
14350.0 8.0046e-05
14370.0 8.0669e-05
14390.0 8.1351e-05
14410.0 8.2139e-05
14430.0 8.2993e-05
14450.0 8.3859e-05
14470.0 8.4765e-05
14490.0 8.5756e-05
14510.0 8.6744e-05
14530.0 8.7748e-05
14550.0 8.8855e-05
14570.0 9.0062e-05
14590.0 9.133e-05
14610.0 9.2766e-05
14630.0 9.4448e-05
14650.0 9.6283e-05
14670.0 9.8303e-05
14690.0 0.00010063
14710.0 0.00010325
14730.0 0.00010592
14750.0 0.00010884
14770.0 0.000112
14790.0 0.00011518
14810.0 0.00011833
14830.0 0.00012166
14850.0 0.00012484
14870.0 0.00012775
14890.0 0.00013048
14910.0 0.00013298
14930.0 0.00013505
14950.0 0.00013673
14970.0 0.00013808
14990.0 0.00013903
15010.0 0.0001396
15030.0 0.00013989
15050.0 0.00013992
15070.0 0.00013978
15090.0 0.00013951
15110.0 0.00013917
15130.0 0.00013878
15150.0 0.0001384
15170.0 0.00013798
15190.0 0.00013756
15210.0 0.00013716
15230.0 0.00013676
15250.0 0.00013634
15270.0 0.00013593
15290.0 0.00013555
15310.0 0.00013515
15330.0 0.00013475
15350.0 0.00013436
15370.0 0.00013399
15390.0 0.00013358
15410.0 0.0001332
15430.0 0.00013283
15450.0 0.00013244
15470.0 0.00013205
15490.0 0.00013169
15510.0 0.00013132
15530.0 0.00013094
15550.0 0.00013057
15570.0 0.00013021
15590.0 0.00012984
15610.0 0.00012946
15630.0 0.0001291
15650.0 0.00012874
15670.0 0.00012837
15690.0 0.00012801
15710.0 0.00012766
15730.0 0.00012729
15750.0 0.00012693
15770.0 0.00012658
15790.0 0.00012622
15810.0 0.00012585
15830.0 0.00012549
15850.0 0.00012514
15870.0 0.00012478
15890.0 0.00012442
15910.0 0.00012407
15930.0 0.00012372
15950.0 0.00012335
15970.0 0.000123
15990.0 0.00012265
16010.0 0.00012228
16030.0 0.00012191
16050.0 0.00012157
16070.0 0.00012122
16090.0 0.00012085
16110.0 0.00012049
16130.0 0.00012015
16150.0 0.00011977
16170.0 0.00011941
16190.0 0.00011905
16210.0 0.00011869
16230.0 0.00011832
16250.0 0.00011796
16270.0 0.00011761
16290.0 0.00011723
16310.0 0.00011687
16330.0 0.00011651
16350.0 0.00011614
16370.0 0.00011575
16390.0 0.00011539
16410.0 0.00011503
16430.0 0.00011465
16450.0 0.00011427
16470.0 0.00011391
16490.0 0.00011353
16510.0 0.00011315
16530.0 0.00011277
16550.0 0.0001124
16570.0 0.00011201
16590.0 0.00011162
16610.0 0.00011125
16630.0 0.00011087
16650.0 0.00011047
16670.0 0.00011009
16690.0 0.00010971
16710.0 0.00010931
16730.0 0.00010891
16750.0 0.00010853
16770.0 0.00010813
16790.0 0.00010773
16810.0 0.00010734
16830.0 0.00010695
16850.0 0.00010654
16870.0 0.00010614
16890.0 0.00010575
16910.0 0.00010533
16930.0 0.00010492
16950.0 0.00010452
16970.0 0.00010411
16990.0 0.00010369
17010.0 0.00010328
17030.0 0.00010288
17050.0 0.00010246
17070.0 0.00010204
17090.0 0.00010163
17110.0 0.00010122
17130.0 0.00010078
17150.0 0.00010036
17170.0 9.9947e-05
17190.0 9.9518e-05
17210.0 9.9087e-05
17230.0 9.8672e-05
17250.0 9.8244e-05
17270.0 9.7801e-05
17290.0 9.7373e-05
17310.0 9.6948e-05
17330.0 9.6507e-05
17350.0 9.6062e-05
17370.0 9.5639e-05
17390.0 9.5203e-05
17410.0 9.4756e-05
17430.0 9.432e-05
17450.0 9.3891e-05
17470.0 9.3432e-05
17490.0 9.2983e-05
17510.0 9.2548e-05
17530.0 9.2102e-05
17550.0 9.1645e-05
17570.0 9.1203e-05
17590.0 9.0764e-05
17610.0 9.0304e-05
17630.0 8.985e-05
17650.0 8.9408e-05
17670.0 8.8954e-05
17690.0 8.848e-05
17710.0 8.8034e-05
17730.0 8.7585e-05
17750.0 8.712e-05
17770.0 8.6661e-05
17790.0 8.6217e-05
17810.0 8.5751e-05
17830.0 8.5281e-05
17850.0 8.4826e-05
17870.0 8.4369e-05
17890.0 8.3895e-05
17910.0 8.3427e-05
17930.0 8.2977e-05
17950.0 8.251e-05
17970.0 8.2038e-05
17990.0 8.158e-05
18010.0 8.1121e-05
18030.0 8.0637e-05
18050.0 8.0169e-05
18070.0 7.971e-05
18090.0 7.9238e-05
18110.0 7.8759e-05
18130.0 7.83e-05
18150.0 7.7836e-05
18170.0 7.7356e-05
18190.0 7.6887e-05
18210.0 7.6427e-05
18230.0 7.5947e-05
18250.0 7.5463e-05
18270.0 7.5002e-05
18290.0 7.4533e-05
18310.0 7.4052e-05
18330.0 7.3582e-05
18350.0 7.3122e-05
18370.0 7.2641e-05
18390.0 7.2162e-05
18410.0 7.1698e-05
18430.0 7.1227e-05
18450.0 7.0738e-05
18470.0 7.0268e-05
18490.0 6.9805e-05
18510.0 6.9327e-05
18530.0 6.885e-05
18550.0 6.839e-05
18570.0 6.7916e-05
18590.0 6.743e-05
18610.0 6.6961e-05
18630.0 6.6496e-05
18650.0 6.6016e-05
18670.0 6.5536e-05
18690.0 6.5078e-05
18710.0 6.4607e-05
18730.0 6.4128e-05
18750.0 6.3662e-05
18770.0 6.3201e-05
18790.0 6.2715e-05
18810.0 6.224e-05
18830.0 6.178e-05
18850.0 6.131e-05
18870.0 6.0832e-05
18890.0 6.037e-05
18910.0 5.9911e-05
18930.0 5.9434e-05
18950.0 5.8964e-05
18970.0 5.8507e-05
18990.0 5.8039e-05
19010.0 5.7555e-05
19030.0 5.7099e-05
19050.0 5.664e-05
19070.0 5.6169e-05
19090.0 5.5704e-05
19110.0 5.5255e-05
19130.0 5.4785e-05
19150.0 5.4314e-05
19170.0 5.3859e-05
19190.0 5.3403e-05
19210.0 5.2931e-05
19230.0 5.2468e-05
19250.0 5.2022e-05
19270.0 5.1561e-05
19290.0 5.1097e-05
19310.0 5.0649e-05
19330.0 5.0198e-05
19350.0 4.9726e-05
19370.0 4.9272e-05
19390.0 4.8827e-05
19410.0 4.8369e-05
19430.0 4.7908e-05
19450.0 4.7467e-05
19470.0 4.7019e-05
19490.0 4.656e-05
19510.0 4.6112e-05
19530.0 4.5673e-05
19550.0 4.5216e-05
19570.0 4.4758e-05
19590.0 4.4322e-05
19610.0 4.3878e-05
19630.0 4.3425e-05
19650.0 4.2984e-05
19670.0 4.2552e-05
19690.0 4.2101e-05
19710.0 4.1654e-05
19730.0 4.1221e-05
19750.0 4.0782e-05
19770.0 4.0328e-05
19790.0 3.9894e-05
19810.0 3.9465e-05
19830.0 3.9022e-05
19850.0 3.8579e-05
19870.0 3.8149e-05
19890.0 3.7696e-05
19910.0 3.7217e-05
19930.0 3.6729e-05
19950.0 3.6207e-05
19970.0 3.5614e-05
19990.0 3.4957e-05
20010.0 3.4266e-05
20030.0 3.3489e-05
20050.0 3.2646e-05
20070.0 3.1796e-05
20090.0 3.0944e-05
20110.0 3.0055e-05
20130.0 2.9226e-05
20150.0 2.8469e-05
20170.0 2.7749e-05
20190.0 2.7083e-05
20210.0 2.6509e-05
20230.0 2.5999e-05
20250.0 2.5538e-05
20270.0 2.5155e-05
20290.0 2.4843e-05
20310.0 2.4584e-05
20330.0 2.4381e-05
20350.0 2.4247e-05
20370.0 2.4163e-05
20390.0 2.413e-05
20410.0 2.4149e-05
20430.0 2.4213e-05
20450.0 2.4329e-05
20470.0 2.4494e-05
20490.0 2.4697e-05
20510.0 2.4943e-05
20530.0 2.5242e-05
20550.0 2.5573e-05
20570.0 2.5925e-05
20590.0 2.6322e-05
20610.0 2.6748e-05
20630.0 2.7177e-05
20650.0 2.7624e-05
20670.0 2.8104e-05
20690.0 2.8563e-05
20710.0 2.901e-05
20730.0 2.9464e-05
20750.0 2.9909e-05
20770.0 3.0318e-05
20790.0 3.0724e-05
20810.0 3.113e-05
20830.0 3.1515e-05
20850.0 3.1888e-05
20870.0 3.2281e-05
20890.0 3.2678e-05
20910.0 3.3064e-05
20930.0 3.3472e-05
20950.0 3.3904e-05
20970.0 3.4335e-05
20990.0 3.4768e-05
21010.0 3.5232e-05
21030.0 3.5688e-05
21050.0 3.612e-05
21070.0 3.6545e-05
21090.0 3.6958e-05
21110.0 3.7315e-05
21130.0 3.7628e-05
21150.0 3.7905e-05
21170.0 3.8124e-05
21190.0 3.828e-05
21210.0 3.8384e-05
21230.0 3.8425e-05
21250.0 3.8401e-05
21270.0 3.8319e-05
21290.0 3.8175e-05
21310.0 3.7972e-05
21330.0 3.7726e-05
21350.0 3.7424e-05
21370.0 3.7069e-05
21390.0 3.6684e-05
21410.0 3.6267e-05
21430.0 3.5792e-05
21450.0 3.5307e-05
21470.0 3.4818e-05
21490.0 3.4304e-05
21510.0 3.3779e-05
21530.0 3.3277e-05
21550.0 3.2783e-05
21570.0 3.2287e-05
21590.0 3.1827e-05
21610.0 3.1409e-05
21630.0 3.1016e-05
21650.0 3.066e-05
21670.0 3.0376e-05
21690.0 3.0138e-05
21710.0 2.9952e-05
21730.0 2.983e-05
21750.0 2.9769e-05
21770.0 2.9768e-05
21790.0 2.9833e-05
21810.0 2.9956e-05
21830.0 3.0137e-05
21850.0 3.0384e-05
21870.0 3.0678e-05
21890.0 3.1011e-05
21910.0 3.1403e-05
21930.0 3.1837e-05
21950.0 3.2292e-05
21970.0 3.2784e-05
21990.0 3.3328e-05
22010.0 3.3869e-05
22030.0 3.4416e-05
22050.0 3.4992e-05
22070.0 3.5573e-05
22090.0 3.6125e-05
22110.0 3.6683e-05
22130.0 3.7241e-05
22150.0 3.776e-05
22170.0 3.8246e-05
22190.0 3.8719e-05
22210.0 3.9147e-05
22230.0 3.9508e-05
22250.0 3.9825e-05
22270.0 4.0089e-05
22290.0 4.0281e-05
22310.0 4.0405e-05
22330.0 4.046e-05
22350.0 4.0436e-05
22370.0 4.0336e-05
22390.0 4.0156e-05
22410.0 3.9885e-05
22430.0 3.9548e-05
22450.0 3.914e-05
22470.0 3.8642e-05
22490.0 3.8079e-05
22510.0 3.7473e-05
22530.0 3.6782e-05
22550.0 3.6021e-05
22570.0 3.5245e-05
22590.0 3.4432e-05
22610.0 3.3557e-05
22630.0 3.2668e-05
22650.0 3.1799e-05
22670.0 3.0888e-05
22690.0 2.9964e-05
22710.0 2.9077e-05
22730.0 2.8203e-05
