#lamb flux
1010.0 1.4321e-10
1030.0 1.8013e-10
1050.0 2.2259e-10
1070.0 2.7038e-10
1090.0 3.2467e-10
1110.0 3.8035e-10
1130.0 4.3638e-10
1150.0 4.9509e-10
1170.0 5.5564e-10
1190.0 6.1306e-10
1210.0 6.7125e-10
1230.0 7.3139e-10
1250.0 7.903e-10
1270.0 8.4752e-10
1290.0 9.0799e-10
1310.0 9.684e-10
1330.0 1.0263e-09
1350.0 1.0849e-09
1370.0 1.1454e-09
1390.0 1.2044e-09
1410.0 1.2617e-09
1430.0 1.3215e-09
1450.0 1.3813e-09
1470.0 1.4392e-09
1490.0 1.4976e-09
1510.0 1.5594e-09
1530.0 1.6179e-09
1550.0 1.6757e-09
1570.0 1.7354e-09
1590.0 1.7953e-09
1610.0 1.8525e-09
1630.0 1.9115e-09
1650.0 1.9721e-09
1670.0 2.0307e-09
1690.0 2.0887e-09
1710.0 2.1489e-09
1730.0 2.2096e-09
1750.0 2.2667e-09
1770.0 2.3256e-09
1790.0 2.3857e-09
1810.0 2.444e-09
1830.0 2.5015e-09
1850.0 2.5626e-09
1870.0 2.6222e-09
1890.0 2.68e-09
1910.0 2.7392e-09
1930.0 2.7999e-09
1950.0 2.8582e-09
1970.0 2.9159e-09
1990.0 2.976e-09
2010.0 3.0354e-09
2030.0 3.093e-09
2050.0 3.1525e-09
2070.0 3.2138e-09
2090.0 3.272e-09
2110.0 3.3303e-09
2130.0 3.3907e-09
2150.0 3.4503e-09
2170.0 3.5078e-09
2190.0 3.5677e-09
2210.0 3.6284e-09
2230.0 3.6872e-09
2250.0 3.7461e-09
2270.0 3.8081e-09
2290.0 3.8687e-09
2310.0 3.9274e-09
2330.0 3.9883e-09
2350.0 4.0501e-09
2370.0 4.1098e-09
2390.0 4.1704e-09
2410.0 4.2342e-09
2430.0 4.2971e-09
2450.0 4.3612e-09
2470.0 4.4323e-09
2490.0 4.515e-09
2510.0 4.6104e-09
2530.0 4.7341e-09
2550.0 4.9052e-09
2570.0 5.1353e-09
2590.0 5.4397e-09
2610.0 5.8749e-09
2630.0 6.4521e-09
2650.0 7.1578e-09
2670.0 8.0292e-09
2690.0 9.0845e-09
2710.0 1.0241e-08
2730.0 1.1458e-08
2750.0 1.2774e-08
2770.0 1.4081e-08
2790.0 1.5296e-08
2810.0 1.6438e-08
2830.0 1.7506e-08
2850.0 1.8405e-08
2870.0 1.92e-08
2890.0 1.994e-08
2910.0 2.0632e-08
2930.0 2.1288e-08
2950.0 2.1962e-08
2970.0 2.2663e-08
2990.0 2.3379e-08
3010.0 2.4124e-08
3030.0 2.4921e-08
3050.0 2.5755e-08
3070.0 2.6603e-08
3090.0 2.7502e-08
3110.0 2.8459e-08
3130.0 2.9485e-08
3150.0 3.0652e-08
3170.0 3.214e-08
3190.0 3.4078e-08
3210.0 3.6615e-08
3230.0 3.9992e-08
3250.0 4.4281e-08
3270.0 4.8362e-08
3290.0 5.4838e-08
3310.0 6.8105e-08
3330.0 7.2513e-08
3350.0 7.468e-08
3370.0 7.6764e-08
3390.0 7.8883e-08
3410.0 8.1026e-08
3430.0 8.3184e-08
3450.0 8.5342e-08
3470.0 8.7463e-08
3490.0 8.9507e-08
3510.0 9.1359e-08
3530.0 9.0544e-08
3550.0 8.8043e-08
3570.0 8.9338e-08
3590.0 9.4976e-08
3610.0 1.0351e-07
3630.0 1.0691e-07
3650.0 1.0269e-07
3670.0 9.4311e-08
3690.0 8.9443e-08
3710.0 9.057e-08
3730.0 9.3551e-08
3750.0 9.5153e-08
3770.0 9.8358e-08
3790.0 1.0194e-07
3810.0 1.0049e-07
3830.0 9.3656e-08
3850.0 8.7536e-08
3870.0 8.4632e-08
3890.0 8.3665e-08
3910.0 8.179e-08
3930.0 8.0844e-08
3950.0 8.3122e-08
3970.0 8.5789e-08
3990.0 8.6564e-08
4010.0 8.3385e-08
4030.0 7.8848e-08
4050.0 7.5931e-08
4070.0 7.3462e-08
4090.0 7.1464e-08
4110.0 6.8853e-08
4130.0 6.4736e-08
4150.0 6.0595e-08
4170.0 5.8138e-08
4190.0 5.4212e-08
4210.0 4.9078e-08
4230.0 4.3881e-08
4250.0 3.8947e-08
4270.0 3.5262e-08
4290.0 3.2538e-08
4310.0 3.1096e-08
4330.0 3.1045e-08
4350.0 3.1198e-08
4370.0 3.1496e-08
4390.0 3.266e-08
4410.0 3.3464e-08
4430.0 3.2306e-08
4450.0 2.9332e-08
4470.0 2.6733e-08
4490.0 2.532e-08
4510.0 2.4412e-08
4530.0 2.3958e-08
4550.0 2.3568e-08
4570.0 2.3469e-08
4590.0 2.3791e-08
4610.0 2.4521e-08
4630.0 2.4957e-08
4650.0 2.5172e-08
4670.0 2.456e-08
4690.0 2.3098e-08
4710.0 2.1643e-08
4730.0 2.07e-08
4750.0 2.0121e-08
4770.0 2.0193e-08
4790.0 2.0114e-08
4810.0 1.9683e-08
4830.0 1.9722e-08
4850.0 2.0337e-08
4870.0 2.054e-08
4890.0 2.0171e-08
4910.0 1.9703e-08
4930.0 1.8581e-08
4950.0 1.6962e-08
4970.0 1.5854e-08
4990.0 1.4944e-08
5010.0 1.475e-08
5030.0 1.5247e-08
5050.0 1.5637e-08
5070.0 1.6222e-08
5090.0 1.7202e-08
5110.0 1.7464e-08
5130.0 1.7617e-08
5150.0 1.7942e-08
5170.0 1.8093e-08
5190.0 1.8567e-08
5210.0 1.8664e-08
5230.0 1.8471e-08
5250.0 1.862e-08
5270.0 1.888e-08
5290.0 1.8931e-08
5310.0 1.879e-08
5330.0 1.8433e-08
5350.0 1.8182e-08
5370.0 1.7988e-08
5390.0 1.775e-08
5410.0 1.7553e-08
5430.0 1.7546e-08
5450.0 1.7804e-08
5470.0 1.8135e-08
5490.0 1.8649e-08
5510.0 1.9214e-08
5530.0 1.9451e-08
5550.0 1.974e-08
5570.0 1.9783e-08
5590.0 1.9373e-08
5610.0 1.9233e-08
5630.0 1.9378e-08
5650.0 1.9143e-08
5670.0 1.8719e-08
5690.0 1.8159e-08
5710.0 1.8111e-08
5730.0 1.8302e-08
5750.0 1.7522e-08
5770.0 1.6623e-08
5790.0 1.5282e-08
5810.0 1.3368e-08
5830.0 1.4411e-08
5850.0 1.5953e-08
5870.0 1.6299e-08
5890.0 1.6386e-08
5910.0 1.652e-08
5930.0 1.6485e-08
5950.0 1.6213e-08
5970.0 1.6019e-08
5990.0 1.5788e-08
6010.0 1.5307e-08
6030.0 1.4783e-08
6050.0 1.4552e-08
6070.0 1.4486e-08
6090.0 1.4266e-08
6110.0 1.3791e-08
6130.0 1.3322e-08
6150.0 1.2787e-08
6170.0 1.2253e-08
6190.0 1.1703e-08
6210.0 1.129e-08
6230.0 1.1127e-08
6250.0 1.0891e-08
6270.0 1.0663e-08
6290.0 1.0581e-08
6310.0 1.0512e-08
6330.0 1.0281e-08
6350.0 9.9469e-09
6370.0 9.7567e-09
6390.0 9.5643e-09
6410.0 9.2978e-09
6430.0 9.0456e-09
6450.0 8.8466e-09
6470.0 8.6574e-09
6490.0 8.5256e-09
6510.0 8.378e-09
6530.0 8.1652e-09
6550.0 7.9845e-09
6570.0 7.8612e-09
6590.0 7.8484e-09
6610.0 7.7991e-09
6630.0 7.5382e-09
6650.0 7.3251e-09
6670.0 7.2491e-09
6690.0 7.135e-09
6710.0 6.9637e-09
6730.0 6.9022e-09
6750.0 6.9558e-09
6770.0 7.3691e-09
6790.0 8.2355e-09
6810.0 7.8205e-09
6830.0 6.8694e-09
6850.0 6.5981e-09
6870.0 6.4971e-09
6890.0 6.4978e-09
6910.0 6.5117e-09
6930.0 6.5265e-09
6950.0 6.5064e-09
6970.0 6.3413e-09
6990.0 6.2841e-09
7010.0 6.3776e-09
7030.0 6.4075e-09
7050.0 6.3146e-09
7070.0 6.2506e-09
7090.0 6.2911e-09
7110.0 6.4376e-09
7130.0 6.4587e-09
7150.0 6.4826e-09
7170.0 6.5171e-09
7190.0 6.6074e-09
7210.0 6.6789e-09
7230.0 6.7508e-09
7250.0 6.8407e-09
7270.0 6.905e-09
7290.0 7.0139e-09
7310.0 7.1431e-09
7330.0 7.0878e-09
7350.0 6.9391e-09
7370.0 6.8447e-09
7390.0 6.8282e-09
7410.0 6.8564e-09
7430.0 6.9418e-09
7450.0 6.9849e-09
7470.0 7.084e-09
7490.0 7.0434e-09
7510.0 6.9667e-09
7530.0 7.0485e-09
7550.0 7.2669e-09
7570.0 7.2486e-09
7590.0 6.8743e-09
7610.0 6.8173e-09
7630.0 7.2034e-09
7650.0 7.3478e-09
7670.0 7.3972e-09
7690.0 7.7264e-09
7710.0 7.9763e-09
7730.0 8.0529e-09
7750.0 8.4729e-09
7770.0 8.2561e-09
7790.0 8.0601e-09
7810.0 8.539e-09
7830.0 8.8663e-09
7850.0 9.0883e-09
7870.0 9.2673e-09
7890.0 9.3386e-09
7910.0 9.2699e-09
7930.0 9.3338e-09
7950.0 9.7551e-09
7970.0 9.7528e-09
7990.0 9.0842e-09
8010.0 8.7147e-09
8030.0 8.8892e-09
8050.0 9.0797e-09
8070.0 8.2137e-09
8090.0 5.3729e-09
8110.0 5.6107e-09
8130.0 8.0126e-09
8150.0 8.6294e-09
8170.0 8.9721e-09
8190.0 9.1667e-09
8210.0 9.0513e-09
8230.0 9.813e-09
8250.0 1.0027e-08
8270.0 9.4821e-09
8290.0 9.1074e-09
8310.0 8.9747e-09
8330.0 9.4649e-09
8350.0 9.9126e-09
8370.0 9.7254e-09
8390.0 9.2743e-09
8410.0 9.2655e-09
8430.0 8.6811e-09
8450.0 8.8717e-09
8470.0 9.6945e-09
8490.0 9.7239e-09
8510.0 9.0168e-09
8530.0 8.4504e-09
8550.0 8.1001e-09
8570.0 7.6342e-09
8590.0 7.8524e-09
8610.0 8.3324e-09
8630.0 8.5555e-09
8650.0 8.7036e-09
8670.0 8.4646e-09
8690.0 8.2674e-09
8710.0 7.6892e-09
8730.0 7.4133e-09
8750.0 7.7163e-09
8770.0 7.8372e-09
8790.0 7.8127e-09
8810.0 7.7755e-09
8830.0 7.9414e-09
8850.0 8.3388e-09
8870.0 7.7867e-09
8890.0 7.3444e-09
8910.0 7.2361e-09
8930.0 6.8014e-09
8950.0 6.5526e-09
8970.0 6.5498e-09
8990.0 6.2698e-09
9010.0 5.886e-09
9030.0 5.7523e-09
9050.0 5.7044e-09
9070.0 5.6617e-09
9090.0 5.6187e-09
9110.0 5.5756e-09
9130.0 5.5321e-09
9150.0 5.4885e-09
9170.0 5.4447e-09
9190.0 5.4009e-09
9210.0 5.3569e-09
9230.0 5.313e-09
9250.0 5.2691e-09
9270.0 5.2252e-09
9290.0 5.1813e-09
9310.0 5.1376e-09
9330.0 5.094e-09
9350.0 5.0506e-09
9370.0 5.0073e-09
9390.0 4.9643e-09
9410.0 4.9214e-09
9430.0 4.8788e-09
9450.0 4.8365e-09
9470.0 4.7944e-09
9490.0 4.7527e-09
9510.0 4.7112e-09
9530.0 4.6701e-09
9550.0 4.6293e-09
9570.0 4.5888e-09
9590.0 4.5487e-09
9610.0 4.509e-09
9630.0 4.4697e-09
9650.0 4.4307e-09
9670.0 4.3921e-09
9690.0 4.3539e-09
9710.0 4.3161e-09
9730.0 4.2788e-09
9750.0 4.2418e-09
9770.0 4.2052e-09
9790.0 4.1691e-09
9810.0 4.1334e-09
9830.0 4.0981e-09
9850.0 4.0632e-09
9870.0 4.0287e-09
9890.0 3.9947e-09
9910.0 3.961e-09
9930.0 3.9278e-09
9950.0 3.895e-09
9970.0 3.8626e-09
9990.0 3.8306e-09
10010.0 3.7991e-09
10030.0 3.7679e-09
10050.0 3.7371e-09
10070.0 3.7067e-09
10090.0 3.6768e-09
10110.0 3.6472e-09
10130.0 3.618e-09
10150.0 3.5891e-09
10170.0 3.5607e-09
10190.0 3.5326e-09
10210.0 3.5049e-09
10230.0 3.4775e-09
10250.0 3.4505e-09
10270.0 3.4239e-09
10290.0 3.3976e-09
10310.0 3.3716e-09
10330.0 3.346e-09
10350.0 3.3207e-09
10370.0 3.2957e-09
10390.0 3.2707e-09
10410.0 3.2413e-09
10430.0 3.2106e-09
10450.0 3.1925e-09
10470.0 3.1716e-09
10490.0 3.1503e-09
10510.0 3.1288e-09
10530.0 3.1063e-09
10550.0 3.0842e-09
10570.0 3.0627e-09
10590.0 3.0409e-09
10610.0 3.0192e-09
10630.0 2.9982e-09
10650.0 2.9775e-09
10670.0 2.9564e-09
10690.0 2.9358e-09
10710.0 2.9158e-09
10730.0 2.8956e-09
10750.0 2.8753e-09
10770.0 2.8561e-09
10790.0 2.8368e-09
10810.0 2.8174e-09
10830.0 2.7984e-09
10850.0 2.7801e-09
10870.0 2.7611e-09
10890.0 2.7424e-09
10910.0 2.7242e-09
10930.0 2.706e-09
10950.0 2.6874e-09
10970.0 2.6689e-09
10990.0 2.6508e-09
11010.0 2.6318e-09
11030.0 2.6126e-09
11050.0 2.5937e-09
11070.0 2.5743e-09
11090.0 2.5538e-09
11110.0 2.5339e-09
11130.0 2.514e-09
11150.0 2.4934e-09
11170.0 2.4725e-09
11190.0 2.4523e-09
11210.0 2.4315e-09
11230.0 2.4104e-09
11250.0 2.3899e-09
11270.0 2.3699e-09
11290.0 2.3496e-09
11310.0 2.3299e-09
11330.0 2.3118e-09
11350.0 2.294e-09
11370.0 2.2767e-09
11390.0 2.2606e-09
11410.0 2.2456e-09
11430.0 2.2306e-09
11450.0 2.2164e-09
11470.0 2.2032e-09
11490.0 2.1901e-09
11510.0 2.177e-09
11530.0 2.1644e-09
11550.0 2.152e-09
11570.0 2.1391e-09
11590.0 2.1262e-09
11610.0 2.1134e-09
11630.0 2.1e-09
11650.0 2.086e-09
11670.0 2.0722e-09
11690.0 2.0582e-09
11710.0 2.0435e-09
11730.0 2.0287e-09
11750.0 2.0144e-09
11770.0 1.9994e-09
11790.0 1.9841e-09
11810.0 1.9694e-09
11830.0 1.9548e-09
11850.0 1.9397e-09
11870.0 1.9253e-09
11890.0 1.9117e-09
11910.0 1.8981e-09
11930.0 1.8849e-09
11950.0 1.8727e-09
11970.0 1.861e-09
11990.0 1.8495e-09
12010.0 1.839e-09
12030.0 1.8294e-09
12050.0 1.8203e-09
12070.0 1.8117e-09
12090.0 1.8042e-09
12110.0 1.7972e-09
12130.0 1.7907e-09
12150.0 1.7848e-09
12170.0 1.7795e-09
12190.0 1.7742e-09
12210.0 1.7692e-09
12230.0 1.7644e-09
12250.0 1.7595e-09
12270.0 1.7543e-09
12290.0 1.7489e-09
12310.0 1.7432e-09
12330.0 1.7367e-09
12350.0 1.7295e-09
12370.0 1.7218e-09
12390.0 1.7133e-09
12410.0 1.7035e-09
12430.0 1.6933e-09
12450.0 1.6825e-09
12470.0 1.6706e-09
12490.0 1.6579e-09
12510.0 1.6452e-09
12530.0 1.6316e-09
12550.0 1.6172e-09
12570.0 1.6028e-09
12590.0 1.5883e-09
12610.0 1.5729e-09
12630.0 1.5575e-09
12650.0 1.5429e-09
12670.0 1.5279e-09
12690.0 1.5128e-09
12710.0 1.4984e-09
12730.0 1.4845e-09
12750.0 1.4703e-09
12770.0 1.4569e-09
12790.0 1.4444e-09
12810.0 1.4323e-09
12830.0 1.4205e-09
12850.0 1.4099e-09
12870.0 1.4e-09
12890.0 1.3906e-09
12910.0 1.3821e-09
12930.0 1.3746e-09
12950.0 1.3677e-09
12970.0 1.3615e-09
12990.0 1.3564e-09
13010.0 1.3522e-09
13030.0 1.3487e-09
13050.0 1.346e-09
13070.0 1.3441e-09
13090.0 1.3427e-09
13110.0 1.3418e-09
13130.0 1.3413e-09
13150.0 1.341e-09
13170.0 1.3407e-09
13190.0 1.3403e-09
13210.0 1.3395e-09
13230.0 1.3383e-09
13250.0 1.3365e-09
13270.0 1.3341e-09
13290.0 1.3309e-09
13310.0 1.3268e-09
13330.0 1.3219e-09
13350.0 1.3164e-09
13370.0 1.3098e-09
13390.0 1.3024e-09
13410.0 1.2946e-09
13430.0 1.286e-09
13450.0 1.2766e-09
13470.0 1.2667e-09
13490.0 1.2567e-09
13510.0 1.2455e-09
13530.0 1.2339e-09
13550.0 1.2225e-09
13570.0 1.2106e-09
13590.0 1.198e-09
13610.0 1.1856e-09
13630.0 1.1734e-09
13650.0 1.1605e-09
13670.0 1.1475e-09
13690.0 1.135e-09
13710.0 1.1223e-09
13730.0 1.109e-09
13750.0 1.0966e-09
13770.0 1.0844e-09
13790.0 1.072e-09
13810.0 1.0599e-09
13830.0 1.0487e-09
13850.0 1.0373e-09
13870.0 1.0261e-09
13890.0 1.0157e-09
13910.0 1.0057e-09
13930.0 9.9561e-10
13950.0 9.8602e-10
13970.0 9.7728e-10
13990.0 9.6861e-10
14010.0 9.6016e-10
14030.0 9.5234e-10
14050.0 9.4492e-10
14070.0 9.3743e-10
14090.0 9.305e-10
14110.0 9.2409e-10
14130.0 9.1783e-10
14150.0 9.1176e-10
14170.0 9.0626e-10
14190.0 9.0102e-10
14210.0 8.9583e-10
14230.0 8.9094e-10
14250.0 8.8638e-10
14270.0 8.8179e-10
14290.0 8.7727e-10
14310.0 8.7308e-10
14330.0 8.6897e-10
14350.0 8.648e-10
14370.0 8.608e-10
14390.0 8.5699e-10
14410.0 8.5309e-10
14430.0 8.4922e-10
14450.0 8.4554e-10
14470.0 8.4188e-10
14490.0 8.3808e-10
14510.0 8.3444e-10
14530.0 8.3092e-10
14550.0 8.2728e-10
14570.0 8.2361e-10
14590.0 8.2007e-10
14610.0 8.1644e-10
14630.0 8.1264e-10
14650.0 8.0893e-10
14670.0 8.0524e-10
14690.0 8.0138e-10
14710.0 7.9742e-10
14730.0 7.9363e-10
14750.0 7.897e-10
14770.0 7.8561e-10
14790.0 7.8155e-10
14810.0 7.7752e-10
14830.0 7.7315e-10
14850.0 7.6877e-10
14870.0 7.645e-10
14890.0 7.6012e-10
14910.0 7.5563e-10
14930.0 7.5138e-10
14950.0 7.4736e-10
14970.0 7.434e-10
14990.0 7.398e-10
15010.0 7.3666e-10
15030.0 7.338e-10
15050.0 7.3116e-10
15070.0 7.2895e-10
15090.0 7.2693e-10
15110.0 7.2497e-10
15130.0 7.2312e-10
15150.0 7.2138e-10
15170.0 7.196e-10
15190.0 7.1779e-10
15210.0 7.1606e-10
15230.0 7.1433e-10
15250.0 7.1253e-10
15270.0 7.1074e-10
15290.0 7.0905e-10
15310.0 7.0729e-10
15330.0 7.0551e-10
15350.0 7.0378e-10
15370.0 7.0207e-10
15390.0 7.0025e-10
15410.0 6.9849e-10
15430.0 6.9677e-10
15450.0 6.9501e-10
15470.0 6.9321e-10
15490.0 6.9149e-10
15510.0 6.8977e-10
15530.0 6.8798e-10
15550.0 6.8622e-10
15570.0 6.8452e-10
15590.0 6.8274e-10
15610.0 6.8093e-10
15630.0 6.7921e-10
15650.0 6.7748e-10
15670.0 6.7569e-10
15690.0 6.7394e-10
15710.0 6.7224e-10
15730.0 6.7046e-10
15750.0 6.6868e-10
15770.0 6.6696e-10
15790.0 6.6522e-10
15810.0 6.634e-10
15830.0 6.6165e-10
15850.0 6.5994e-10
15870.0 6.5818e-10
15890.0 6.564e-10
15910.0 6.547e-10
15930.0 6.5295e-10
15950.0 6.5114e-10
15970.0 6.494e-10
15990.0 6.4768e-10
16010.0 6.459e-10
16030.0 6.441e-10
16050.0 6.424e-10
16070.0 6.4066e-10
16090.0 6.3888e-10
16110.0 6.3714e-10
16130.0 6.3544e-10
16150.0 6.3362e-10
16170.0 6.3185e-10
16190.0 6.3013e-10
16210.0 6.2838e-10
16230.0 6.2659e-10
16250.0 6.2486e-10
16270.0 6.2315e-10
16290.0 6.2136e-10
16310.0 6.196e-10
16330.0 6.1788e-10
16350.0 6.1613e-10
16370.0 6.143e-10
16390.0 6.1258e-10
16410.0 6.1086e-10
16430.0 6.0908e-10
16450.0 6.0732e-10
16470.0 6.0562e-10
16490.0 6.0385e-10
16510.0 6.0206e-10
16530.0 6.0033e-10
16550.0 5.986e-10
16570.0 5.968e-10
16590.0 5.9503e-10
16610.0 5.9333e-10
16630.0 5.9157e-10
16650.0 5.8979e-10
16670.0 5.8807e-10
16690.0 5.8635e-10
16710.0 5.8453e-10
16730.0 5.8278e-10
16750.0 5.8106e-10
16770.0 5.793e-10
16790.0 5.775e-10
16810.0 5.7579e-10
16830.0 5.7406e-10
16850.0 5.7227e-10
16870.0 5.7052e-10
16890.0 5.6882e-10
16910.0 5.6703e-10
16930.0 5.6523e-10
16950.0 5.6352e-10
16970.0 5.6178e-10
16990.0 5.5999e-10
17010.0 5.5824e-10
17030.0 5.5655e-10
17050.0 5.5476e-10
17070.0 5.5299e-10
17090.0 5.5127e-10
17110.0 5.4953e-10
17130.0 5.4771e-10
17150.0 5.4596e-10
17170.0 5.4426e-10
17190.0 5.4248e-10
17210.0 5.4071e-10
17230.0 5.3901e-10
17250.0 5.3726e-10
17270.0 5.3545e-10
17290.0 5.3371e-10
17310.0 5.3199e-10
17330.0 5.3021e-10
17350.0 5.2842e-10
17370.0 5.2672e-10
17390.0 5.2498e-10
17410.0 5.2319e-10
17430.0 5.2146e-10
17450.0 5.1975e-10
17470.0 5.1794e-10
17490.0 5.1616e-10
17510.0 5.1445e-10
17530.0 5.127e-10
17550.0 5.109e-10
17570.0 5.0918e-10
17590.0 5.0747e-10
17610.0 5.0568e-10
17630.0 5.0391e-10
17650.0 5.022e-10
17670.0 5.0045e-10
17690.0 4.9862e-10
17710.0 4.969e-10
17730.0 4.9518e-10
17750.0 4.934e-10
17770.0 4.9164e-10
17790.0 4.8995e-10
17810.0 4.8817e-10
17830.0 4.8638e-10
17850.0 4.8465e-10
17870.0 4.8292e-10
17890.0 4.8112e-10
17910.0 4.7935e-10
17930.0 4.7765e-10
17950.0 4.7589e-10
17970.0 4.7411e-10
17990.0 4.724e-10
18010.0 4.7067e-10
18030.0 4.6885e-10
18050.0 4.671e-10
18070.0 4.6538e-10
18090.0 4.6362e-10
18110.0 4.6182e-10
18130.0 4.6011e-10
18150.0 4.5838e-10
18170.0 4.566e-10
18190.0 4.5485e-10
18210.0 4.5314e-10
18230.0 4.5135e-10
18250.0 4.4955e-10
18270.0 4.4784e-10
18290.0 4.461e-10
18310.0 4.4431e-10
18330.0 4.4257e-10
18350.0 4.4087e-10
18370.0 4.3908e-10
18390.0 4.3731e-10
18410.0 4.3559e-10
18430.0 4.3385e-10
18450.0 4.3203e-10
18470.0 4.3029e-10
18490.0 4.2858e-10
18510.0 4.2681e-10
18530.0 4.2504e-10
18550.0 4.2334e-10
18570.0 4.2158e-10
18590.0 4.1977e-10
18610.0 4.1804e-10
18630.0 4.1631e-10
18650.0 4.1453e-10
18670.0 4.1274e-10
18690.0 4.1105e-10
18710.0 4.093e-10
18730.0 4.0751e-10
18750.0 4.0578e-10
18770.0 4.0408e-10
18790.0 4.0226e-10
18810.0 4.0049e-10
18830.0 3.9878e-10
18850.0 3.9702e-10
18870.0 3.9523e-10
18890.0 3.9351e-10
18910.0 3.9179e-10
18930.0 3.9e-10
18950.0 3.8824e-10
18970.0 3.8653e-10
18990.0 3.8477e-10
19010.0 3.8294e-10
19030.0 3.8123e-10
19050.0 3.795e-10
19070.0 3.7772e-10
19090.0 3.7597e-10
19110.0 3.7427e-10
19130.0 3.7249e-10
19150.0 3.707e-10
19170.0 3.6898e-10
19190.0 3.6724e-10
19210.0 3.6544e-10
19230.0 3.6368e-10
19250.0 3.6198e-10
19270.0 3.6021e-10
19290.0 3.5844e-10
19310.0 3.5672e-10
19330.0 3.5499e-10
19350.0 3.5317e-10
19370.0 3.5142e-10
19390.0 3.4971e-10
19410.0 3.4794e-10
19430.0 3.4615e-10
19450.0 3.4444e-10
19470.0 3.4271e-10
19490.0 3.4092e-10
19510.0 3.3917e-10
19530.0 3.3746e-10
19550.0 3.3567e-10
19570.0 3.3387e-10
19590.0 3.3217e-10
19610.0 3.3042e-10
19630.0 3.2864e-10
19650.0 3.269e-10
19670.0 3.252e-10
19690.0 3.2341e-10
19710.0 3.2163e-10
19730.0 3.1991e-10
19750.0 3.1817e-10
19770.0 3.1635e-10
19790.0 3.1462e-10
19810.0 3.1291e-10
19830.0 3.1113e-10
19850.0 3.0937e-10
19870.0 3.0769e-10
19890.0 3.0596e-10
19910.0 3.0422e-10
19930.0 3.0261e-10
19950.0 3.0109e-10
19970.0 2.9964e-10
19990.0 2.9835e-10
20010.0 2.9728e-10
20030.0 2.9635e-10
20050.0 2.9558e-10
20070.0 2.9497e-10
20090.0 2.9448e-10
20110.0 2.9405e-10
20130.0 2.9369e-10
20150.0 2.9336e-10
20170.0 2.9304e-10
20190.0 2.9271e-10
20210.0 2.9238e-10
20230.0 2.9204e-10
20250.0 2.9167e-10
20270.0 2.9129e-10
20290.0 2.909e-10
20310.0 2.9047e-10
20330.0 2.9e-10
20350.0 2.8954e-10
20370.0 2.8905e-10
20390.0 2.8853e-10
20410.0 2.8799e-10
20430.0 2.8745e-10
20450.0 2.8687e-10
20470.0 2.8628e-10
20490.0 2.857e-10
20510.0 2.8511e-10
20530.0 2.8451e-10
20550.0 2.8393e-10
20570.0 2.8337e-10
20590.0 2.8281e-10
20610.0 2.8226e-10
20630.0 2.8174e-10
20650.0 2.8122e-10
20670.0 2.8069e-10
20690.0 2.8018e-10
20710.0 2.7968e-10
20730.0 2.7916e-10
20750.0 2.7861e-10
20770.0 2.7807e-10
20790.0 2.7748e-10
20810.0 2.7684e-10
20830.0 2.7617e-10
20850.0 2.7547e-10
20870.0 2.7468e-10
20890.0 2.7384e-10
20910.0 2.7299e-10
20930.0 2.7208e-10
20950.0 2.711e-10
20970.0 2.7012e-10
20990.0 2.6913e-10
21010.0 2.6806e-10
21030.0 2.6698e-10
21050.0 2.6594e-10
21070.0 2.6487e-10
21090.0 2.6377e-10
21110.0 2.6273e-10
21130.0 2.6171e-10
21150.0 2.6066e-10
21170.0 2.5964e-10
21190.0 2.5866e-10
21210.0 2.5765e-10
21230.0 2.5662e-10
21250.0 2.5563e-10
21270.0 2.5463e-10
21290.0 2.5359e-10
21310.0 2.5255e-10
21330.0 2.5153e-10
21350.0 2.5045e-10
21370.0 2.4933e-10
21390.0 2.4822e-10
21410.0 2.4709e-10
21430.0 2.4586e-10
21450.0 2.4464e-10
21470.0 2.4343e-10
21490.0 2.4216e-10
21510.0 2.4084e-10
21530.0 2.3956e-10
21550.0 2.3825e-10
21570.0 2.3687e-10
21590.0 2.3551e-10
21610.0 2.3418e-10
21630.0 2.328e-10
21650.0 2.3137e-10
21670.0 2.3004e-10
21690.0 2.2869e-10
21710.0 2.273e-10
21730.0 2.2595e-10
21750.0 2.2464e-10
21770.0 2.2325e-10
21790.0 2.2188e-10
21810.0 2.2056e-10
21830.0 2.1923e-10
21850.0 2.1785e-10
21870.0 2.1651e-10
21890.0 2.1522e-10
21910.0 2.1387e-10
21930.0 2.1253e-10
21950.0 2.1124e-10
21970.0 2.0995e-10
21990.0 2.086e-10
22010.0 2.0735e-10
22030.0 2.0613e-10
22050.0 2.0491e-10
22070.0 2.0372e-10
22090.0 2.0263e-10
22110.0 2.0154e-10
22130.0 2.0048e-10
22150.0 1.995e-10
22170.0 1.9857e-10
22190.0 1.9766e-10
22210.0 1.9679e-10
22230.0 1.9601e-10
22250.0 1.9525e-10
22270.0 1.9451e-10
22290.0 1.9382e-10
22310.0 1.9317e-10
22330.0 1.9251e-10
22350.0 1.9187e-10
22370.0 1.9126e-10
22390.0 1.9065e-10
22410.0 1.9002e-10
22430.0 1.8942e-10
22450.0 1.8882e-10
22470.0 1.8819e-10
22490.0 1.8756e-10
22510.0 1.8694e-10
22530.0 1.863e-10
22550.0 1.8563e-10
22570.0 1.85e-10
22590.0 1.8436e-10
22610.0 1.837e-10
