#lamb flux
1010.0 1.953e-06
1030.0 2.1731e-06
1050.0 2.4712e-06
1070.0 2.9169e-06
1090.0 3.5017e-06
1110.0 4.1291e-06
1130.0 4.785e-06
1150.0 5.487e-06
1170.0 6.2146e-06
1190.0 6.8948e-06
1210.0 7.5514e-06
1230.0 8.1758e-06
1250.0 8.7537e-06
1270.0 9.2236e-06
1290.0 9.6176e-06
1310.0 9.8918e-06
1330.0 1.0021e-05
1350.0 1.0038e-05
1370.0 9.9588e-06
1390.0 9.7681e-06
1410.0 9.4836e-06
1430.0 9.1524e-06
1450.0 8.7724e-06
1470.0 8.3512e-06
1490.0 7.9204e-06
1510.0 7.5027e-06
1530.0 7.0805e-06
1550.0 6.6759e-06
1570.0 6.3044e-06
1590.0 5.9638e-06
1610.0 5.6659e-06
1630.0 5.4781e-06
1650.0 5.343e-06
1670.0 5.2564e-06
1690.0 5.2248e-06
1710.0 5.2579e-06
1730.0 5.3534e-06
1750.0 5.5053e-06
1770.0 5.7297e-06
1790.0 6.029e-06
1810.0 6.3996e-06
1830.0 6.8468e-06
1850.0 7.3865e-06
1870.0 8.0083e-06
1890.0 8.7118e-06
1910.0 9.5073e-06
1930.0 1.0396e-05
1950.0 1.1361e-05
1970.0 1.2403e-05
1990.0 1.353e-05
2010.0 1.4719e-05
2030.0 1.5953e-05
2050.0 1.7241e-05
2070.0 1.8568e-05
2090.0 1.9894e-05
2110.0 2.122e-05
2130.0 2.2544e-05
2150.0 2.3835e-05
2170.0 2.5071e-05
2190.0 2.6271e-05
2210.0 2.7416e-05
2230.0 2.8479e-05
2250.0 2.9472e-05
2270.0 3.0415e-05
2290.0 3.1277e-05
2310.0 3.2056e-05
2330.0 3.2794e-05
2350.0 3.349e-05
2370.0 3.4136e-05
2390.0 3.4775e-05
2410.0 3.5457e-05
2430.0 3.6177e-05
2450.0 3.6974e-05
2470.0 3.7927e-05
2490.0 3.908e-05
2510.0 4.038e-05
2530.0 4.1952e-05
2550.0 4.3927e-05
2570.0 4.6355e-05
2590.0 4.9369e-05
2610.0 5.3494e-05
2630.0 5.8793e-05
2650.0 6.5074e-05
2670.0 7.2523e-05
2690.0 8.1048e-05
2710.0 8.9773e-05
2730.0 9.8332e-05
2750.0 0.00010702
2770.0 0.00011538
2790.0 0.00012332
2810.0 0.00013143
2830.0 0.00014024
2850.0 0.00014918
2870.0 0.00015865
2890.0 0.000169
2910.0 0.0001799
2930.0 0.00019092
2950.0 0.0002027
2970.0 0.00021511
2990.0 0.00022764
3010.0 0.00024048
3030.0 0.00025409
3050.0 0.00026805
3070.0 0.00028166
3090.0 0.00029552
3110.0 0.00030905
3130.0 0.00032132
3150.0 0.00033204
3170.0 0.00034084
3190.0 0.00034721
3210.0 0.00035184
3230.0 0.00035509
3250.0 0.00035691
3270.0 0.00035824
3290.0 0.00035985
3310.0 0.00036231
3330.0 0.0003657
3350.0 0.00036974
3370.0 0.00037413
3390.0 0.00037557
3410.0 0.00037794
3430.0 0.00038935
3450.0 0.00039742
3470.0 0.00039898
3490.0 0.00041416
3510.0 0.00047505
3530.0 0.00058488
3550.0 0.00066248
3570.0 0.00072443
3590.0 0.0008154
3610.0 0.00081262
3630.0 0.0007489
3650.0 0.00078648
3670.0 0.00092804
3690.0 0.0010413
3710.0 0.0010793
3730.0 0.0010881
3750.0 0.0011622
3770.0 0.0011686
3790.0 0.0011133
3810.0 0.0010495
3830.0 0.00099489
3850.0 0.0010015
3870.0 0.0010459
3890.0 0.0010778
3910.0 0.0010937
3930.0 0.0010944
3950.0 0.0011712
3970.0 0.0012618
3990.0 0.0012268
4010.0 0.0010945
4030.0 0.00098612
4050.0 0.00097784
4070.0 0.0010221
4090.0 0.0010131
4110.0 0.00097497
4130.0 0.0009695
4150.0 0.0010147
4170.0 0.0011214
4190.0 0.0011782
4210.0 0.00111
4230.0 0.0010211
4250.0 0.0009664
4270.0 0.00093213
4290.0 0.00093827
4310.0 0.00096337
4330.0 0.00091666
4350.0 0.00081239
4370.0 0.00072468
4390.0 0.00066366
4410.0 0.00063014
4430.0 0.00064816
4450.0 0.00071322
4470.0 0.00078332
4490.0 0.00083767
4510.0 0.00092688
4530.0 0.0010894
4550.0 0.0012598
4570.0 0.001364
4590.0 0.0014535
4610.0 0.0015319
4630.0 0.001545
4650.0 0.0014338
4670.0 0.0012482
4690.0 0.0011031
4710.0 0.0010547
4730.0 0.0010077
4750.0 0.00088683
4770.0 0.0007932
4790.0 0.00081733
4810.0 0.00088596
4830.0 0.0008662
4850.0 0.00076976
4870.0 0.0007875
4890.0 0.00080771
4910.0 0.00081928
4930.0 0.00080596
4950.0 0.00079085
4970.0 0.00075582
4990.0 0.00069813
5010.0 0.0006572
5030.0 0.0006458
5050.0 0.00064232
5070.0 0.00064127
5090.0 0.00064032
5110.0 0.00063953
5130.0 0.00065256
5150.0 0.00068484
5170.0 0.00074556
5190.0 0.00082559
5210.0 0.00089014
5230.0 0.00092877
5250.0 0.00095043
5270.0 0.00098129
5290.0 0.0010055
5310.0 0.0010004
5330.0 0.00096577
5350.0 0.00093182
5370.0 0.0009331
5390.0 0.00095751
5410.0 0.00097539
5430.0 0.00096751
5450.0 0.00095359
5470.0 0.00093254
5490.0 0.00091114
5510.0 0.00090328
5530.0 0.00090778
5550.0 0.00091732
5570.0 0.00092086
5590.0 0.0008964
5610.0 0.00085152
5630.0 0.00080966
5650.0 0.00077206
5670.0 0.00074585
5690.0 0.00071596
5710.0 0.00069857
5730.0 0.00070181
5750.0 0.0006946
5770.0 0.00068226
5790.0 0.00068865
5810.0 0.00070873
5830.0 0.00072413
5850.0 0.0007285
5870.0 0.00071046
5890.0 0.00068206
5910.0 0.00065681
5930.0 0.00062382
5950.0 0.00059593
5970.0 0.00059923
5990.0 0.0006138
6010.0 0.00061351
6030.0 0.00059248
6050.0 0.00058865
6070.0 0.00060913
6090.0 0.00062999
6110.0 0.00062829
6130.0 0.00059693
6150.0 0.00055585
6170.0 0.0005331
6190.0 0.00052076
6210.0 0.00050987
6230.0 0.00049967
6250.0 0.00049933
6270.0 0.00051353
6290.0 0.00053409
6310.0 0.00055728
6330.0 0.00058171
6350.0 0.00059658
6370.0 0.00059836
6390.0 0.000595
6410.0 0.00059976
6430.0 0.0006073
6450.0 0.00060701
6470.0 0.00060825
6490.0 0.0006118
6510.0 0.00061161
6530.0 0.00060419
6550.0 0.00058885
6570.0 0.0005701
6590.0 0.00055368
6610.0 0.00054085
6630.0 0.0005303
6650.0 0.00051306
6670.0 0.000494
6690.0 0.00047926
6710.0 0.00047081
6730.0 0.0004661
6750.0 0.00046158
6770.0 0.00045545
6790.0 0.00044721
6810.0 0.00043921
6830.0 0.00043665
6850.0 0.0004344
6870.0 0.00043068
6890.0 0.00043005
6910.0 0.00042425
6930.0 0.00041716
6950.0 0.00041617
6970.0 0.00041249
6990.0 0.00040392
7010.0 0.00039732
7030.0 0.00039024
7050.0 0.0003828
7070.0 0.0003737
7090.0 0.00036574
7110.0 0.00037104
7130.0 0.00038158
7150.0 0.00038988
7170.0 0.00039492
7190.0 0.00039427
7210.0 0.00038922
7230.0 0.00038288
7250.0 0.00037892
7270.0 0.00037224
7290.0 0.00036672
7310.0 0.00036367
7330.0 0.00036745
7350.0 0.00036851
7370.0 0.00036732
7390.0 0.00036394
7410.0 0.0003583
7430.0 0.00035465
7450.0 0.00035095
7470.0 0.00034031
7490.0 0.00032892
7510.0 0.00031513
7530.0 0.00030405
7550.0 0.00029815
7570.0 0.00030217
7590.0 0.00030022
7610.0 0.0002969
7630.0 0.00029389
7650.0 0.00029537
7670.0 0.0003015
7690.0 0.00031377
7710.0 0.00032218
7730.0 0.00033419
7750.0 0.00034176
7770.0 0.00034791
7790.0 0.0003485
7810.0 0.00034182
7830.0 0.00034285
7850.0 0.00033966
7870.0 0.00033114
7890.0 0.00031997
7910.0 0.00031044
7930.0 0.00030328
7950.0 0.00029891
7970.0 0.00029903
7990.0 0.00030142
8010.0 0.00030058
8030.0 0.0002974
8050.0 0.00029193
8070.0 0.0002866
8090.0 0.00028073
8110.0 0.00028178
8130.0 0.00028426
8150.0 0.00028474
8170.0 0.00028235
8190.0 0.00027859
8210.0 0.00026765
8230.0 0.00025038
8250.0 0.00023976
8270.0 0.0002336
8290.0 0.00023062
8310.0 0.00023165
8330.0 0.00023688
8350.0 0.00023271
8370.0 0.00022764
8390.0 0.00023078
8410.0 0.00023803
8430.0 0.00025029
8450.0 0.00026153
8470.0 0.0002645
8490.0 0.00026693
8510.0 0.00026551
8530.0 0.00026393
8550.0 0.00026593
8570.0 0.00026623
8590.0 0.00026541
8610.0 0.00027269
8630.0 0.00027473
8650.0 0.00026875
8670.0 0.00026821
8690.0 0.0002692
8710.0 0.00026548
8730.0 0.0002632
8750.0 0.00025515
8770.0 0.00025175
8790.0 0.00024902
8810.0 0.00024654
8830.0 0.00023577
8850.0 0.00021881
8870.0 0.00020568
8890.0 0.00019845
8910.0 0.0001863
8930.0 0.00017345
8950.0 0.00016885
8970.0 0.00016761
8990.0 0.00016779
9010.0 0.00016651
9030.0 0.00016532
9050.0 0.00016422
9070.0 0.00016315
9090.0 0.00016209
9110.0 0.00016103
9130.0 0.00015997
9150.0 0.00015892
9170.0 0.00015786
9190.0 0.00015681
9210.0 0.00015575
9230.0 0.0001547
9250.0 0.00015366
9270.0 0.00015262
9290.0 0.00015158
9310.0 0.00015054
9330.0 0.00014951
9350.0 0.00014848
9370.0 0.00014745
9390.0 0.00014643
9410.0 0.00014541
9430.0 0.00014439
9450.0 0.00014336
9470.0 0.00014236
9490.0 0.00014138
9510.0 0.00014038
9530.0 0.00013939
9550.0 0.0001384
9570.0 0.00013742
9590.0 0.00013644
9610.0 0.00013547
9630.0 0.0001345
9650.0 0.00013354
9670.0 0.00013259
9690.0 0.00013164
9710.0 0.00013069
9730.0 0.00012975
9750.0 0.00012882
9770.0 0.00012789
9790.0 0.00012697
9810.0 0.00012605
9830.0 0.00012512
9850.0 0.00012405
9870.0 0.00012318
9890.0 0.00012235
9910.0 0.0001215
9930.0 0.0001206
9950.0 0.00011975
9970.0 0.0001189
9990.0 0.00011802
10010.0 0.00011706
10030.0 0.00011617
10050.0 0.00011538
10070.0 0.00011458
10090.0 0.00011379
10110.0 0.00011294
10130.0 0.00011201
10150.0 0.00011121
10170.0 0.00011044
10190.0 0.00010963
10210.0 0.00010885
10230.0 0.00010807
10250.0 0.00010727
10270.0 0.00010647
10290.0 0.0001057
10310.0 0.00010491
10330.0 0.0001041
10350.0 0.00010333
10370.0 0.00010257
10390.0 0.00010178
10410.0 0.00010101
10430.0 0.00010026
10450.0 9.9503e-05
10470.0 9.8733e-05
10490.0 9.799e-05
10510.0 9.7253e-05
10530.0 9.6482e-05
10550.0 9.5732e-05
10570.0 9.5009e-05
10590.0 9.4269e-05
10610.0 9.3521e-05
10630.0 9.2804e-05
10650.0 9.2086e-05
10670.0 9.134e-05
10690.0 9.0614e-05
10710.0 8.9906e-05
10730.0 8.9181e-05
10750.0 8.8437e-05
10770.0 8.7739e-05
10790.0 8.7035e-05
10810.0 8.631e-05
10830.0 8.5602e-05
10850.0 8.4918e-05
10870.0 8.4197e-05
10890.0 8.3483e-05
10910.0 8.2802e-05
10930.0 8.2126e-05
10950.0 8.1441e-05
10970.0 8.0791e-05
10990.0 8.0183e-05
11010.0 7.9506e-05
11030.0 7.8972e-05
11050.0 7.8472e-05
11070.0 7.7977e-05
11090.0 7.7459e-05
11110.0 7.6961e-05
11130.0 7.6464e-05
11150.0 7.5943e-05
11170.0 7.5412e-05
11190.0 7.4898e-05
11210.0 7.4369e-05
11230.0 7.3827e-05
11250.0 7.3304e-05
11270.0 7.2797e-05
11290.0 7.2281e-05
11310.0 7.1779e-05
11330.0 7.132e-05
11350.0 7.0866e-05
11370.0 7.042e-05
11390.0 7.0004e-05
11410.0 6.9609e-05
11430.0 6.9205e-05
11450.0 6.8817e-05
11470.0 6.8445e-05
11490.0 6.8067e-05
11510.0 6.7674e-05
11530.0 6.729e-05
11550.0 6.69e-05
11570.0 6.6481e-05
11590.0 6.6051e-05
11610.0 6.5619e-05
11630.0 6.5156e-05
11650.0 6.4664e-05
11670.0 6.4182e-05
11690.0 6.3691e-05
11710.0 6.3175e-05
11730.0 6.2662e-05
11750.0 6.217e-05
11770.0 6.1664e-05
11790.0 6.1159e-05
11810.0 6.0682e-05
11830.0 6.0218e-05
11850.0 5.9744e-05
11870.0 5.9301e-05
11890.0 5.8889e-05
11910.0 5.8481e-05
11930.0 5.8087e-05
11950.0 5.7728e-05
11970.0 5.7384e-05
11990.0 5.7048e-05
12010.0 5.6743e-05
12030.0 5.6469e-05
12050.0 5.6212e-05
12070.0 5.5978e-05
12090.0 5.5788e-05
12110.0 5.5623e-05
12130.0 5.5486e-05
12150.0 5.5386e-05
12170.0 5.532e-05
12190.0 5.5283e-05
12210.0 5.5281e-05
12230.0 5.5312e-05
12250.0 5.5373e-05
12270.0 5.5465e-05
12290.0 5.558e-05
12310.0 5.5714e-05
12330.0 5.5872e-05
12350.0 5.6043e-05
12370.0 5.6218e-05
12390.0 5.6398e-05
12410.0 5.6585e-05
12430.0 5.6754e-05
12450.0 5.6907e-05
12470.0 5.7045e-05
12490.0 5.7155e-05
12510.0 5.7231e-05
12530.0 5.7273e-05
12550.0 5.7272e-05
12570.0 5.7226e-05
12590.0 5.7134e-05
12610.0 5.6987e-05
12630.0 5.6785e-05
12650.0 5.6547e-05
12670.0 5.6255e-05
12690.0 5.591e-05
12710.0 5.5536e-05
12730.0 5.5133e-05
12750.0 5.4674e-05
12770.0 5.4199e-05
12790.0 5.3721e-05
12810.0 5.3218e-05
12830.0 5.2693e-05
12850.0 5.2189e-05
12870.0 5.1689e-05
12890.0 5.1172e-05
12910.0 5.067e-05
12930.0 5.0192e-05
12950.0 4.9703e-05
12970.0 4.9213e-05
12990.0 4.8759e-05
13010.0 4.8312e-05
13030.0 4.7861e-05
13050.0 4.7429e-05
13070.0 4.7026e-05
13090.0 4.6618e-05
13110.0 4.6222e-05
13130.0 4.5856e-05
13150.0 4.5507e-05
13170.0 4.5159e-05
13190.0 4.4844e-05
13210.0 4.4559e-05
13230.0 4.4282e-05
13250.0 4.4022e-05
13270.0 4.379e-05
13290.0 4.3567e-05
13310.0 4.3348e-05
13330.0 4.3144e-05
13350.0 4.295e-05
13370.0 4.2751e-05
13390.0 4.2549e-05
13410.0 4.2357e-05
13430.0 4.2157e-05
13450.0 4.1944e-05
13470.0 4.173e-05
13490.0 4.1514e-05
13510.0 4.1276e-05
13530.0 4.1032e-05
13550.0 4.0791e-05
13570.0 4.0539e-05
13590.0 4.0273e-05
13610.0 4.0009e-05
13630.0 3.9748e-05
13650.0 3.947e-05
13670.0 3.919e-05
13690.0 3.8917e-05
13710.0 3.8637e-05
13730.0 3.8339e-05
13750.0 3.8056e-05
13770.0 3.7773e-05
13790.0 3.7478e-05
13810.0 3.718e-05
13830.0 3.6892e-05
13850.0 3.659e-05
13870.0 3.6276e-05
13890.0 3.5967e-05
13910.0 3.5656e-05
13930.0 3.5324e-05
13950.0 3.4987e-05
13970.0 3.4662e-05
13990.0 3.4319e-05
14010.0 3.3964e-05
14030.0 3.3616e-05
14050.0 3.3267e-05
14070.0 3.2895e-05
14090.0 3.2532e-05
14110.0 3.2181e-05
14130.0 3.1825e-05
14150.0 3.1468e-05
14170.0 3.1136e-05
14190.0 3.0813e-05
14210.0 3.0491e-05
14230.0 3.0187e-05
14250.0 2.9904e-05
14270.0 2.9621e-05
14290.0 2.9346e-05
14310.0 2.9095e-05
14330.0 2.885e-05
14350.0 2.8606e-05
14370.0 2.8372e-05
14390.0 2.8152e-05
14410.0 2.7927e-05
14430.0 2.7705e-05
14450.0 2.7495e-05
14470.0 2.729e-05
14490.0 2.708e-05
14510.0 2.6885e-05
14530.0 2.6701e-05
14550.0 2.6519e-05
14570.0 2.6343e-05
14590.0 2.6181e-05
14610.0 2.6024e-05
14630.0 2.5867e-05
14650.0 2.5723e-05
14670.0 2.5586e-05
14690.0 2.5452e-05
14710.0 2.5322e-05
14730.0 2.5205e-05
14750.0 2.5093e-05
14770.0 2.4986e-05
14790.0 2.489e-05
14810.0 2.4806e-05
14830.0 2.4728e-05
14850.0 2.4664e-05
14870.0 2.4614e-05
14890.0 2.4577e-05
14910.0 2.4551e-05
14930.0 2.4536e-05
14950.0 2.4528e-05
14970.0 2.4523e-05
14990.0 2.4518e-05
15010.0 2.451e-05
15030.0 2.4495e-05
15050.0 2.4472e-05
15070.0 2.4444e-05
15090.0 2.4411e-05
15110.0 2.4373e-05
15130.0 2.4333e-05
15150.0 2.4293e-05
15170.0 2.425e-05
15190.0 2.4207e-05
15210.0 2.4164e-05
15230.0 2.4122e-05
15250.0 2.4078e-05
15270.0 2.4034e-05
15290.0 2.3992e-05
15310.0 2.3949e-05
15330.0 2.3905e-05
15350.0 2.3863e-05
15370.0 2.382e-05
15390.0 2.3776e-05
15410.0 2.3732e-05
15430.0 2.369e-05
15450.0 2.3646e-05
15470.0 2.3602e-05
15490.0 2.356e-05
15510.0 2.3517e-05
15530.0 2.3474e-05
15550.0 2.3431e-05
15570.0 2.3389e-05
15590.0 2.3345e-05
15610.0 2.3302e-05
15630.0 2.326e-05
15650.0 2.3217e-05
15670.0 2.3174e-05
15690.0 2.3132e-05
15710.0 2.3091e-05
15730.0 2.3048e-05
15750.0 2.3006e-05
15770.0 2.2964e-05
15790.0 2.2923e-05
15810.0 2.288e-05
15830.0 2.2839e-05
15850.0 2.2798e-05
15870.0 2.2757e-05
15890.0 2.2716e-05
15910.0 2.2676e-05
15930.0 2.2635e-05
15950.0 2.2594e-05
15970.0 2.2554e-05
15990.0 2.2514e-05
16010.0 2.2474e-05
16030.0 2.2433e-05
16050.0 2.2395e-05
16070.0 2.2356e-05
16090.0 2.2316e-05
16110.0 2.2277e-05
16130.0 2.224e-05
16150.0 2.22e-05
16170.0 2.2161e-05
16190.0 2.2124e-05
16210.0 2.2086e-05
16230.0 2.2047e-05
16250.0 2.201e-05
16270.0 2.1974e-05
16290.0 2.1936e-05
16310.0 2.1899e-05
16330.0 2.1863e-05
16350.0 2.1827e-05
16370.0 2.1789e-05
16390.0 2.1754e-05
16410.0 2.1718e-05
16430.0 2.1682e-05
16450.0 2.1647e-05
16470.0 2.1613e-05
16490.0 2.1577e-05
16510.0 2.1542e-05
16530.0 2.1508e-05
16550.0 2.1474e-05
16570.0 2.1439e-05
16590.0 2.1404e-05
16610.0 2.1371e-05
16630.0 2.1337e-05
16650.0 2.1303e-05
16670.0 2.1271e-05
16690.0 2.1238e-05
16710.0 2.1204e-05
16730.0 2.1171e-05
16750.0 2.1139e-05
16770.0 2.1106e-05
16790.0 2.1073e-05
16810.0 2.1041e-05
16830.0 2.101e-05
16850.0 2.0977e-05
16870.0 2.0945e-05
16890.0 2.0915e-05
16910.0 2.0882e-05
16930.0 2.085e-05
16950.0 2.0819e-05
16970.0 2.0788e-05
16990.0 2.0756e-05
17010.0 2.0725e-05
17030.0 2.0695e-05
17050.0 2.0663e-05
17070.0 2.0632e-05
17090.0 2.0601e-05
17110.0 2.0571e-05
17130.0 2.0539e-05
17150.0 2.0508e-05
17170.0 2.0478e-05
17190.0 2.0447e-05
17210.0 2.0416e-05
17230.0 2.0386e-05
17250.0 2.0355e-05
17270.0 2.0323e-05
17290.0 2.0293e-05
17310.0 2.0263e-05
17330.0 2.0231e-05
17350.0 2.0199e-05
17370.0 2.017e-05
17390.0 2.0139e-05
17410.0 2.0107e-05
17430.0 2.0076e-05
17450.0 2.0046e-05
17470.0 2.0013e-05
17490.0 1.9981e-05
17510.0 1.995e-05
17530.0 1.9919e-05
17550.0 1.9886e-05
17570.0 1.9855e-05
17590.0 1.9824e-05
17610.0 1.9791e-05
17630.0 1.9758e-05
17650.0 1.9726e-05
17670.0 1.9694e-05
17690.0 1.9659e-05
17710.0 1.9627e-05
17730.0 1.9594e-05
17750.0 1.956e-05
17770.0 1.9527e-05
17790.0 1.9494e-05
17810.0 1.946e-05
17830.0 1.9425e-05
17850.0 1.9391e-05
17870.0 1.9356e-05
17890.0 1.932e-05
17910.0 1.9285e-05
17930.0 1.9251e-05
17950.0 1.9215e-05
17970.0 1.9178e-05
17990.0 1.9143e-05
18010.0 1.9107e-05
18030.0 1.9069e-05
18050.0 1.9032e-05
18070.0 1.8995e-05
18090.0 1.8957e-05
18110.0 1.8919e-05
18130.0 1.8881e-05
18150.0 1.8843e-05
18170.0 1.8804e-05
18190.0 1.8765e-05
18210.0 1.8726e-05
18230.0 1.8685e-05
18250.0 1.8644e-05
18270.0 1.8605e-05
18290.0 1.8564e-05
18310.0 1.8522e-05
18330.0 1.8481e-05
18350.0 1.844e-05
18370.0 1.8398e-05
18390.0 1.8355e-05
18410.0 1.8313e-05
18430.0 1.827e-05
18450.0 1.8225e-05
18470.0 1.8181e-05
18490.0 1.8138e-05
18510.0 1.8093e-05
18530.0 1.8048e-05
18550.0 1.8004e-05
18570.0 1.7958e-05
18590.0 1.7911e-05
18610.0 1.7865e-05
18630.0 1.7819e-05
18650.0 1.7771e-05
18670.0 1.7723e-05
18690.0 1.7677e-05
18710.0 1.7629e-05
18730.0 1.758e-05
18750.0 1.7531e-05
18770.0 1.7483e-05
18790.0 1.7432e-05
18810.0 1.7382e-05
18830.0 1.7333e-05
18850.0 1.7282e-05
18870.0 1.7231e-05
18890.0 1.718e-05
18910.0 1.7129e-05
18930.0 1.7077e-05
18950.0 1.7024e-05
18970.0 1.6973e-05
18990.0 1.692e-05
19010.0 1.6865e-05
19030.0 1.6813e-05
19050.0 1.676e-05
19070.0 1.6705e-05
19090.0 1.6651e-05
19110.0 1.6597e-05
19130.0 1.6542e-05
19150.0 1.6486e-05
19170.0 1.6431e-05
19190.0 1.6375e-05
19210.0 1.6319e-05
19230.0 1.6262e-05
19250.0 1.6206e-05
19270.0 1.6149e-05
19290.0 1.6092e-05
19310.0 1.6035e-05
19330.0 1.5978e-05
19350.0 1.5919e-05
19370.0 1.5861e-05
19390.0 1.5804e-05
19410.0 1.5745e-05
19430.0 1.5686e-05
19450.0 1.5628e-05
19470.0 1.5569e-05
19490.0 1.5509e-05
19510.0 1.545e-05
19530.0 1.5391e-05
19550.0 1.5331e-05
19570.0 1.527e-05
19590.0 1.5211e-05
19610.0 1.5151e-05
19630.0 1.509e-05
19650.0 1.503e-05
19670.0 1.4971e-05
19690.0 1.4909e-05
19710.0 1.4848e-05
19730.0 1.4788e-05
19750.0 1.4727e-05
19770.0 1.4665e-05
19790.0 1.4604e-05
19810.0 1.4544e-05
19830.0 1.4482e-05
19850.0 1.442e-05
19870.0 1.4358e-05
19890.0 1.4294e-05
19910.0 1.4226e-05
19930.0 1.4155e-05
19950.0 1.4078e-05
19970.0 1.3989e-05
19990.0 1.3887e-05
20010.0 1.3776e-05
20030.0 1.3647e-05
20050.0 1.3503e-05
20070.0 1.335e-05
20090.0 1.3189e-05
20110.0 1.3014e-05
20130.0 1.2838e-05
20150.0 1.2666e-05
20170.0 1.249e-05
20190.0 1.2314e-05
20210.0 1.2147e-05
20230.0 1.1984e-05
20250.0 1.182e-05
20270.0 1.1665e-05
20290.0 1.1519e-05
20310.0 1.1376e-05
20330.0 1.1237e-05
20350.0 1.1112e-05
20370.0 1.0992e-05
20390.0 1.0877e-05
20410.0 1.0771e-05
20430.0 1.0673e-05
20450.0 1.0579e-05
20470.0 1.0491e-05
20490.0 1.0412e-05
20510.0 1.0338e-05
20530.0 1.0268e-05
20550.0 1.0204e-05
20570.0 1.0147e-05
20590.0 1.0093e-05
20610.0 1.0044e-05
20630.0 9.9992e-06
20650.0 9.9576e-06
20670.0 9.9183e-06
20690.0 9.8823e-06
20710.0 9.8484e-06
20730.0 9.8154e-06
20750.0 9.7831e-06
20770.0 9.7514e-06
20790.0 9.7189e-06
20810.0 9.6847e-06
20830.0 9.649e-06
20850.0 9.6112e-06
20870.0 9.5696e-06
20890.0 9.5242e-06
20910.0 9.4764e-06
20930.0 9.424e-06
20950.0 9.3666e-06
20970.0 9.3063e-06
20990.0 9.2429e-06
21010.0 9.1732e-06
21030.0 9.1006e-06
21050.0 9.0267e-06
21070.0 8.9491e-06
21090.0 8.8669e-06
21110.0 8.7861e-06
21130.0 8.7047e-06
21150.0 8.6201e-06
21170.0 8.5358e-06
21190.0 8.4541e-06
21210.0 8.3703e-06
21230.0 8.286e-06
21250.0 8.2057e-06
21270.0 8.1271e-06
21290.0 8.048e-06
21310.0 7.9714e-06
21330.0 7.8997e-06
21350.0 7.828e-06
21370.0 7.7576e-06
21390.0 7.6914e-06
21410.0 7.6275e-06
21430.0 7.5626e-06
21450.0 7.5015e-06
21470.0 7.4436e-06
21490.0 7.3859e-06
21510.0 7.3289e-06
21530.0 7.2752e-06
21550.0 7.2221e-06
21570.0 7.1683e-06
21590.0 7.1162e-06
21610.0 7.0658e-06
21630.0 7.0146e-06
21650.0 6.9625e-06
21670.0 6.9137e-06
21690.0 6.8644e-06
21710.0 6.8141e-06
21730.0 6.7648e-06
21750.0 6.7169e-06
21770.0 6.6666e-06
21790.0 6.6164e-06
21810.0 6.5679e-06
21830.0 6.5188e-06
21850.0 6.468e-06
21870.0 6.4184e-06
21890.0 6.37e-06
21910.0 6.3195e-06
21930.0 6.2688e-06
21950.0 6.2197e-06
21970.0 6.1698e-06
21990.0 6.1174e-06
22010.0 6.0674e-06
22030.0 6.0181e-06
22050.0 5.9674e-06
22070.0 5.9169e-06
22090.0 5.8691e-06
22110.0 5.8207e-06
22130.0 5.7718e-06
22150.0 5.7254e-06
22170.0 5.6807e-06
22190.0 5.6351e-06
22210.0 5.5912e-06
22230.0 5.551e-06
22250.0 5.5113e-06
22270.0 5.4725e-06
22290.0 5.4368e-06
22310.0 5.4031e-06
22330.0 5.3694e-06
22350.0 5.338e-06
22370.0 5.3091e-06
22390.0 5.281e-06
22410.0 5.2533e-06
22430.0 5.2284e-06
22450.0 5.2047e-06
22470.0 5.181e-06
22490.0 5.1584e-06
22510.0 5.1376e-06
22530.0 5.1164e-06
22550.0 5.0954e-06
22570.0 5.0761e-06
22590.0 5.0574e-06
22610.0 5.0385e-06
22630.0 5.0205e-06
22650.0 5.0042e-06
22670.0 4.9878e-06
