#lamb flux
1010.0 2.8243e-05
1030.0 2.9692e-05
1050.0 3.1363e-05
1070.0 3.3245e-05
1090.0 3.5382e-05
1110.0 3.7577e-05
1130.0 3.9789e-05
1150.0 4.2108e-05
1170.0 4.4504e-05
1190.0 4.6779e-05
1210.0 4.9089e-05
1230.0 5.148e-05
1250.0 5.3828e-05
1270.0 5.6113e-05
1290.0 5.8531e-05
1310.0 6.0953e-05
1330.0 6.3282e-05
1350.0 6.5644e-05
1370.0 6.8086e-05
1390.0 7.0476e-05
1410.0 7.2803e-05
1430.0 7.524e-05
1450.0 7.7684e-05
1470.0 8.0055e-05
1490.0 8.2458e-05
1510.0 8.4999e-05
1530.0 8.7418e-05
1550.0 8.9812e-05
1570.0 9.2291e-05
1590.0 9.4777e-05
1610.0 9.7162e-05
1630.0 9.9621e-05
1650.0 0.00010215
1670.0 0.00010459
1690.0 0.00010701
1710.0 0.00010952
1730.0 0.00011204
1750.0 0.00011442
1770.0 0.00011686
1790.0 0.00011935
1810.0 0.00012175
1830.0 0.00012411
1850.0 0.0001266
1870.0 0.00012903
1890.0 0.00013137
1910.0 0.00013376
1930.0 0.00013619
1950.0 0.00013852
1970.0 0.00014081
1990.0 0.00014319
2010.0 0.00014553
2030.0 0.0001478
2050.0 0.00015014
2070.0 0.00015255
2090.0 0.00015484
2110.0 0.00015714
2130.0 0.00015953
2150.0 0.00016191
2170.0 0.00016422
2190.0 0.00016666
2210.0 0.00016915
2230.0 0.00017161
2250.0 0.00017411
2270.0 0.00017677
2290.0 0.00017943
2310.0 0.00018207
2330.0 0.00018486
2350.0 0.00018776
2370.0 0.00019066
2390.0 0.00019368
2410.0 0.00019692
2430.0 0.00020018
2450.0 0.00020345
2470.0 0.00020681
2490.0 0.00021012
2510.0 0.00021321
2530.0 0.0002164
2550.0 0.00022017
2570.0 0.00022533
2590.0 0.00023303
2610.0 0.00024571
2630.0 0.0002649
2650.0 0.00029054
2670.0 0.00032364
2690.0 0.0003641
2710.0 0.00040769
2730.0 0.00045197
2750.0 0.00049774
2770.0 0.00054154
2790.0 0.00058196
2810.0 0.0006211
2830.0 0.0006608
2850.0 0.00069862
2870.0 0.00073674
2890.0 0.00077694
2910.0 0.00081826
2930.0 0.00085934
2950.0 0.00090266
2970.0 0.0009478
2990.0 0.00099274
3010.0 0.0019755
3030.0 0.0020659
3050.0 0.0021571
3070.0 0.0022436
3090.0 0.0023281
3110.0 0.0024029
3130.0 0.0024565
3150.0 0.0024788
3170.0 0.0024509
3190.0 0.0023613
3210.0 0.0022086
3230.0 0.0020228
3250.0 0.0020251
3270.0 0.0015052
3290.0 0.0016899
3310.0 0.0012142
3330.0 0.0013066
3350.0 0.0014718
3370.0 0.0016457
3390.0 0.0018238
3410.0 0.0020012
3430.0 0.0021821
3450.0 0.0023618
3470.0 0.0025322
3490.0 0.0026558
3510.0 0.0028818
3530.0 0.0033685
3550.0 0.0038369
3570.0 0.0043002
3590.0 0.005279
3610.0 0.0051304
3630.0 0.0055441
3650.0 0.0054445
3670.0 0.0059219
3690.0 0.0064672
3710.0 0.0068427
3730.0 0.0078948
3750.0 0.0082258
3770.0 0.008332
3790.0 0.0079253
3810.0 0.006988
3830.0 0.0064242
3850.0 0.0056488
3870.0 0.0061568
3890.0 0.0070052
3910.0 0.00826
3930.0 0.0095836
3950.0 0.010413
3970.0 0.011847
3990.0 0.012189
4010.0 0.011851
4030.0 0.012039
4050.0 0.011049
4070.0 0.010576
4090.0 0.010296
4110.0 0.0098238
4130.0 0.0106
4150.0 0.010219
4170.0 0.010205
4190.0 0.010006
4210.0 0.010726
4230.0 0.010283
4250.0 0.011088
4270.0 0.011058
4290.0 0.011108
4310.0 0.011856
4330.0 0.012626
4350.0 0.012717
4370.0 0.012455
4390.0 0.011864
4410.0 0.010499
4430.0 0.008745
4450.0 0.0080696
4470.0 0.0083087
4490.0 0.008303
4510.0 0.009399
4530.0 0.01031
4550.0 0.012167
4570.0 0.015755
4590.0 0.019261
4610.0 0.021076
4630.0 0.024177
4650.0 0.026445
4670.0 0.026626
4690.0 0.024289
4710.0 0.022558
4730.0 0.020036
4750.0 0.01643
4770.0 0.013878
4790.0 0.012367
4810.0 0.013496
4830.0 0.014992
4850.0 0.016836
4870.0 0.016085
4890.0 0.018408
4910.0 0.019228
4930.0 0.020976
4950.0 0.024593
4970.0 0.026151
4990.0 0.027547
5010.0 0.025487
5030.0 0.021394
5050.0 0.017448
5070.0 0.013852
5090.0 0.012475
5110.0 0.012255
5130.0 0.012051
5150.0 0.012616
5170.0 0.012199
5190.0 0.012867
5210.0 0.013092
5230.0 0.014055
5250.0 0.016439
5270.0 0.017835
5290.0 0.019337
5310.0 0.021742
5330.0 0.023496
5350.0 0.024019
5370.0 0.024017
5390.0 0.023479
5410.0 0.02301
5430.0 0.02328
5450.0 0.026032
5470.0 0.030485
5490.0 0.034795
5510.0 0.0388
5530.0 0.039735
5550.0 0.039277
5570.0 0.03819
5590.0 0.037173
5610.0 0.036689
5630.0 0.036647
5650.0 0.036756
5670.0 0.036206
5690.0 0.03365
5710.0 0.030675
5730.0 0.027343
5750.0 0.025524
5770.0 0.024087
5790.0 0.024525
5810.0 0.025745
5830.0 0.026569
5850.0 0.025679
5870.0 0.024329
5890.0 0.023787
5910.0 0.023021
5930.0 0.022458
5950.0 0.021828
5970.0 0.020863
5990.0 0.018354
6010.0 0.015911
6030.0 0.014537
6050.0 0.014063
6070.0 0.013734
6090.0 0.013719
6110.0 0.014
6130.0 0.01413
6150.0 0.014975
6170.0 0.016574
6190.0 0.01826
6210.0 0.019162
6230.0 0.019421
6250.0 0.017863
6270.0 0.015776
6290.0 0.013559
6310.0 0.011853
6330.0 0.010954
6350.0 0.010642
6370.0 0.011174
6390.0 0.012528
6410.0 0.014721
6430.0 0.017568
6450.0 0.019955
6470.0 0.021761
6490.0 0.023311
6510.0 0.023949
6530.0 0.023777
6550.0 0.023888
6570.0 0.024142
6590.0 0.02384
6610.0 0.024082
6630.0 0.023646
6650.0 0.022897
6670.0 0.021572
6690.0 0.019741
6710.0 0.018949
6730.0 0.017932
6750.0 0.017925
6770.0 0.018411
6790.0 0.019051
6810.0 0.019395
6830.0 0.019029
6850.0 0.018252
6870.0 0.017681
6890.0 0.016847
6910.0 0.016052
6930.0 0.016454
6950.0 0.016664
6970.0 0.017338
6990.0 0.018017
7010.0 0.01786
7030.0 0.016808
7050.0 0.015041
7070.0 0.013373
7090.0 0.011848
7110.0 0.011028
7130.0 0.010596
7150.0 0.010314
7170.0 0.01067
7190.0 0.010905
7210.0 0.011497
7230.0 0.012757
7250.0 0.01366
7270.0 0.013987
7290.0 0.013804
7310.0 0.013174
7330.0 0.012357
7350.0 0.011932
7370.0 0.012009
7390.0 0.012638
7410.0 0.013966
7430.0 0.015589
7450.0 0.017592
7470.0 0.019112
7490.0 0.019849
7510.0 0.019107
7530.0 0.017555
7550.0 0.015374
7570.0 0.013124
7590.0 0.012191
7610.0 0.012281
7630.0 0.013142
7650.0 0.014942
7670.0 0.016711
7690.0 0.018325
7710.0 0.0198
7730.0 0.020992
7750.0 0.022
7770.0 0.022489
7790.0 0.023281
7810.0 0.023823
7830.0 0.023784
7850.0 0.023914
7870.0 0.023112
7890.0 0.02244
7910.0 0.0212
7930.0 0.020685
7950.0 0.019956
7970.0 0.020141
7990.0 0.019987
8010.0 0.0197
8030.0 0.019765
8050.0 0.020423
8070.0 0.020065
8090.0 0.020114
8110.0 0.019424
8130.0 0.019356
8150.0 0.018785
8170.0 0.018284
8190.0 0.018068
8210.0 0.018229
8230.0 0.016916
8250.0 0.015763
8270.0 0.013777
8290.0 0.01119
8310.0 0.0089029
8330.0 0.0069236
8350.0 0.0060424
8370.0 0.0066577
8390.0 0.0074897
8410.0 0.0082405
8430.0 0.0093836
8450.0 0.009938
8470.0 0.010424
8490.0 0.011659
8510.0 0.012918
8530.0 0.01501
8550.0 0.017701
8570.0 0.020074
8590.0 0.021967
8610.0 0.02374
8630.0 0.025234
8650.0 0.025528
8670.0 0.025664
8690.0 0.026552
8710.0 0.026849
8730.0 0.027231
8750.0 0.026522
8770.0 0.026603
8790.0 0.026248
8810.0 0.024431
8830.0 0.023971
8850.0 0.022672
8870.0 0.021755
8890.0 0.020612
8910.0 0.021344
8930.0 0.019999
8950.0 0.019387
8970.0 0.019194
8990.0 0.018711
9010.0 0.018553
9030.0 0.018015
9050.0 0.01791
9070.0 0.017866
9090.0 0.017821
9110.0 0.01778
9130.0 0.017732
9150.0 0.017682
9170.0 0.017604
9190.0 0.017488
9210.0 0.017597
9230.0 0.017506
9250.0 0.017433
9270.0 0.017364
9290.0 0.017297
9310.0 0.017232
9330.0 0.017168
9350.0 0.017103
9370.0 0.017037
9390.0 0.016971
9410.0 0.016904
9430.0 0.016835
9450.0 0.016761
9470.0 0.016688
9490.0 0.016622
9510.0 0.016552
9530.0 0.016482
9550.0 0.01641
9570.0 0.016337
9590.0 0.016264
9610.0 0.016191
9630.0 0.016116
9650.0 0.016042
9670.0 0.015967
9690.0 0.015892
9710.0 0.015816
9730.0 0.015741
9750.0 0.015666
9770.0 0.01559
9790.0 0.015514
9810.0 0.015439
9830.0 0.015363
9850.0 0.015288
9870.0 0.015212
9890.0 0.015137
9910.0 0.015062
9930.0 0.014986
9950.0 0.014831
9970.0 0.01478
9990.0 0.014725
10010.0 0.014668
10030.0 0.014605
10050.0 0.014535
10070.0 0.014459
10090.0 0.014393
10110.0 0.014321
10130.0 0.014252
10150.0 0.014183
10170.0 0.014112
10190.0 0.014038
10210.0 0.013968
10230.0 0.0139
10250.0 0.013829
10270.0 0.013759
10290.0 0.013692
10310.0 0.013623
10330.0 0.013552
10350.0 0.013485
10370.0 0.013419
10390.0 0.01335
10410.0 0.013282
10430.0 0.013219
10450.0 0.013152
10470.0 0.013085
10490.0 0.01302
10510.0 0.012957
10530.0 0.012888
10550.0 0.012823
10570.0 0.012761
10590.0 0.012696
10610.0 0.012631
10630.0 0.012569
10650.0 0.012507
10670.0 0.012441
10690.0 0.012378
10710.0 0.012317
10730.0 0.012253
10750.0 0.012187
10770.0 0.012127
10790.0 0.012066
10810.0 0.012001
10830.0 0.011939
10850.0 0.011879
10870.0 0.011813
10890.0 0.011745
10910.0 0.011677
10930.0 0.011601
10950.0 0.011512
10970.0 0.011413
10990.0 0.011303
11010.0 0.010455
11030.0 0.010319
11050.0 0.010178
11070.0 0.010027
11090.0 0.0098601
11110.0 0.0096997
11130.0 0.0095413
11150.0 0.0093766
11170.0 0.0092126
11190.0 0.0090592
11210.0 0.0089031
11230.0 0.008744
11250.0 0.0085938
11270.0 0.0084499
11290.0 0.0083029
11310.0 0.0081609
11330.0 0.0080345
11350.0 0.0079102
11370.0 0.0077892
11390.0 0.0076797
11410.0 0.0075781
11430.0 0.0074743
11450.0 0.0073773
11470.0 0.007287
11490.0 0.0071951
11510.0 0.0070988
11530.0 0.0070061
11550.0 0.0069112
11570.0 0.0068064
11590.0 0.0066972
11610.0 0.0065868
11630.0 0.0064648
11650.0 0.0063322
11670.0 0.0062017
11690.0 0.0060669
11710.0 0.0059231
11730.0 0.0057796
11750.0 0.0056431
11770.0 0.0055017
11790.0 0.0053614
11810.0 0.0052312
11830.0 0.0051069
11850.0 0.0049813
11870.0 0.0048678
11890.0 0.004766
11910.0 0.0046674
11930.0 0.0045745
11950.0 0.0044928
11970.0 0.0044159
11990.0 0.0043403
12010.0 0.0042724
12030.0 0.0042106
12050.0 0.0041501
12070.0 0.0040914
12090.0 0.0040411
12110.0 0.0039928
12130.0 0.0039461
12150.0 0.0039047
12170.0 0.0038693
12190.0 0.0038354
12210.0 0.0038081
12230.0 0.0037892
12250.0 0.0037772
12270.0 0.0037732
12290.0 0.0037797
12310.0 0.0037964
12330.0 0.003824
12350.0 0.0038632
12370.0 0.0039126
12390.0 0.003973
12410.0 0.0040463
12430.0 0.0041258
12450.0 0.0042116
12470.0 0.0043052
12490.0 0.0044025
12510.0 0.0044982
12530.0 0.0045959
12550.0 0.0046933
12570.0 0.0047847
12590.0 0.0048703
12610.0 0.004952
12630.0 0.0050258
12650.0 0.0050891
12670.0 0.0051454
12690.0 0.0051934
12710.0 0.0052319
12730.0 0.005262
12750.0 0.0052837
12770.0 0.0052969
12790.0 0.0053028
12810.0 0.0053012
12830.0 0.0052917
12850.0 0.0052774
12870.0 0.0052577
12890.0 0.0052312
12910.0 0.0052005
12930.0 0.0051673
12950.0 0.005128
12970.0 0.0050837
12990.0 0.0050389
13010.0 0.0049909
13030.0 0.0049374
13050.0 0.0048821
13070.0 0.0048267
13090.0 0.004766
13110.0 0.0047024
13130.0 0.0046402
13150.0 0.0045773
13170.0 0.004511
13190.0 0.0044493
13210.0 0.0043929
13230.0 0.0043388
13250.0 0.0042905
13270.0 0.0042516
13290.0 0.0042201
13310.0 0.0041965
13330.0 0.0041834
13350.0 0.0041796
13370.0 0.0041837
13390.0 0.0041954
13410.0 0.0042118
13430.0 0.0042313
13450.0 0.0042518
13470.0 0.00427
13490.0 0.0042838
13510.0 0.0042915
13530.0 0.0042905
13550.0 0.0042805
13570.0 0.0042605
13590.0 0.0042293
13610.0 0.0041899
13630.0 0.0041437
13650.0 0.0040885
13670.0 0.0040282
13690.0 0.0039669
13710.0 0.0039028
13730.0 0.0038354
13750.0 0.0037733
13770.0 0.003714
13790.0 0.0036558
13810.0 0.0036017
13830.0 0.0035537
13850.0 0.0035077
13870.0 0.0034648
13890.0 0.0034268
13910.0 0.0033921
13930.0 0.003359
13950.0 0.0033286
13970.0 0.0033018
13990.0 0.0032762
14010.0 0.0032521
14030.0 0.0032304
14050.0 0.0032103
14070.0 0.0031909
14090.0 0.0031735
14110.0 0.0031578
14130.0 0.0031431
14150.0 0.0031295
14170.0 0.0031175
14190.0 0.0031067
14210.0 0.0030967
14230.0 0.0030881
14250.0 0.0030807
14270.0 0.0030745
14290.0 0.0030699
14310.0 0.0030666
14330.0 0.0030647
14350.0 0.0030644
14370.0 0.0030652
14390.0 0.0030668
14410.0 0.0030694
14430.0 0.0030724
14450.0 0.0030751
14470.0 0.0030774
14490.0 0.0030795
14510.0 0.0030802
14530.0 0.0030797
14550.0 0.0030783
14570.0 0.0030761
14590.0 0.0030731
14610.0 0.0030701
14630.0 0.0030678
14650.0 0.0030663
14670.0 0.0030664
14690.0 0.0030692
14710.0 0.0030756
14730.0 0.0030846
14750.0 0.003098
14770.0 0.0031168
14790.0 0.0031399
14810.0 0.0031669
14830.0 0.0032019
14850.0 0.0032415
14870.0 0.0032837
14890.0 0.0033304
14910.0 0.0033809
14930.0 0.0034291
14950.0 0.0034735
14970.0 0.003515
14990.0 0.003548
15010.0 0.0035702
15030.0 0.0035836
15050.0 0.0035882
15070.0 0.003584
15090.0 0.0035744
15110.0 0.0035609
15130.0 0.003545
15150.0 0.0035278
15170.0 0.0035099
15190.0 0.0034915
15210.0 0.0034731
15230.0 0.0034547
15250.0 0.003436
15270.0 0.0034174
15290.0 0.003399
15310.0 0.0033805
15330.0 0.0033619
15350.0 0.0033434
15370.0 0.0033249
15390.0 0.0033063
15410.0 0.0032878
15430.0 0.0032694
15450.0 0.003251
15470.0 0.0032324
15490.0 0.0032142
15510.0 0.0031959
15530.0 0.0031775
15550.0 0.0031593
15570.0 0.0031411
15590.0 0.0031229
15610.0 0.0031047
15630.0 0.0030867
15650.0 0.0030688
15670.0 0.0030508
15690.0 0.0030329
15710.0 0.0030152
15730.0 0.0029974
15750.0 0.0029797
15770.0 0.0029621
15790.0 0.0029447
15810.0 0.0029271
15830.0 0.0029097
15850.0 0.0028925
15870.0 0.0028753
15890.0 0.0028581
15910.0 0.0028412
15930.0 0.0028242
15950.0 0.0028073
15970.0 0.0027905
15990.0 0.0027739
16010.0 0.0027573
16030.0 0.0027407
16050.0 0.0027244
16070.0 0.0027081
16090.0 0.0026919
16110.0 0.0026758
16130.0 0.0026599
16150.0 0.0026439
16170.0 0.0026281
16190.0 0.0026125
16210.0 0.0025969
16230.0 0.0025813
16250.0 0.002566
16270.0 0.0025508
16290.0 0.0025356
16310.0 0.0025205
16330.0 0.0025057
16350.0 0.0024908
16370.0 0.002476
16390.0 0.0024614
16410.0 0.002447
16430.0 0.0024326
16450.0 0.0024183
16470.0 0.0024042
16490.0 0.0023901
16510.0 0.0023761
16530.0 0.0023623
16550.0 0.0023486
16570.0 0.0023349
16590.0 0.0023214
16610.0 0.0023081
16630.0 0.0022948
16650.0 0.0022816
16670.0 0.0022686
16690.0 0.0022557
16710.0 0.0022428
16730.0 0.0022301
16750.0 0.0022175
16770.0 0.002205
16790.0 0.0021926
16810.0 0.0021804
16830.0 0.0021682
16850.0 0.0021561
16870.0 0.0021442
16890.0 0.0021324
16910.0 0.0021206
16930.0 0.0021089
16950.0 0.0020975
16970.0 0.0020861
16990.0 0.0020747
17010.0 0.0020636
17030.0 0.0020525
17050.0 0.0020415
17070.0 0.0020306
17090.0 0.0020199
17110.0 0.0020092
17130.0 0.0019986
17150.0 0.0019881
17170.0 0.0019778
17190.0 0.0019675
17210.0 0.0019573
17230.0 0.0019473
17250.0 0.0019374
17270.0 0.0019274
17290.0 0.0019177
17310.0 0.001908
17330.0 0.0018984
17350.0 0.0018889
17370.0 0.0018796
17390.0 0.0018703
17410.0 0.0018611
17430.0 0.001852
17450.0 0.0018431
17470.0 0.0018341
17490.0 0.0018252
17510.0 0.0018165
17530.0 0.0018079
17550.0 0.0017993
17570.0 0.0017908
17590.0 0.0017825
17610.0 0.0017742
17630.0 0.0017659
17650.0 0.0017579
17670.0 0.0017498
17690.0 0.0017418
17710.0 0.001734
17730.0 0.0017262
17750.0 0.0017185
17770.0 0.0017108
17790.0 0.0017034
17810.0 0.0016959
17830.0 0.0016884
17850.0 0.0016811
17870.0 0.0016739
17890.0 0.0016667
17910.0 0.0016596
17930.0 0.0016527
17950.0 0.0016458
17970.0 0.0016389
17990.0 0.0016321
18010.0 0.0016254
18030.0 0.0016187
18050.0 0.0016122
18070.0 0.0016057
18090.0 0.0015992
18110.0 0.0015928
18130.0 0.0015866
18150.0 0.0015804
18170.0 0.0015742
18190.0 0.0015681
18210.0 0.0015621
18230.0 0.0015561
18250.0 0.0015502
18270.0 0.0015444
18290.0 0.0015386
18310.0 0.0015329
18330.0 0.0015272
18350.0 0.0015217
18370.0 0.0015161
18390.0 0.0015106
18410.0 0.0015052
18430.0 0.0014999
18450.0 0.0014945
18470.0 0.0014893
18490.0 0.0014841
18510.0 0.001479
18530.0 0.0014739
18550.0 0.0014689
18570.0 0.0014639
18590.0 0.001459
18610.0 0.0014541
18630.0 0.0014493
18650.0 0.0014445
18670.0 0.0014398
18690.0 0.0014352
18710.0 0.0014306
18730.0 0.001426
18750.0 0.0014215
18770.0 0.001417
18790.0 0.0014125
18810.0 0.0014081
18830.0 0.0014039
18850.0 0.0013996
18870.0 0.0013953
18890.0 0.0013911
18910.0 0.001387
18930.0 0.0013828
18950.0 0.0013788
18970.0 0.0013748
18990.0 0.0013708
19010.0 0.0013667
19030.0 0.0013629
19050.0 0.001359
19070.0 0.0013552
19090.0 0.0013514
19110.0 0.0013477
19130.0 0.0013439
19150.0 0.0013402
19170.0 0.0013366
19190.0 0.001333
19210.0 0.0013294
19230.0 0.0013259
19250.0 0.0013224
19270.0 0.0013189
19290.0 0.0013155
19310.0 0.0013121
19330.0 0.0013088
19350.0 0.0013054
19370.0 0.0013021
19390.0 0.0012989
19410.0 0.0012956
19430.0 0.0012923
19450.0 0.0012892
19470.0 0.0012861
19490.0 0.0012829
19510.0 0.0012798
19530.0 0.0012768
19550.0 0.0012738
19570.0 0.0012707
19590.0 0.0012678
19610.0 0.0012648
19630.0 0.0012619
19650.0 0.001259
19670.0 0.0012562
19690.0 0.0012533
19710.0 0.0012504
19730.0 0.0012477
19750.0 0.0012449
19770.0 0.0012421
19790.0 0.0012394
19810.0 0.0012367
19830.0 0.001234
19850.0 0.0012312
19870.0 0.0012285
19890.0 0.0012255
19910.0 0.001222
19930.0 0.001218
19950.0 0.0012131
19970.0 0.0012065
19990.0 0.0011982
20010.0 0.0011882
20030.0 0.0011758
20050.0 0.0011611
20070.0 0.001145
20090.0 0.0011276
20110.0 0.001108
20130.0 0.0010883
20150.0 0.0010688
20170.0 0.0010487
20190.0 0.0010283
20210.0 0.0010091
20230.0 0.00099039
20250.0 0.00097152
20270.0 0.00095388
20290.0 0.0009376
20310.0 0.00092192
20330.0 0.00090701
20350.0 0.00089436
20370.0 0.00088285
20390.0 0.00087246
20410.0 0.00086375
20430.0 0.00085674
20450.0 0.00085084
20470.0 0.0008465
20490.0 0.00084371
20510.0 0.00084221
20530.0 0.00084199
20550.0 0.00084297
20570.0 0.00084491
20590.0 0.00084785
20610.0 0.00085162
20630.0 0.00085586
20650.0 0.00086064
20670.0 0.00086603
20690.0 0.00087137
20710.0 0.00087665
20730.0 0.000882
20750.0 0.00088713
20770.0 0.00089165
20790.0 0.00089582
20810.0 0.00089951
20830.0 0.00090243
20850.0 0.00090461
20870.0 0.00090609
20890.0 0.00090672
20910.0 0.00090651
20930.0 0.00090551
20950.0 0.00090366
20970.0 0.00090111
20990.0 0.00089792
21010.0 0.00089389
21030.0 0.0008893
21050.0 0.00088435
21070.0 0.00087888
21090.0 0.00087285
21110.0 0.00086684
21130.0 0.00086074
21150.0 0.00085433
21170.0 0.000848
21190.0 0.00084201
21210.0 0.00083597
21230.0 0.00083008
21250.0 0.00082481
21270.0 0.00081996
21290.0 0.00081544
21310.0 0.00081154
21330.0 0.00080838
21350.0 0.00080572
21370.0 0.00080371
21390.0 0.00080243
21410.0 0.00080181
21430.0 0.00080187
21450.0 0.00080262
21470.0 0.00080398
21490.0 0.00080597
21510.0 0.0008086
21530.0 0.00081164
21550.0 0.00081519
21570.0 0.00081934
21590.0 0.00082383
21610.0 0.00082856
21630.0 0.00083378
21650.0 0.00083946
21670.0 0.00084502
21690.0 0.00085089
21710.0 0.00085712
21730.0 0.00086338
21750.0 0.00086956
21770.0 0.00087622
21790.0 0.00088291
21810.0 0.0008894
21830.0 0.00089597
21850.0 0.00090276
21870.0 0.00090931
21890.0 0.00091559
21910.0 0.00092202
21930.0 0.00092829
21950.0 0.00093416
21970.0 0.00093988
21990.0 0.00094558
22010.0 0.00095067
22030.0 0.00095533
22050.0 0.00095968
22070.0 0.00096352
22090.0 0.00096666
22110.0 0.00096928
22130.0 0.00097128
22150.0 0.0009725
22170.0 0.00097297
22190.0 0.00097264
22210.0 0.00097142
22230.0 0.00096943
22250.0 0.00096655
22270.0 0.00096269
22290.0 0.0009581
22310.0 0.00095277
22330.0 0.0009463
22350.0 0.00093911
22370.0 0.00093142
22390.0 0.00092286
22410.0 0.00091335
22430.0 0.00090373
22450.0 0.00089369
22470.0 0.00088284
22490.0 0.00087176
22510.0 0.00086082
22530.0 0.00084924
22550.0 0.00083733
22570.0 0.00082593
22590.0 0.00081459
22610.0 0.00080301
22630.0 0.0007918
22650.0 0.00078132
22670.0 0.00077077
22690.0 0.00076049
22710.0 0.00075098
22730.0 0.00074192
22750.0 0.00073281
22770.0 0.00072455
22790.0 0.00071698
22810.0 0.00070963
22830.0 0.00070268
22850.0 0.00069645
22870.0 0.00069054
22890.0 0.0006848
22910.0 0.00067959
22930.0 0.00067482
22950.0 0.00067021
22970.0 0.0006658
22990.0 0.00066195
23010.0 0.00065828
23030.0 0.00065473
23050.0 0.0006515
23070.0 0.00064857
23090.0 0.00064563
23110.0 0.00064292
23130.0 0.00064047
23150.0 0.00063812
23170.0 0.00063583
23190.0 0.00063373
23210.0 0.00063181
23230.0 0.00062992
23250.0 0.00062817
23270.0 0.00062661
23290.0 0.00062518
23310.0 0.00062386
23330.0 0.00062281
23350.0 0.00062199
23370.0 0.00062137
23390.0 0.000621
23410.0 0.00062089
23430.0 0.00062102
23450.0 0.00062138
23470.0 0.00062194
23490.0 0.00062267
23510.0 0.00062359
23530.0 0.00062462
23550.0 0.00062568
23570.0 0.00062682
23590.0 0.000628
23610.0 0.00062915
23630.0 0.00063028
23650.0 0.00063145
23670.0 0.0006326
23690.0 0.00063375
23710.0 0.00063499
23730.0 0.00063638
23750.0 0.00063789
23770.0 0.00063964
23790.0 0.00064179
23810.0 0.00064435
23830.0 0.00064729
23850.0 0.00065095
23870.0 0.00065536
23890.0 0.00066027
