#lamb flux
1010.0 1.2452e-07
1030.0 1.3772e-07
1050.0 1.5291e-07
1070.0 1.7e-07
1090.0 1.8941e-07
1110.0 2.0932e-07
1130.0 2.2936e-07
1150.0 2.5036e-07
1170.0 2.7201e-07
1190.0 2.9254e-07
1210.0 3.1335e-07
1230.0 3.3486e-07
1250.0 3.5593e-07
1270.0 3.7639e-07
1290.0 3.9801e-07
1310.0 4.1962e-07
1330.0 4.4034e-07
1350.0 4.6129e-07
1370.0 4.8292e-07
1390.0 5.0401e-07
1410.0 5.2448e-07
1430.0 5.4587e-07
1450.0 5.6727e-07
1470.0 5.8795e-07
1490.0 6.0885e-07
1510.0 6.3093e-07
1530.0 6.5186e-07
1550.0 6.725e-07
1570.0 6.9387e-07
1590.0 7.1526e-07
1610.0 7.357e-07
1630.0 7.5678e-07
1650.0 7.7843e-07
1670.0 7.9938e-07
1690.0 8.2007e-07
1710.0 8.4158e-07
1730.0 8.6322e-07
1750.0 8.836e-07
1770.0 9.0459e-07
1790.0 9.2603e-07
1810.0 9.4681e-07
1830.0 9.6726e-07
1850.0 9.89e-07
1870.0 1.0102e-06
1890.0 1.0307e-06
1910.0 1.0517e-06
1930.0 1.0732e-06
1950.0 1.0938e-06
1970.0 1.1142e-06
1990.0 1.1355e-06
2010.0 1.1564e-06
2030.0 1.1766e-06
2050.0 1.1974e-06
2070.0 1.2189e-06
2090.0 1.2392e-06
2110.0 1.2594e-06
2130.0 1.2803e-06
2150.0 1.3009e-06
2170.0 1.3206e-06
2190.0 1.3411e-06
2210.0 1.3617e-06
2230.0 1.3816e-06
2250.0 1.4014e-06
2270.0 1.4221e-06
2290.0 1.4422e-06
2310.0 1.4615e-06
2330.0 1.4816e-06
2350.0 1.5022e-06
2370.0 1.5228e-06
2390.0 1.545e-06
2410.0 1.5714e-06
2430.0 1.6017e-06
2450.0 1.6379e-06
2470.0 1.6844e-06
2490.0 1.7429e-06
2510.0 1.8095e-06
2530.0 1.8896e-06
2550.0 1.9898e-06
2570.0 2.1145e-06
2590.0 2.2768e-06
2610.0 2.5196e-06
2630.0 2.8664e-06
2650.0 3.3199e-06
2670.0 3.9061e-06
2690.0 4.6265e-06
2710.0 5.3956e-06
2730.0 6.1555e-06
2750.0 6.9039e-06
2770.0 7.5549e-06
2790.0 8.0719e-06
2810.0 8.4822e-06
2830.0 8.8027e-06
2850.0 9.0215e-06
2870.0 9.1821e-06
2890.0 9.3093e-06
2910.0 9.4107e-06
2930.0 9.4937e-06
2950.0 9.5728e-06
2970.0 9.6502e-06
2990.0 9.7228e-06
3010.0 0.00027482
3030.0 0.00027687
3050.0 0.00027886
3070.0 0.00028056
3090.0 0.00028202
3110.0 0.00028293
3130.0 0.00028289
3150.0 0.00028164
3170.0 0.00027862
3190.0 0.00027388
3210.0 0.00026788
3230.0 0.000261
3250.0 0.00025421
3270.0 0.00024925
3290.0 0.0002465
3310.0 0.00024695
3330.0 0.00025052
3350.0 0.00025674
3370.0 0.00026563
3390.0 0.00027683
3410.0 0.00028902
3430.0 0.0003027
3450.0 0.00031845
3470.0 0.00033566
3490.0 0.00035388
3510.0 0.00037449
3530.0 0.00039656
3550.0 0.0004189
3570.0 0.0004422
3590.0 0.00046755
3610.0 0.00049366
3630.0 0.0005197
3650.0 0.00054671
3670.0 0.00057137
3690.0 0.0005898
3710.0 0.00060036
3730.0 0.00060071
3750.0 0.00059235
3770.0 0.00058907
3790.0 0.00058557
3810.0 0.00057118
3830.0 0.00058886
3850.0 0.00065841
3870.0 0.00069659
3890.0 0.00069341
3910.0 0.00069637
3930.0 0.0007147
3950.0 0.00072599
3970.0 0.00066144
3990.0 0.00056914
4010.0 0.0017058
4030.0 0.0020668
4050.0 0.0023695
4070.0 0.0020559
4090.0 0.001862
4110.0 0.0016431
4130.0 0.0015123
4150.0 0.0016086
4170.0 0.0015845
4190.0 0.001689
4210.0 0.0016736
4230.0 0.0017702
4250.0 0.0020941
4270.0 0.0021188
4290.0 0.0019524
4310.0 0.0020287
4330.0 0.0021579
4350.0 0.0024196
4370.0 0.0027535
4390.0 0.0025839
4410.0 0.0019091
4430.0 0.0016161
4450.0 0.001485
4470.0 0.0011398
4490.0 0.00123
4510.0 0.0018579
4530.0 0.0021428
4550.0 0.0021614
4570.0 0.0024321
4590.0 0.0027704
4610.0 0.0037366
4630.0 0.004853
4650.0 0.005263
4670.0 0.0048741
4690.0 0.0046507
4710.0 0.0049162
4730.0 0.0046395
4750.0 0.0034686
4770.0 0.0025443
4790.0 0.0023759
4810.0 0.0022646
4830.0 0.0020732
4850.0 0.002275
4870.0 0.0030055
4890.0 0.0035444
4910.0 0.0031097
4930.0 0.0027517
4950.0 0.0030231
4970.0 0.003877
4990.0 0.0052542
5010.0 0.0060443
5030.0 0.0053297
5050.0 0.0036059
5070.0 0.0023764
5090.0 0.0019162
5110.0 0.0019707
5130.0 0.0022744
5150.0 0.0024642
5170.0 0.0024272
5190.0 0.0022681
5210.0 0.0023706
5230.0 0.0024921
5250.0 0.0026858
5270.0 0.0028978
5290.0 0.0032113
5310.0 0.0037379
5330.0 0.0041364
5350.0 0.0041101
5370.0 0.0043172
5390.0 0.0049541
5410.0 0.0049496
5430.0 0.0043772
5450.0 0.0040217
5470.0 0.0042703
5490.0 0.0052171
5510.0 0.0065232
5530.0 0.0074818
5550.0 0.0072313
5570.0 0.0065737
5590.0 0.005716
5610.0 0.0052714
5630.0 0.0051116
5650.0 0.0048683
5670.0 0.0046131
5690.0 0.0041241
5710.0 0.0040211
5730.0 0.003704
5750.0 0.0026115
5770.0 0.0020374
5790.0 0.0023089
5810.0 0.0026071
5830.0 0.0031993
5850.0 0.0038084
5870.0 0.0042255
5890.0 0.0042971
5910.0 0.0042157
5930.0 0.0040129
5950.0 0.004089
5970.0 0.0046611
5990.0 0.0043826
6010.0 0.0036739
6030.0 0.0031039
6050.0 0.0027031
6070.0 0.0026884
6090.0 0.0029151
6110.0 0.0032595
6130.0 0.0033095
6150.0 0.0028475
6170.0 0.0025049
6190.0 0.0028189
6210.0 0.0037266
6230.0 0.0048903
6250.0 0.0052969
6270.0 0.0046288
6290.0 0.0038944
6310.0 0.0030403
6330.0 0.0023294
6350.0 0.0020778
6370.0 0.002185
6390.0 0.002526
6410.0 0.0031147
6430.0 0.0036371
6450.0 0.0041618
6470.0 0.0047653
6490.0 0.0057562
6510.0 0.0064362
6530.0 0.0063143
6550.0 0.0057098
6570.0 0.0048471
6590.0 0.0043708
6610.0 0.0037687
6630.0 0.0034143
6650.0 0.0032275
6670.0 0.0031355
6690.0 0.0028331
6710.0 0.0025753
6730.0 0.001855
6750.0 0.001839
6770.0 0.0019989
6790.0 0.0022975
6810.0 0.0021023
6830.0 0.0021648
6850.0 0.0020248
6870.0 0.0018496
6890.0 0.0017759
6910.0 0.0018925
6930.0 0.0017726
6950.0 0.0018237
6970.0 0.0019182
6990.0 0.0021773
7010.0 0.0021958
7030.0 0.0022307
7050.0 0.0021273
7070.0 0.002027
7090.0 0.0020329
7110.0 0.0020917
7130.0 0.002251
7150.0 0.0023907
7170.0 0.002638
7190.0 0.0028999
7210.0 0.0028496
7230.0 0.0029294
7250.0 0.0031481
7270.0 0.0034307
7290.0 0.0040718
7310.0 0.0044183
7330.0 0.0042707
7350.0 0.0038626
7370.0 0.0033608
7390.0 0.0032604
7410.0 0.0034648
7430.0 0.0038507
7450.0 0.0041941
7470.0 0.0041556
7490.0 0.0037891
7510.0 0.0042921
7530.0 0.0042451
7550.0 0.0038156
7570.0 0.0029807
7590.0 0.0020491
7610.0 0.0017588
7630.0 0.0019983
7650.0 0.0023627
7670.0 0.0029406
7690.0 0.0032359
7710.0 0.0033722
7730.0 0.0035437
7750.0 0.0039782
7770.0 0.0040408
7790.0 0.0037117
7810.0 0.0033867
7830.0 0.0034924
7850.0 0.0033949
7870.0 0.0031126
7890.0 0.0026152
7910.0 0.0021258
7930.0 0.0020298
7950.0 0.0018492
7970.0 0.0017118
7990.0 0.001702
8010.0 0.00012606
8030.0 0.00012442
8050.0 0.00012274
8070.0 0.00012435
8090.0 0.00013361
8110.0 0.00013133
8130.0 0.00010833
8150.0 0.0001055
8170.0 9.0876e-05
8190.0 8.6125e-05
8210.0 0.00011184
8230.0 0.00012452
8250.0 0.00011223
8270.0 9.7681e-05
8290.0 9.5221e-05
8310.0 7.3286e-05
8330.0 4.9395e-05
8350.0 3.5055e-05
8370.0 2.2086e-05
8390.0 4.0373e-05
8410.0 4.7046e-05
8430.0 5.7991e-05
8450.0 6.8097e-05
8470.0 8.4641e-05
8490.0 8.4044e-05
8510.0 8.267e-05
8530.0 8.6278e-05
8550.0 0.00011641
8570.0 0.00013781
8590.0 0.00014869
8610.0 0.00018783
8630.0 0.00022627
8650.0 0.0002367
8670.0 0.00025155
8690.0 0.00025295
8710.0 0.00022909
8730.0 0.00021309
8750.0 0.00018809
8770.0 0.00017847
8790.0 0.00017534
8810.0 0.00016801
8830.0 0.00013435
8850.0 9.8354e-05
8870.0 7.5308e-05
8890.0 7.3626e-05
8910.0 8.4377e-05
8930.0 9.5973e-05
8950.0 9.7811e-05
8970.0 9.8273e-05
8990.0 8.7648e-05
9010.0 0.00091851
9030.0 0.00083228
9050.0 0.0008363
9070.0 0.0008429
9090.0 0.00084869
9110.0 0.00085584
9130.0 0.00086135
9150.0 0.00086564
9170.0 0.00087022
9190.0 0.0008751
9210.0 0.00088024
9230.0 0.00088566
9250.0 0.00089117
9270.0 0.00089689
9290.0 0.00090278
9310.0 0.00090871
9330.0 0.00091475
9350.0 0.00092103
9370.0 0.00092737
9390.0 0.00093377
9410.0 0.00094036
9430.0 0.00094715
9450.0 0.00095392
9470.0 0.00096082
9490.0 0.00096793
9510.0 0.00097512
9530.0 0.00098234
9550.0 0.00098982
9570.0 0.00099742
9590.0 0.001005
9610.0 0.0010128
9630.0 0.0010208
9650.0 0.0010288
9670.0 0.0010368
9690.0 0.0010451
9710.0 0.0010535
9730.0 0.0010619
9750.0 0.0010704
9770.0 0.0010792
9790.0 0.001088
9810.0 0.0010968
9830.0 0.0011058
9850.0 0.001115
9870.0 0.001124
9890.0 0.0011333
9910.0 0.0011427
9930.0 0.0011521
9950.0 0.0011615
9970.0 0.0011712
9990.0 0.0011809
10010.0 0.0010247
10030.0 0.0010331
10050.0 0.0010417
10070.0 0.0010506
10090.0 0.001059
10110.0 0.0010675
10130.0 0.0010761
10150.0 0.0010847
10170.0 0.0010934
10190.0 0.0011022
10210.0 0.001111
10230.0 0.0011197
10250.0 0.0011285
10270.0 0.0011374
10290.0 0.0011461
10310.0 0.0011549
10330.0 0.0011639
10350.0 0.0011726
10370.0 0.0011814
10390.0 0.0011902
10410.0 0.001199
10430.0 0.0012077
10450.0 0.0012164
10470.0 0.0012251
10490.0 0.0012337
10510.0 0.0012423
10530.0 0.001251
10550.0 0.0012595
10570.0 0.0012678
10590.0 0.0012762
10610.0 0.0012846
10630.0 0.0012928
10650.0 0.0013009
10670.0 0.0013091
10690.0 0.0013172
10710.0 0.001325
10730.0 0.0013329
10750.0 0.0013408
10770.0 0.0013484
10790.0 0.0013559
10810.0 0.0013634
10830.0 0.0013707
10850.0 0.0013776
10870.0 0.0013843
10890.0 0.0013902
10910.0 0.0013947
10930.0 0.0013973
10950.0 0.0013967
10970.0 0.001392
10990.0 0.0013827
11010.0 0.0013671
11030.0 0.0013454
11050.0 0.0013189
11070.0 0.0012872
11090.0 0.0012491
11110.0 0.0012097
11130.0 0.0011686
11150.0 0.0011244
11170.0 0.0010788
11190.0 0.0010345
11210.0 0.00098885
11230.0 0.00094201
11250.0 0.00089725
11270.0 0.00085426
11290.0 0.00081119
11310.0 0.0007704
11330.0 0.00073447
11350.0 0.00070053
11370.0 0.00066917
11390.0 0.00064203
11410.0 0.00061829
11430.0 0.00059624
11450.0 0.00057723
11470.0 0.0005608
11490.0 0.00054551
11510.0 0.00053077
11530.0 0.0005171
11550.0 0.00050352
11570.0 0.00048903
11590.0 0.00047402
11610.0 0.00045875
11630.0 0.00044213
11650.0 0.00042433
11670.0 0.00040679
11690.0 0.000389
11710.0 0.00037065
11730.0 0.00035287
11750.0 0.00033641
11770.0 0.00032027
11790.0 0.00030515
11810.0 0.00029183
11830.0 0.00027993
11850.0 0.00026896
11870.0 0.00025978
11890.0 0.00025216
11910.0 0.00024546
11930.0 0.0002397
11950.0 0.0002349
11970.0 0.00023061
11990.0 0.00022656
12010.0 0.00022281
12030.0 0.0002192
12050.0 0.00021547
12070.0 0.00021159
12090.0 0.00020784
12110.0 0.00020404
12130.0 0.00020023
12150.0 0.00019672
12170.0 0.00019366
12190.0 0.00019101
12210.0 0.00018916
12230.0 0.00018826
12250.0 0.00018841
12270.0 0.00018983
12290.0 0.00019252
12310.0 0.00019637
12330.0 0.00020176
12350.0 0.00020848
12370.0 0.00021614
12390.0 0.00022497
12410.0 0.00023532
12430.0 0.00024584
12450.0 0.00025673
12470.0 0.00026831
12490.0 0.00027993
12510.0 0.00029085
12530.0 0.0003017
12550.0 0.00031217
12570.0 0.00032141
12590.0 0.00032953
12610.0 0.00033676
12630.0 0.00034253
12650.0 0.0003465
12670.0 0.00034912
12690.0 0.00035017
12710.0 0.00034959
12730.0 0.00034756
12750.0 0.00034395
12770.0 0.00033898
12790.0 0.00033297
12810.0 0.00032578
12830.0 0.00031747
12850.0 0.00030878
12870.0 0.00029959
12890.0 0.00028964
12910.0 0.00027953
12930.0 0.00026957
12950.0 0.00025917
12970.0 0.00024858
12990.0 0.00023857
13010.0 0.00022868
13030.0 0.00021868
13050.0 0.00020908
13070.0 0.00020008
13090.0 0.00019106
13110.0 0.00018232
13130.0 0.00017427
13150.0 0.00016664
13170.0 0.00015917
13190.0 0.00015253
13210.0 0.00014668
13230.0 0.00014134
13250.0 0.00013673
13270.0 0.0001331
13290.0 0.00013028
13310.0 0.00012833
13330.0 0.00012745
13350.0 0.00012755
13370.0 0.00012869
13390.0 0.00013094
13410.0 0.00013398
13430.0 0.00013793
13450.0 0.0001428
13470.0 0.00014822
13490.0 0.00015395
13510.0 0.00016042
13530.0 0.00016697
13550.0 0.00017325
13570.0 0.00017944
13590.0 0.00018547
13610.0 0.00019083
13630.0 0.00019551
13650.0 0.00019979
13670.0 0.00020334
13690.0 0.00020608
13710.0 0.0002082
13730.0 0.00020972
13750.0 0.00021048
13770.0 0.00021065
13790.0 0.00021027
13810.0 0.00020934
13830.0 0.00020797
13850.0 0.00020611
13870.0 0.00020377
13890.0 0.00020109
13910.0 0.00019807
13930.0 0.00019457
13950.0 0.00019075
13970.0 0.00018685
13990.0 0.0001826
14010.0 0.00017808
14030.0 0.00017357
14050.0 0.00016903
14070.0 0.00016423
14090.0 0.00015964
14110.0 0.00015532
14130.0 0.00015113
14150.0 0.00014719
14170.0 0.00014382
14190.0 0.00014092
14210.0 0.00013845
14230.0 0.00013662
14250.0 0.00013544
14270.0 0.00013487
14290.0 0.00013499
14310.0 0.00013574
14330.0 0.00013709
14350.0 0.00013908
14370.0 0.00014156
14390.0 0.00014437
14410.0 0.00014769
14430.0 0.00015133
14450.0 0.00015504
14470.0 0.0001589
14490.0 0.000163
14510.0 0.00016692
14530.0 0.00017064
14550.0 0.00017436
14570.0 0.00017794
14590.0 0.00018119
14610.0 0.00018433
14630.0 0.00018745
14650.0 0.00019035
14670.0 0.00019315
14690.0 0.00019607
14710.0 0.00019914
14730.0 0.00020221
14750.0 0.00020561
14770.0 0.00020947
14790.0 0.00021365
14810.0 0.00021818
14830.0 0.00022355
14850.0 0.00022938
14870.0 0.00023547
14890.0 0.00024204
14910.0 0.00024902
14930.0 0.00025572
14950.0 0.00026199
14970.0 0.00026793
14990.0 0.0002729
15010.0 0.00027671
15030.0 0.00027952
15050.0 0.00028139
15070.0 0.0002823
15090.0 0.00028262
15110.0 0.00028253
15130.0 0.00028217
15150.0 0.00028169
15170.0 0.00028113
15190.0 0.00028052
15210.0 0.00027993
15230.0 0.00027933
15250.0 0.00027872
15270.0 0.00027811
15290.0 0.00027753
15310.0 0.00027694
15330.0 0.00027634
15350.0 0.00027576
15370.0 0.00027519
15390.0 0.00027459
15410.0 0.00027401
15430.0 0.00027345
15450.0 0.00027287
15470.0 0.00027228
15490.0 0.00027173
15510.0 0.00027118
15530.0 0.0002706
15550.0 0.00027004
15570.0 0.0002695
15590.0 0.00026894
15610.0 0.00026837
15630.0 0.00026783
15650.0 0.00026728
15670.0 0.00026672
15690.0 0.00026618
15710.0 0.00026565
15730.0 0.0002651
15750.0 0.00026455
15770.0 0.00026402
15790.0 0.00026349
15810.0 0.00026293
15830.0 0.0002624
15850.0 0.00026188
15870.0 0.00026134
15890.0 0.0002608
15910.0 0.00026028
15930.0 0.00025976
15950.0 0.00025921
15970.0 0.00025868
15990.0 0.00025817
16010.0 0.00025763
16030.0 0.00025709
16050.0 0.00025658
16070.0 0.00025606
16090.0 0.00025552
16110.0 0.000255
16130.0 0.00025449
16150.0 0.00025394
16170.0 0.00025341
16190.0 0.0002529
16210.0 0.00025238
16230.0 0.00025184
16250.0 0.00025132
16270.0 0.00025081
16290.0 0.00025027
16310.0 0.00024974
16330.0 0.00024923
16350.0 0.0002487
16370.0 0.00024815
16390.0 0.00024763
16410.0 0.00024712
16430.0 0.00024658
16450.0 0.00024605
16470.0 0.00024554
16490.0 0.000245
16510.0 0.00024446
16530.0 0.00024393
16550.0 0.00024341
16570.0 0.00024286
16590.0 0.00024232
16610.0 0.0002418
16630.0 0.00024127
16650.0 0.00024072
16670.0 0.00024019
16690.0 0.00023967
16710.0 0.0002391
16730.0 0.00023856
16750.0 0.00023803
16770.0 0.00023748
16790.0 0.00023692
16810.0 0.00023639
16830.0 0.00023586
16850.0 0.0002353
16870.0 0.00023475
16890.0 0.00023421
16910.0 0.00023365
16930.0 0.00023308
16950.0 0.00023254
16970.0 0.00023199
16990.0 0.00023142
17010.0 0.00023086
17030.0 0.00023032
17050.0 0.00022975
17070.0 0.00022918
17090.0 0.00022863
17110.0 0.00022807
17130.0 0.00022748
17150.0 0.00022691
17170.0 0.00022636
17190.0 0.00022578
17210.0 0.0002252
17230.0 0.00022465
17250.0 0.00022407
17270.0 0.00022348
17290.0 0.0002229
17310.0 0.00022233
17330.0 0.00022174
17350.0 0.00022114
17370.0 0.00022058
17390.0 0.00022
17410.0 0.0002194
17430.0 0.00021882
17450.0 0.00021824
17470.0 0.00021763
17490.0 0.00021703
17510.0 0.00021645
17530.0 0.00021585
17550.0 0.00021524
17570.0 0.00021465
17590.0 0.00021407
17610.0 0.00021345
17630.0 0.00021284
17650.0 0.00021225
17670.0 0.00021165
17690.0 0.00021101
17710.0 0.00021042
17730.0 0.00020982
17750.0 0.0002092
17770.0 0.00020858
17790.0 0.00020799
17810.0 0.00020737
17830.0 0.00020674
17850.0 0.00020613
17870.0 0.00020552
17890.0 0.00020488
17910.0 0.00020425
17930.0 0.00020365
17950.0 0.00020302
17970.0 0.00020239
17990.0 0.00020178
18010.0 0.00020116
18030.0 0.00020051
18050.0 0.00019988
18070.0 0.00019926
18090.0 0.00019862
18110.0 0.00019798
18130.0 0.00019736
18150.0 0.00019673
18170.0 0.00019608
18190.0 0.00019545
18210.0 0.00019483
18230.0 0.00019418
18250.0 0.00019352
18270.0 0.0001929
18290.0 0.00019226
18310.0 0.00019161
18330.0 0.00019097
18350.0 0.00019034
18370.0 0.00018969
18390.0 0.00018904
18410.0 0.0001884
18430.0 0.00018776
18450.0 0.00018709
18470.0 0.00018645
18490.0 0.00018581
18510.0 0.00018516
18530.0 0.0001845
18550.0 0.00018387
18570.0 0.00018322
18590.0 0.00018255
18610.0 0.00018191
18630.0 0.00018126
18650.0 0.0001806
18670.0 0.00017994
18690.0 0.0001793
18710.0 0.00017865
18730.0 0.00017798
18750.0 0.00017734
18770.0 0.0001767
18790.0 0.00017602
18810.0 0.00017536
18830.0 0.00017472
18850.0 0.00017406
18870.0 0.00017339
18890.0 0.00017275
18910.0 0.0001721
18930.0 0.00017143
18950.0 0.00017077
18970.0 0.00017013
18990.0 0.00016947
19010.0 0.00016878
19030.0 0.00016814
19050.0 0.00016749
19070.0 0.00016682
19090.0 0.00016616
19110.0 0.00016553
19130.0 0.00016486
19150.0 0.00016419
19170.0 0.00016354
19190.0 0.00016289
19210.0 0.00016221
19230.0 0.00016155
19250.0 0.00016091
19270.0 0.00016025
19290.0 0.00015958
19310.0 0.00015894
19330.0 0.00015829
19350.0 0.00015761
19370.0 0.00015695
19390.0 0.00015631
19410.0 0.00015564
19430.0 0.00015497
19450.0 0.00015433
19470.0 0.00015368
19490.0 0.00015301
19510.0 0.00015236
19530.0 0.00015172
19550.0 0.00015105
19570.0 0.00015038
19590.0 0.00014974
19610.0 0.00014909
19630.0 0.00014842
19650.0 0.00014777
19670.0 0.00014713
19690.0 0.00014646
19710.0 0.0001458
19730.0 0.00014516
19750.0 0.00014451
19770.0 0.00014384
19790.0 0.00014319
19810.0 0.00014255
19830.0 0.00014189
19850.0 0.00014122
19870.0 0.00014057
19890.0 0.00013987
19910.0 0.0001391
19930.0 0.00013827
19950.0 0.00013733
19970.0 0.00013616
19990.0 0.00013476
20010.0 0.0001199
20030.0 0.00011816
20050.0 0.00011613
20070.0 0.00011393
20090.0 0.00011156
20110.0 0.00010889
20130.0 0.00010618
20150.0 0.00010349
20170.0 0.0001007
20190.0 9.788e-05
20210.0 9.5211e-05
20230.0 9.2609e-05
20250.0 9.0001e-05
20270.0 8.758e-05
20290.0 8.537e-05
20310.0 8.327e-05
20330.0 8.1308e-05
20350.0 7.9679e-05
20370.0 7.8232e-05
20390.0 7.6964e-05
20410.0 7.594e-05
20430.0 7.5151e-05
20450.0 7.4525e-05
20470.0 7.4106e-05
20490.0 7.3881e-05
20510.0 7.3816e-05
20530.0 7.3907e-05
20550.0 7.4135e-05
20570.0 7.4467e-05
20590.0 7.4917e-05
20610.0 7.5461e-05
20630.0 7.6061e-05
20650.0 7.6732e-05
20670.0 7.7498e-05
20690.0 7.8279e-05
20710.0 7.9088e-05
20730.0 7.9959e-05
20750.0 8.0869e-05
20770.0 8.1764e-05
20790.0 8.2704e-05
20810.0 8.3698e-05
20830.0 8.4687e-05
20850.0 8.568e-05
20870.0 8.6744e-05
20890.0 8.7829e-05
20910.0 8.8875e-05
20930.0 8.9961e-05
20950.0 9.1086e-05
20970.0 9.2183e-05
20990.0 9.3265e-05
21010.0 9.4403e-05
21030.0 9.5515e-05
21050.0 9.6577e-05
21070.0 9.7636e-05
21090.0 9.87e-05
21110.0 9.9669e-05
21130.0 0.00010058
21150.0 0.00010146
21170.0 0.00010226
21190.0 0.00010295
21210.0 0.00010357
21230.0 0.00010408
21250.0 0.00010445
21270.0 0.00010468
21290.0 0.00010477
21310.0 0.00010468
21330.0 0.00010444
21350.0 0.000104
21370.0 0.00010337
21390.0 0.00010256
21410.0 0.00010157
21430.0 0.00010031
21450.0 9.8902e-05
21470.0 9.7368e-05
21490.0 9.5632e-05
21510.0 9.3728e-05
21530.0 9.1794e-05
21550.0 8.9768e-05
21570.0 8.7607e-05
21590.0 8.5481e-05
21610.0 8.3428e-05
21630.0 8.1372e-05
21650.0 7.9363e-05
21670.0 7.7622e-05
21690.0 7.6016e-05
21710.0 7.457e-05
21730.0 7.3386e-05
21750.0 7.2472e-05
21770.0 7.1776e-05
21790.0 7.1375e-05
21810.0 7.1265e-05
21830.0 7.1422e-05
21850.0 7.1869e-05
21870.0 7.2565e-05
21890.0 7.3465e-05
21910.0 7.4618e-05
21930.0 7.5971e-05
21950.0 7.7437e-05
21970.0 7.9061e-05
21990.0 8.0883e-05
22010.0 8.2705e-05
22030.0 8.4555e-05
22050.0 8.6498e-05
22070.0 8.8451e-05
22090.0 9.03e-05
22110.0 9.2165e-05
22130.0 9.4027e-05
22150.0 9.5766e-05
22170.0 9.7405e-05
22190.0 9.9029e-05
22210.0 0.00010054
22230.0 0.00010187
22250.0 0.00010312
22270.0 0.00010428
22290.0 0.00010526
22310.0 0.00010611
22330.0 0.00010685
22350.0 0.00010743
22370.0 0.00010784
22390.0 0.00010809
22410.0 0.00010817
22430.0 0.00010807
22450.0 0.00010779
22470.0 0.00010731
22490.0 0.00010663
22510.0 0.00010579
22530.0 0.00010471
22550.0 0.0001034
22570.0 0.00010195
22590.0 0.00010031
22610.0 9.8423e-05
22630.0 9.638e-05
22650.0 9.427e-05
22670.0 9.1937e-05
22690.0 8.9445e-05
22710.0 8.6932e-05
22730.0 8.4342e-05
22750.0 8.1534e-05
22770.0 7.8789e-05
22790.0 7.611e-05
22810.0 7.3359e-05
22830.0 7.0615e-05
22850.0 6.8046e-05
22870.0 6.5528e-05
22890.0 6.3023e-05
22910.0 6.0715e-05
22930.0 5.86e-05
