#lamb flux
1010.0 0.00016444
1030.0 0.00016746
1050.0 0.00018001
1070.0 0.00019361
1090.0 0.00020824
1110.0 0.00022141
1130.0 0.0002329
1150.0 0.00024388
1170.0 0.00025416
1190.0 0.00026226
1210.0 0.00026998
1230.0 0.00027793
1250.0 0.00028535
1270.0 0.00029246
1290.0 0.000301
1310.0 0.00031021
1330.0 0.00031972
1350.0 0.00033065
1370.0 0.00034357
1390.0 0.00035782
1410.0 0.00037361
1430.0 0.00039234
1450.0 0.00041362
1470.0 0.00043718
1490.0 0.00046403
1510.0 0.00049527
1530.0 0.00052936
1550.0 0.00056729
1570.0 0.00061026
1590.0 0.00065804
1610.0 0.00070994
1630.0 0.00076772
1650.0 0.00083168
1670.0 0.0009006
1690.0 0.00097494
1710.0 0.001056
1730.0 0.001143
1750.0 0.0012336
1770.0 0.0013299
1790.0 0.0014313
1810.0 0.0015352
1830.0 0.0016412
1850.0 0.0017512
1870.0 0.0018609
1890.0 0.0019686
1910.0 0.0020751
1930.0 0.0021795
1950.0 0.0022772
1970.0 0.0023686
1990.0 0.0024547
2010.0 0.002532
2030.0 0.0025988
2050.0 0.0026576
2070.0 0.0027078
2090.0 0.0027451
2110.0 0.0027722
2130.0 0.0027909
2150.0 0.0027992
2170.0 0.0027969
2190.0 0.0027881
2210.0 0.0027722
2230.0 0.0027483
2250.0 0.0027188
2270.0 0.0026865
2290.0 0.0026494
2310.0 0.0026083
2330.0 0.0025666
2350.0 0.0025244
2370.0 0.0024807
2390.0 0.0024384
2410.0 0.0023996
2430.0 0.0023627
2450.0 0.002329
2470.0 0.0023014
2490.0 0.0022811
2510.0 0.0022672
2530.0 0.0022665
2550.0 0.0022881
2570.0 0.0023395
2590.0 0.002431
2610.0 0.002593
2630.0 0.0028318
2650.0 0.0031363
2670.0 0.0035161
2690.0 0.003967
2710.0 0.0044384
2730.0 0.0049097
2750.0 0.0054011
2770.0 0.0058822
2790.0 0.0063441
2810.0 0.0068189
2830.0 0.007336
2850.0 0.0078564
2870.0 0.0084068
2890.0 0.0090116
2910.0 0.0096545
2930.0 0.010313
2950.0 0.011028
2970.0 0.011795
2990.0 0.012582
3010.0 0.013404
3030.0 0.014286
3050.0 0.015201
3070.0 0.016101
3090.0 0.017013
3110.0 0.017887
3130.0 0.01865
3150.0 0.019267
3170.0 0.019685
3190.0 0.019877
3210.0 0.019894
3230.0 0.019782
3250.0 0.019636
3270.0 0.019594
3290.0 0.019682
3310.0 0.019909
3330.0 0.02028
3350.0 0.020742
3370.0 0.021291
3390.0 0.022007
3410.0 0.02263
3430.0 0.02324
3450.0 0.023846
3470.0 0.024571
3490.0 0.026376
3510.0 0.030731
3530.0 0.036911
3550.0 0.042626
3570.0 0.04645
3590.0 0.048362
3610.0 0.048125
3630.0 0.046844
3650.0 0.050419
3670.0 0.059395
3690.0 0.067046
3710.0 0.071841
3730.0 0.076161
3750.0 0.0805
3770.0 0.07944
3790.0 0.074403
3810.0 0.069363
3830.0 0.064843
3850.0 0.064292
3870.0 0.069774
3890.0 0.075771
3910.0 0.079791
3930.0 0.083332
3950.0 0.092002
3970.0 0.099533
3990.0 0.095053
4010.0 0.083214
4030.0 0.072645
4050.0 0.069521
4070.0 0.070239
4090.0 0.069421
4110.0 0.068176
4130.0 0.067161
4150.0 0.067609
4170.0 0.072856
4190.0 0.079784
4210.0 0.079315
4230.0 0.075692
4250.0 0.074351
4270.0 0.075269
4290.0 0.079431
4310.0 0.083513
4330.0 0.079632
4350.0 0.069057
4370.0 0.060401
4390.0 0.053866
4410.0 0.048304
4430.0 0.04791
4450.0 0.051742
4470.0 0.055097
4490.0 0.059397
4510.0 0.068044
4530.0 0.086884
4550.0 0.11277
4570.0 0.12862
4590.0 0.13741
4610.0 0.15259
4630.0 0.16444
4650.0 0.1546
4670.0 0.12723
4690.0 0.10348
4710.0 0.092484
4730.0 0.088935
4750.0 0.082564
4770.0 0.077023
4790.0 0.081084
4810.0 0.08881
4830.0 0.090146
4850.0 0.084576
4870.0 0.083153
4890.0 0.089351
4910.0 0.095167
4930.0 0.096344
4950.0 0.093439
4970.0 0.087316
4990.0 0.078497
5010.0 0.07077
5030.0 0.066151
5050.0 0.063831
5070.0 0.061948
5090.0 0.059777
5110.0 0.058978
5130.0 0.059082
5150.0 0.06128
5170.0 0.067862
5190.0 0.07678
5210.0 0.086846
5230.0 0.093658
5250.0 0.097339
5270.0 0.1025
5290.0 0.10896
5310.0 0.11157
5330.0 0.10764
5350.0 0.10138
5370.0 0.10061
5390.0 0.10717
5410.0 0.11662
5430.0 0.12312
5450.0 0.12514
5470.0 0.12323
5490.0 0.11879
5510.0 0.11517
5530.0 0.11352
5550.0 0.11302
5570.0 0.11199
5590.0 0.10907
5610.0 0.10433
5630.0 0.097081
5650.0 0.08854
5670.0 0.082786
5690.0 0.080346
5710.0 0.079223
5730.0 0.078342
5750.0 0.076784
5770.0 0.075083
5790.0 0.074821
5810.0 0.074548
5830.0 0.074611
5850.0 0.07469
5870.0 0.072812
5890.0 0.069554
5910.0 0.065228
5930.0 0.058483
5950.0 0.052362
5970.0 0.050042
5990.0 0.050911
6010.0 0.051727
6030.0 0.050038
6050.0 0.048172
6070.0 0.049981
6090.0 0.054196
6110.0 0.056743
6130.0 0.055554
6150.0 0.052565
6170.0 0.05043
6190.0 0.048613
6210.0 0.045821
6230.0 0.042352
6250.0 0.040366
6270.0 0.040794
6290.0 0.0418
6310.0 0.044032
6330.0 0.047988
6350.0 0.05252
6370.0 0.05521
6390.0 0.056165
6410.0 0.057046
6430.0 0.057807
6450.0 0.058711
6470.0 0.060002
6490.0 0.061368
6510.0 0.062482
6530.0 0.062762
6550.0 0.062292
6570.0 0.060477
6590.0 0.057383
6610.0 0.055085
6630.0 0.053821
6650.0 0.052103
6670.0 0.049642
6690.0 0.047477
6710.0 0.0464
6730.0 0.045701
6750.0 0.044917
6770.0 0.044248
6790.0 0.043613
6810.0 0.042567
6830.0 0.041843
6850.0 0.042744
6870.0 0.043476
6890.0 0.042952
6910.0 0.042117
6930.0 0.041399
6950.0 0.040449
6970.0 0.038902
6990.0 0.037421
7010.0 0.036691
7030.0 0.036211
7050.0 0.034908
7070.0 0.033003
7090.0 0.032365
7110.0 0.033464
7130.0 0.035651
7150.0 0.037842
7170.0 0.039324
7190.0 0.039257
7210.0 0.037656
7230.0 0.036596
7250.0 0.036809
7270.0 0.036722
7290.0 0.036413
7310.0 0.036835
7330.0 0.038089
7350.0 0.039755
7370.0 0.040791
7390.0 0.040911
7410.0 0.040355
7430.0 0.039137
7450.0 0.037571
7470.0 0.036044
7490.0 0.034801
7510.0 0.033856
7530.0 0.03354
7550.0 0.033843
7570.0 0.034252
7590.0 0.034763
7610.0 0.034841
7630.0 0.034808
7650.0 0.035543
7670.0 0.036802
7690.0 0.038143
7710.0 0.039458
7730.0 0.040624
7750.0 0.041956
7770.0 0.043158
7790.0 0.044099
7810.0 0.044521
7830.0 0.044266
7850.0 0.043188
7870.0 0.041355
7890.0 0.039463
7910.0 0.038474
7930.0 0.037915
7950.0 0.037213
7970.0 0.036703
7990.0 0.036801
8010.0 0.035042
8030.0 0.034813
8050.0 0.0345
8070.0 0.034039
8090.0 0.033579
8110.0 0.033611
8130.0 0.033832
8150.0 0.033757
8170.0 0.033553
8190.0 0.032705
8210.0 0.030881
8230.0 0.028999
8250.0 0.028001
8270.0 0.027096
8290.0 0.025884
8310.0 0.02504
8330.0 0.024657
8350.0 0.024045
8370.0 0.024031
8390.0 0.025157
8410.0 0.02679
8430.0 0.028747
8450.0 0.030918
8470.0 0.032407
8490.0 0.033829
8510.0 0.03502
8530.0 0.036187
8550.0 0.03724
8570.0 0.038011
8590.0 0.038676
8610.0 0.039727
8630.0 0.040168
8650.0 0.039481
8670.0 0.039606
8690.0 0.040555
8710.0 0.041623
8730.0 0.041797
8750.0 0.040981
8770.0 0.040781
8790.0 0.040716
8810.0 0.039998
8830.0 0.037329
8850.0 0.034
8870.0 0.031625
8890.0 0.030558
8910.0 0.02913
8930.0 0.027137
8950.0 0.025722
8970.0 0.025445
8990.0 0.02577
9010.0 0.025797
9030.0 0.025586
9050.0 0.025401
9070.0 0.025256
9090.0 0.025117
9110.0 0.024981
9130.0 0.024844
9150.0 0.024709
9170.0 0.024575
9190.0 0.024442
9210.0 0.024312
9230.0 0.024179
9250.0 0.024048
9270.0 0.023918
9290.0 0.02379
9310.0 0.023662
9330.0 0.023535
9350.0 0.023409
9370.0 0.023284
9390.0 0.02316
9410.0 0.023037
9430.0 0.022911
9450.0 0.022774
9470.0 0.022641
9490.0 0.022536
9510.0 0.022424
9530.0 0.022312
9550.0 0.022197
9570.0 0.022081
9590.0 0.021967
9610.0 0.021852
9630.0 0.021737
9650.0 0.021623
9670.0 0.021512
9690.0 0.021399
9710.0 0.021287
9730.0 0.021177
9750.0 0.021067
9770.0 0.020956
9790.0 0.020846
9810.0 0.020738
9830.0 0.020628
9850.0 0.020513
9870.0 0.020408
9890.0 0.020303
9910.0 0.020197
9930.0 0.020091
9950.0 0.019983
9970.0 0.019877
9990.0 0.019769
10010.0 0.019654
10030.0 0.019544
10050.0 0.019444
10070.0 0.019343
10090.0 0.019242
10110.0 0.01913
10130.0 0.01898
10150.0 0.018883
10170.0 0.018793
10190.0 0.018693
10210.0 0.018595
10230.0 0.018496
10250.0 0.018388
10270.0 0.018281
10290.0 0.018177
10310.0 0.018068
10330.0 0.017954
10350.0 0.017846
10370.0 0.017738
10390.0 0.017625
10410.0 0.017511
10430.0 0.017404
10450.0 0.017291
10470.0 0.017175
10490.0 0.017062
10510.0 0.01695
10530.0 0.016829
10550.0 0.016711
10570.0 0.016597
10590.0 0.016478
10610.0 0.016356
10630.0 0.016239
10650.0 0.01612
10670.0 0.015993
10690.0 0.015869
10710.0 0.015748
10730.0 0.015622
10750.0 0.015489
10770.0 0.015366
10790.0 0.015239
10810.0 0.015106
10830.0 0.014975
10850.0 0.014849
10870.0 0.014712
10890.0 0.014574
10910.0 0.014442
10930.0 0.014308
10950.0 0.014169
10970.0 0.014035
10990.0 0.013907
11010.0 0.013254
11030.0 0.013114
11050.0 0.012983
11070.0 0.012856
11090.0 0.012726
11110.0 0.012608
11130.0 0.012498
11150.0 0.01239
11170.0 0.012289
11190.0 0.012199
11210.0 0.012114
11230.0 0.012035
11250.0 0.011965
11270.0 0.011905
11290.0 0.011848
11310.0 0.011799
11330.0 0.011757
11350.0 0.01172
11370.0 0.011685
11390.0 0.011654
11410.0 0.011625
11430.0 0.011594
11450.0 0.011564
11470.0 0.011532
11490.0 0.011497
11510.0 0.011456
11530.0 0.011413
11550.0 0.011365
11570.0 0.01131
11590.0 0.011249
11610.0 0.011183
11630.0 0.011107
11650.0 0.011022
11670.0 0.010932
11690.0 0.010835
11710.0 0.010725
11730.0 0.010607
11750.0 0.010486
11770.0 0.010352
11790.0 0.010206
11810.0 0.010058
11830.0 0.0099023
11850.0 0.0097319
11870.0 0.0095606
11890.0 0.009391
11910.0 0.0092137
11930.0 0.0090334
11950.0 0.0088607
11970.0 0.0086887
11990.0 0.0085134
12010.0 0.0083475
12030.0 0.0081908
12050.0 0.0080361
12070.0 0.0078856
12090.0 0.0077511
12110.0 0.0076223
12130.0 0.0074981
12150.0 0.0073849
12170.0 0.0072831
12190.0 0.0071847
12210.0 0.007097
12230.0 0.0070218
12250.0 0.0069556
12270.0 0.006898
12290.0 0.006852
12310.0 0.0068163
12330.0 0.0067886
12350.0 0.0067699
12370.0 0.0067589
12390.0 0.0067545
12410.0 0.0067566
12430.0 0.0067627
12450.0 0.0067722
12470.0 0.006785
12490.0 0.0067997
12510.0 0.0068142
12530.0 0.0068298
12550.0 0.0068456
12570.0 0.0068593
12590.0 0.0068707
12610.0 0.0068801
12630.0 0.0068855
12650.0 0.0068854
12670.0 0.0068803
12690.0 0.0068689
12710.0 0.0068506
12730.0 0.0068254
12750.0 0.0067915
12770.0 0.0067502
12790.0 0.0067028
12810.0 0.0066479
12830.0 0.0065856
12850.0 0.0065208
12870.0 0.0064528
12890.0 0.0063799
12910.0 0.0063064
12930.0 0.0062345
12950.0 0.0061608
12970.0 0.0060873
12990.0 0.0060187
13010.0 0.0059523
13030.0 0.0058867
13050.0 0.0058248
13070.0 0.0057675
13090.0 0.005711
13110.0 0.0056567
13130.0 0.0056064
13150.0 0.0055584
13170.0 0.005511
13190.0 0.0054671
13210.0 0.0054266
13230.0 0.0053872
13250.0 0.0053496
13270.0 0.0053152
13290.0 0.0052821
13310.0 0.0052496
13330.0 0.0052191
13350.0 0.0051897
13370.0 0.00516
13390.0 0.0051298
13410.0 0.0051003
13430.0 0.0050695
13450.0 0.0050365
13470.0 0.0050024
13490.0 0.0049671
13510.0 0.0049278
13530.0 0.0048863
13550.0 0.0048438
13570.0 0.0047987
13590.0 0.0047503
13610.0 0.0047013
13630.0 0.0046521
13650.0 0.0045998
13670.0 0.004547
13690.0 0.0044952
13710.0 0.0044426
13730.0 0.0043875
13750.0 0.0043356
13770.0 0.0042844
13790.0 0.0042323
13810.0 0.0041811
13830.0 0.0041327
13850.0 0.0040838
13870.0 0.0040352
13890.0 0.0039895
13910.0 0.0039458
13930.0 0.0039022
13950.0 0.0038609
13970.0 0.0038236
13990.0 0.0037874
14010.0 0.003753
14030.0 0.003722
14050.0 0.0036932
14070.0 0.003665
14090.0 0.0036395
14110.0 0.0036163
14130.0 0.003594
14150.0 0.0035726
14170.0 0.0035531
14190.0 0.0035344
14210.0 0.0035158
14230.0 0.0034979
14250.0 0.003481
14270.0 0.0034636
14290.0 0.0034462
14310.0 0.0034297
14330.0 0.0034131
14350.0 0.0033961
14370.0 0.0033795
14390.0 0.0033635
14410.0 0.0033469
14430.0 0.0033304
14450.0 0.0033147
14470.0 0.0032992
14490.0 0.0032832
14510.0 0.0032681
14530.0 0.0032537
14550.0 0.0032388
14570.0 0.0032237
14590.0 0.003209
14610.0 0.0031936
14630.0 0.0031769
14650.0 0.0031603
14670.0 0.0031436
14690.0 0.0031261
14710.0 0.0031088
14730.0 0.0030937
14750.0 0.00308
14770.0 0.003069
14790.0 0.0030622
14810.0 0.0030604
14830.0 0.0030645
14850.0 0.0030756
14870.0 0.0030934
14890.0 0.0031183
14910.0 0.0031502
14930.0 0.0031859
14950.0 0.0032231
14970.0 0.0032619
14990.0 0.0032976
15010.0 0.0033279
15030.0 0.0033532
15050.0 0.0033732
15070.0 0.0033871
15090.0 0.0033972
15110.0 0.0034047
15130.0 0.0034104
15150.0 0.0034153
15170.0 0.0034197
15190.0 0.0034239
15210.0 0.0034282
15230.0 0.0034325
15250.0 0.0034369
15270.0 0.0034414
15290.0 0.0034461
15310.0 0.0034509
15330.0 0.0034557
15350.0 0.0034607
15370.0 0.0034658
15390.0 0.0034709
15410.0 0.0034762
15430.0 0.0034816
15450.0 0.0034871
15470.0 0.0034926
15490.0 0.0034983
15510.0 0.0035041
15530.0 0.00351
15550.0 0.0035159
15570.0 0.003522
15590.0 0.0035281
15610.0 0.0035343
15630.0 0.0035406
15650.0 0.003547
15670.0 0.0035535
15690.0 0.00356
15710.0 0.0035667
15730.0 0.0035734
15750.0 0.0035802
15770.0 0.0035871
15790.0 0.003594
15810.0 0.003601
15830.0 0.003608
15850.0 0.0036152
15870.0 0.0036224
15890.0 0.0036297
15910.0 0.0036371
15930.0 0.0036445
15950.0 0.0036519
15970.0 0.0036594
15990.0 0.003667
16010.0 0.0036746
16030.0 0.0036822
16050.0 0.0036899
16070.0 0.0036977
16090.0 0.0037055
16110.0 0.0037133
16130.0 0.0037212
16150.0 0.0037291
16170.0 0.003737
16190.0 0.003745
16210.0 0.003753
16230.0 0.003761
16250.0 0.0037691
16270.0 0.0037772
16290.0 0.0037853
16310.0 0.0037934
16330.0 0.0038015
16350.0 0.0038097
16370.0 0.0038178
16390.0 0.0038259
16410.0 0.0038341
16430.0 0.0038422
16450.0 0.0038504
16470.0 0.0038586
16490.0 0.0038667
16510.0 0.0038748
16530.0 0.0038829
16550.0 0.0038911
16570.0 0.0038991
16590.0 0.0039072
16610.0 0.0039152
16630.0 0.0039233
16650.0 0.0039312
16670.0 0.0039392
16690.0 0.0039471
16710.0 0.003955
16730.0 0.0039628
16750.0 0.0039706
16770.0 0.0039784
16790.0 0.003986
16810.0 0.0039937
16830.0 0.0040013
16850.0 0.0040088
16870.0 0.0040163
16890.0 0.0040237
16910.0 0.004031
16930.0 0.0040383
16950.0 0.0040455
16970.0 0.0040526
16990.0 0.0040596
17010.0 0.0040666
17030.0 0.0040735
17050.0 0.0040803
17070.0 0.0040869
17090.0 0.0040936
17110.0 0.0041001
17130.0 0.0041064
17150.0 0.0041127
17170.0 0.004119
17190.0 0.004125
17210.0 0.004131
17230.0 0.0041369
17250.0 0.0041426
17270.0 0.0041482
17290.0 0.0041537
17310.0 0.0041591
17330.0 0.0041644
17350.0 0.0041694
17370.0 0.0041745
17390.0 0.0041793
17410.0 0.004184
17430.0 0.0041886
17450.0 0.004193
17470.0 0.0041972
17490.0 0.0042013
17510.0 0.0042053
17530.0 0.0042092
17550.0 0.0042128
17570.0 0.0042163
17590.0 0.0042197
17610.0 0.0042228
17630.0 0.0042258
17650.0 0.0042287
17670.0 0.0042313
17690.0 0.0042337
17710.0 0.0042361
17730.0 0.0042382
17750.0 0.0042402
17770.0 0.0042419
17790.0 0.0042436
17810.0 0.004245
17830.0 0.0042461
17850.0 0.0042472
17870.0 0.004248
17890.0 0.0042486
17910.0 0.0042491
17930.0 0.0042494
17950.0 0.0042494
17970.0 0.0042492
17990.0 0.0042489
18010.0 0.0042484
18030.0 0.0042476
18050.0 0.0042466
18070.0 0.0042455
18090.0 0.0042441
18110.0 0.0042425
18130.0 0.0042407
18150.0 0.0042387
18170.0 0.0042365
18190.0 0.004234
18210.0 0.0042314
18230.0 0.0042285
18250.0 0.0042254
18270.0 0.0042222
18290.0 0.0042187
18310.0 0.0042149
18330.0 0.004211
18350.0 0.0042069
18370.0 0.0042025
18390.0 0.0041979
18410.0 0.0041931
18430.0 0.0041881
18450.0 0.0041828
18470.0 0.0041773
18490.0 0.0041717
18510.0 0.0041657
18530.0 0.0041596
18550.0 0.0041533
18570.0 0.0041468
18590.0 0.00414
18610.0 0.004133
18630.0 0.0041258
18650.0 0.0041184
18670.0 0.0041107
18690.0 0.0041029
18710.0 0.0040949
18730.0 0.0040866
18750.0 0.0040781
18770.0 0.0040695
18790.0 0.0040605
18810.0 0.0040514
18830.0 0.0040421
18850.0 0.0040326
18870.0 0.0040228
18890.0 0.0040129
18910.0 0.0040029
18930.0 0.0039925
18950.0 0.003982
18970.0 0.0039713
18990.0 0.0039604
19010.0 0.0039492
19030.0 0.0039379
19050.0 0.0039265
19070.0 0.0039148
19090.0 0.0039029
19110.0 0.0038909
19130.0 0.0038787
19150.0 0.0038663
19170.0 0.0038537
19190.0 0.003841
19210.0 0.003828
19230.0 0.0038149
19250.0 0.0038017
19270.0 0.0037882
19290.0 0.0037746
19310.0 0.0037609
19330.0 0.003747
19350.0 0.0037328
19370.0 0.0037186
19390.0 0.0037042
19410.0 0.0036897
19430.0 0.003675
19450.0 0.0036602
19470.0 0.0036452
19490.0 0.0036301
19510.0 0.0036149
19530.0 0.0035995
19550.0 0.003584
19570.0 0.0035683
19590.0 0.0035526
19610.0 0.0035367
19630.0 0.0035207
19650.0 0.0035046
19670.0 0.0034884
19690.0 0.003472
19710.0 0.0034556
19730.0 0.0034391
19750.0 0.0034224
19770.0 0.0034056
19790.0 0.0033888
19810.0 0.0033718
19830.0 0.0033547
19850.0 0.0033374
19870.0 0.0033198
19890.0 0.0033015
19910.0 0.0032821
19930.0 0.0032612
19950.0 0.003238
19970.0 0.0032111
19990.0 0.00318
20010.0 0.0031453
20030.0 0.0031053
20050.0 0.0030605
20070.0 0.003013
20090.0 0.0029633
20110.0 0.0029096
20130.0 0.0028561
20150.0 0.0028038
20170.0 0.0027507
20190.0 0.0026976
20210.0 0.002647
20230.0 0.0025973
20250.0 0.0025474
20270.0 0.0024997
20290.0 0.0024542
20310.0 0.0024095
20330.0 0.0023655
20350.0 0.0023254
20370.0 0.0022866
20390.0 0.0022491
20410.0 0.0022141
20430.0 0.0021817
20450.0 0.0021503
20470.0 0.002121
20490.0 0.0020943
20510.0 0.0020694
20530.0 0.002046
20550.0 0.0020247
20570.0 0.0020053
20590.0 0.0019871
20610.0 0.0019704
20630.0 0.001955
20650.0 0.0019407
20670.0 0.0019273
20690.0 0.0019147
20710.0 0.0019026
20730.0 0.001891
20750.0 0.0018796
20770.0 0.0018682
20790.0 0.0018568
20810.0 0.0018451
20830.0 0.0018331
20850.0 0.0018205
20870.0 0.0018074
20890.0 0.0017935
20910.0 0.001779
20930.0 0.0017636
20950.0 0.0017474
20970.0 0.0017305
20990.0 0.0017129
21010.0 0.0016942
21030.0 0.0016749
21050.0 0.0016551
21070.0 0.0016347
21090.0 0.0016133
21110.0 0.001592
21130.0 0.0015704
21150.0 0.0015482
21170.0 0.0015259
21190.0 0.0015039
21210.0 0.0014814
21230.0 0.0014588
21250.0 0.0014367
21270.0 0.0014148
21290.0 0.0013927
21310.0 0.0013711
21330.0 0.0013503
21350.0 0.0013295
21370.0 0.001309
21390.0 0.0012893
21410.0 0.0012702
21430.0 0.0012511
21450.0 0.001233
21470.0 0.0012157
21490.0 0.0011988
21510.0 0.0011826
21530.0 0.0011672
21550.0 0.0011525
21570.0 0.0011382
21590.0 0.0011247
21610.0 0.0011118
21630.0 0.0010994
21650.0 0.0010874
21670.0 0.0010761
21690.0 0.0010651
21710.0 0.0010544
21730.0 0.001044
21750.0 0.0010339
21770.0 0.0010238
21790.0 0.001014
21810.0 0.0010042
21830.0 0.0009945
21850.0 0.00098474
21870.0 0.00097501
21890.0 0.0009653
21910.0 0.00095546
21930.0 0.00094555
21950.0 0.00093563
21970.0 0.0009256
21990.0 0.00091534
22010.0 0.0009051
22030.0 0.00089478
22050.0 0.00088426
22070.0 0.0008736
22090.0 0.00086297
22110.0 0.00085214
22130.0 0.00084107
22150.0 0.00083
22170.0 0.00081885
22190.0 0.00080738
22210.0 0.00079579
22230.0 0.00078432
22250.0 0.00077263
22270.0 0.00076072
22290.0 0.0007489
22310.0 0.00073708
22330.0 0.0007249
22350.0 0.00071277
22370.0 0.00070079
22390.0 0.00068866
22410.0 0.00067634
22430.0 0.00066435
22450.0 0.00065243
22470.0 0.00064034
22490.0 0.00062841
22510.0 0.0006168
22530.0 0.00060506
22550.0 0.00059335
22570.0 0.0005821
22590.0 0.00057104
22610.0 0.00056001
22630.0 0.00054932
22650.0 0.00053915
22670.0 0.00052906
22690.0 0.00051925
22710.0 0.00050995
22730.0 0.00050101
22750.0 0.00049219
22770.0 0.00048392
22790.0 0.00047613
22810.0 0.0004686
22830.0 0.00046141
22850.0 0.00045471
22870.0 0.00044832
22890.0 0.00044216
22910.0 0.0004364
22930.0 0.00043096
22950.0 0.00042574
22970.0 0.00042075
22990.0 0.00041608
23010.0 0.00041158
23030.0 0.00040724
23050.0 0.00040308
23070.0 0.00039906
23090.0 0.00039511
23110.0 0.00039125
23130.0 0.00038746
23150.0 0.00038369
23170.0 0.0003799
23190.0 0.0003761
23210.0 0.00037226
23230.0 0.00036833
23250.0 0.00036431
23270.0 0.0003602
23290.0 0.00035594
23310.0 0.00035147
23330.0 0.00034691
23350.0 0.00034221
23370.0 0.0003373
23390.0 0.00033224
23410.0 0.00032716
23430.0 0.00032192
23450.0 0.00031655
23470.0 0.00031124
23490.0 0.00030597
23510.0 0.00030064
23530.0 0.00029545
23550.0 0.00029053
23570.0 0.00028574
23590.0 0.00028115
23610.0 0.0002769
23630.0 0.00027297
23650.0 0.00026931
23670.0 0.00026606
23690.0 0.00026324
23710.0 0.00026081
23730.0 0.00025885
23750.0 0.00025734
23770.0 0.00025628
23790.0 0.00025575
23810.0 0.00025569
23830.0 0.00025601
23850.0 0.00025692
23870.0 0.00025835
23890.0 0.00026003
23910.0 0.00026208
23930.0 0.00026459
23950.0 0.00026726
23970.0 0.00026991
23990.0 0.00027283
24010.0 0.00027578
24030.0 0.00027847
24050.0 0.00028101
24070.0 0.00028357
24090.0 0.00028563
24110.0 0.00028728
24130.0 0.00028872
24150.0 0.00028984
24170.0 0.0002905
24190.0 0.00029091
24210.0 0.00029114
