#lamb flux
1010.0 0.0012248
1030.0 0.0016323
1050.0 0.0021467
1070.0 0.0027827
1090.0 0.0035707
1110.0 0.0044727
1130.0 0.0054808
1150.0 0.0066245
1170.0 0.0078959
1190.0 0.009215
1210.0 0.010621
1230.0 0.012111
1250.0 0.013607
1270.0 0.015062
1290.0 0.016527
1310.0 0.017908
1330.0 0.019119
1350.0 0.020181
1370.0 0.021089
1390.0 0.021756
1410.0 0.022165
1430.0 0.022389
1450.0 0.022384
1470.0 0.022134
1490.0 0.021703
1510.0 0.021161
1530.0 0.020443
1550.0 0.01961
1570.0 0.018722
1590.0 0.017784
1610.0 0.0168
1630.0 0.015835
1650.0 0.014899
1670.0 0.013979
1690.0 0.013099
1710.0 0.012284
1730.0 0.011524
1750.0 0.01081
1770.0 0.010164
1790.0 0.0095801
1810.0 0.0090441
1830.0 0.0085585
1850.0 0.0081343
1870.0 0.007751
1890.0 0.0074058
1910.0 0.0071048
1930.0 0.0068452
1950.0 0.0066148
1970.0 0.0064175
1990.0 0.0062581
2010.0 0.0061289
2030.0 0.006028
2050.0 0.0059635
2070.0 0.0059357
2090.0 0.0059373
2110.0 0.0059768
2130.0 0.0060602
2150.0 0.0061858
2170.0 0.0063548
2190.0 0.0065794
2210.0 0.0068611
2230.0 0.007199
2250.0 0.0076013
2270.0 0.0080783
2290.0 0.0086252
2310.0 0.0092436
2330.0 0.0099458
2350.0 0.010732
2370.0 0.011594
2390.0 0.012541
2410.0 0.013579
2430.0 0.014691
2450.0 0.015877
2470.0 0.017143
2490.0 0.01849
2510.0 0.019902
2530.0 0.021418
2550.0 0.023101
2570.0 0.025012
2590.0 0.027254
2610.0 0.030125
2630.0 0.033821
2650.0 0.038426
2670.0 0.044268
2690.0 0.051642
2710.0 0.060198
2730.0 0.06968
2750.0 0.080343
2770.0 0.091319
2790.0 0.10177
2810.0 0.1116
2830.0 0.12065
2850.0 0.12795
2870.0 0.13394
2890.0 0.13898
2910.0 0.14309
2930.0 0.14637
2950.0 0.14926
2970.0 0.1518
2990.0 0.15391
3010.0 0.15569
3030.0 0.1573
3050.0 0.15862
3070.0 0.15949
3090.0 0.16015
3110.0 0.16051
3130.0 0.16043
3150.0 0.16072
3170.0 0.16065
3190.0 0.16037
3210.0 0.15991
3230.0 0.15916
3250.0 0.15694
3270.0 0.15283
3290.0 0.14946
3310.0 0.14863
3330.0 0.14874
3350.0 0.14848
3370.0 0.1475
3390.0 0.1459
3410.0 0.14399
3430.0 0.14199
3450.0 0.14123
3470.0 0.14356
3490.0 0.14305
3510.0 0.13674
3530.0 0.13916
3550.0 0.1503
3570.0 0.1891
3590.0 0.21527
3610.0 0.23553
3630.0 0.2594
3650.0 0.25199
3670.0 0.22118
3690.0 0.19504
3710.0 0.18751
3730.0 0.19438
3750.0 0.19888
3770.0 0.20189
3790.0 0.20358
3810.0 0.20604
3830.0 0.19019
3850.0 0.1688
3870.0 0.15945
3890.0 0.1673
3910.0 0.17315
3930.0 0.17344
3950.0 0.17949
3970.0 0.18863
3990.0 0.19187
4010.0 0.195
4030.0 0.1894
4050.0 0.18442
4070.0 0.18142
4090.0 0.18286
4110.0 0.18356
4130.0 0.17997
4150.0 0.17375
4170.0 0.17189
4190.0 0.17079
4210.0 0.16098
4230.0 0.14899
4250.0 0.1345
4270.0 0.1206
4290.0 0.11441
4310.0 0.11097
4330.0 0.11471
4350.0 0.12592
4370.0 0.13319
4390.0 0.14629
4410.0 0.15705
4430.0 0.16119
4450.0 0.15241
4470.0 0.14267
4490.0 0.14037
4510.0 0.13893
4530.0 0.13902
4550.0 0.1385
4570.0 0.14036
4590.0 0.14481
4610.0 0.14832
4630.0 0.15166
4650.0 0.15355
4670.0 0.15251
4690.0 0.1443
4710.0 0.13683
4730.0 0.13142
4750.0 0.12757
4770.0 0.12299
4790.0 0.12225
4810.0 0.12014
4830.0 0.12651
4850.0 0.12153
4870.0 0.12753
4890.0 0.12085
4910.0 0.11299
4930.0 0.10722
4950.0 0.097752
4970.0 0.088534
4990.0 0.084323
5010.0 0.079243
5030.0 0.079401
5050.0 0.080302
5070.0 0.085205
5090.0 0.088403
5110.0 0.092207
5130.0 0.094579
5150.0 0.095803
5170.0 0.095259
5190.0 0.095888
5210.0 0.095229
5230.0 0.093231
5250.0 0.094248
5270.0 0.09823
5290.0 0.097044
5310.0 0.094197
5330.0 0.090716
5350.0 0.086396
5370.0 0.08392
5390.0 0.081082
5410.0 0.082524
5430.0 0.081736
5450.0 0.080665
5470.0 0.080199
5490.0 0.084783
5510.0 0.087238
5530.0 0.085692
5550.0 0.086389
5570.0 0.0875
5590.0 0.088194
5610.0 0.086029
5630.0 0.084359
5650.0 0.081993
5670.0 0.08219
5690.0 0.079398
5710.0 0.078855
5730.0 0.077956
5750.0 0.076469
5770.0 0.075059
5790.0 0.07225
5810.0 0.070072
5830.0 0.070414
5850.0 0.070797
5870.0 0.070416
5890.0 0.070618
5910.0 0.071945
5930.0 0.073276
5950.0 0.072642
5970.0 0.074037
5990.0 0.07441
6010.0 0.074294
6030.0 0.073404
6050.0 0.071569
6070.0 0.071955
6090.0 0.072699
6110.0 0.071133
6130.0 0.069167
6150.0 0.067114
6170.0 0.064287
6190.0 0.060106
6210.0 0.059661
6230.0 0.059086
6250.0 0.058322
6270.0 0.059427
6290.0 0.060258
6310.0 0.060548
6330.0 0.061299
6350.0 0.061668
6370.0 0.06116
6390.0 0.058677
6410.0 0.057814
6430.0 0.056665
6450.0 0.055294
6470.0 0.054485
6490.0 0.054859
6510.0 0.054119
6530.0 0.054058
6550.0 0.053249
6570.0 0.052548
6590.0 0.052397
6610.0 0.051704
6630.0 0.051404
6650.0 0.050753
6670.0 0.04957
6690.0 0.047508
6710.0 0.046213
6730.0 0.045866
6750.0 0.04592
6770.0 0.046413
6790.0 0.04495
6810.0 0.044823
6830.0 0.044159
6850.0 0.043448
6870.0 0.042265
6890.0 0.041614
6910.0 0.041907
6930.0 0.040773
6950.0 0.041412
6970.0 0.040906
6990.0 0.040632
7010.0 0.039332
7030.0 0.039382
7050.0 0.039176
7070.0 0.037624
7090.0 0.035672
7110.0 0.035598
7130.0 0.036065
7150.0 0.036075
7170.0 0.036449
7190.0 0.036515
7210.0 0.03789
7230.0 0.038183
7250.0 0.039148
7270.0 0.037901
7290.0 0.038534
7310.0 0.037744
7330.0 0.037525
7350.0 0.036453
7370.0 0.036129
7390.0 0.036746
7410.0 0.035843
7430.0 0.036623
7450.0 0.035514
7470.0 0.035717
7490.0 0.033973
7510.0 0.031918
7530.0 0.032939
7550.0 0.031015
7570.0 0.032172
7590.0 0.030372
7610.0 0.032119
7630.0 0.031331
7650.0 0.03236
7670.0 0.030484
7690.0 0.030994
7710.0 0.030123
7730.0 0.032074
7750.0 0.030496
7770.0 0.032326
7790.0 0.033101
7810.0 0.032784
7830.0 0.034932
7850.0 0.033072
7870.0 0.035814
7890.0 0.034584
7910.0 0.034112
7930.0 0.033314
7950.0 0.032918
7970.0 0.033518
7990.0 0.03323
8010.0 0.031834
8030.0 0.03155
8050.0 0.0309
8070.0 0.030405
8090.0 0.028444
8110.0 0.028593
8130.0 0.030012
8150.0 0.030975
8170.0 0.031063
8190.0 0.031894
8210.0 0.03138
8230.0 0.030482
8250.0 0.030357
8270.0 0.029773
8290.0 0.029172
8310.0 0.027766
8330.0 0.027868
8350.0 0.028115
8370.0 0.028287
8390.0 0.028406
8410.0 0.028015
8430.0 0.027816
8450.0 0.027876
8470.0 0.028644
8490.0 0.029003
8510.0 0.028074
8530.0 0.026989
8550.0 0.027005
8570.0 0.026569
8590.0 0.0259
8610.0 0.026398
8630.0 0.026199
8650.0 0.025873
8670.0 0.025681
8690.0 0.025455
8710.0 0.024292
8730.0 0.024515
8750.0 0.023839
8770.0 0.023901
8790.0 0.023405
8810.0 0.022911
8830.0 0.023041
8850.0 0.022772
8870.0 0.021714
8890.0 0.021134
8910.0 0.020253
8930.0 0.019044
8950.0 0.018771
8970.0 0.017973
8990.0 0.017738
9010.0 0.01729
9030.0 0.017123
9050.0 0.017011
9070.0 0.016901
9090.0 0.01679
9110.0 0.016676
9130.0 0.016563
9150.0 0.016451
9170.0 0.016339
9190.0 0.016225
9210.0 0.016111
9230.0 0.015997
9250.0 0.015882
9270.0 0.015766
9290.0 0.015651
9310.0 0.015536
9330.0 0.015422
9350.0 0.015309
9370.0 0.015195
9390.0 0.015081
9410.0 0.014968
9430.0 0.014854
9450.0 0.014741
9470.0 0.014638
9490.0 0.01453
9510.0 0.014412
9530.0 0.014296
9550.0 0.014182
9570.0 0.01407
9590.0 0.013959
9610.0 0.013849
9630.0 0.013741
9650.0 0.013633
9670.0 0.013525
9690.0 0.013419
9710.0 0.013313
9730.0 0.013208
9750.0 0.013103
9770.0 0.013
9790.0 0.012897
9810.0 0.012795
9830.0 0.012693
9850.0 0.012583
9870.0 0.012475
9890.0 0.012385
9910.0 0.012293
9930.0 0.012182
9950.0 0.012086
9970.0 0.012
9990.0 0.011911
10010.0 0.011823
10030.0 0.011734
10050.0 0.011644
10070.0 0.011555
10090.0 0.011468
10110.0 0.01138
10130.0 0.011293
10150.0 0.011209
10170.0 0.011125
10190.0 0.011042
10210.0 0.01096
10230.0 0.01088
10250.0 0.0108
10270.0 0.010722
10290.0 0.010645
10310.0 0.010569
10330.0 0.010493
10350.0 0.010419
10370.0 0.010346
10390.0 0.010273
10410.0 0.010198
10430.0 0.010125
10450.0 0.01006
10470.0 0.0099934
10490.0 0.0099285
10510.0 0.0098644
10530.0 0.0097989
10550.0 0.0097352
10570.0 0.0096737
10590.0 0.0096121
10610.0 0.0095508
10630.0 0.0094921
10650.0 0.0094341
10670.0 0.0093755
10690.0 0.0093187
10710.0 0.0092638
10730.0 0.0092087
10750.0 0.0091535
10770.0 0.0091015
10790.0 0.00905
10810.0 0.0089981
10830.0 0.0089479
10850.0 0.0088998
10870.0 0.0088503
10890.0 0.0088019
10910.0 0.0087558
10930.0 0.0087102
10950.0 0.0086643
10970.0 0.0086201
10990.0 0.0085779
11010.0 0.0092516
11030.0 0.0091973
11050.0 0.0091403
11070.0 0.0090797
11090.0 0.0090137
11110.0 0.008948
11130.0 0.0088816
11150.0 0.0088125
11170.0 0.0087426
11190.0 0.0086747
11210.0 0.0086055
11230.0 0.0085349
11250.0 0.0084667
11270.0 0.0084006
11290.0 0.0083337
11310.0 0.0082689
11330.0 0.0082097
11350.0 0.008152
11370.0 0.0080963
11390.0 0.0080454
11410.0 0.007998
11430.0 0.0079513
11450.0 0.007908
11470.0 0.0078681
11490.0 0.0078293
11510.0 0.0077907
11530.0 0.0077546
11550.0 0.0077195
11570.0 0.0076831
11590.0 0.007647
11610.0 0.007612
11630.0 0.0075752
11650.0 0.0075367
11670.0 0.0074995
11690.0 0.0074617
11710.0 0.0074219
11730.0 0.0073819
11750.0 0.0073434
11770.0 0.0073028
11790.0 0.0072614
11810.0 0.0072216
11830.0 0.0071822
11850.0 0.0071407
11870.0 0.0071017
11890.0 0.0070655
11910.0 0.0070295
11930.0 0.006995
11950.0 0.0069646
11970.0 0.0069366
11990.0 0.0069099
12010.0 0.0068878
12030.0 0.0068698
12050.0 0.0068546
12070.0 0.0068429
12090.0 0.0068365
12110.0 0.0068333
12130.0 0.0068334
12150.0 0.0068371
12170.0 0.006844
12190.0 0.0068531
12210.0 0.0068644
12230.0 0.0068773
12250.0 0.006891
12270.0 0.0069048
12290.0 0.0069182
12310.0 0.0069308
12330.0 0.0069415
12350.0 0.00695
12370.0 0.0069564
12390.0 0.0069597
12410.0 0.0069587
12430.0 0.0069552
12450.0 0.0069485
12470.0 0.0069372
12490.0 0.006922
12510.0 0.0069049
12530.0 0.0068832
12550.0 0.0068568
12570.0 0.0068285
12590.0 0.0067979
12610.0 0.0067621
12630.0 0.0067236
12650.0 0.0066861
12670.0 0.006645
12690.0 0.0066011
12710.0 0.006558
12730.0 0.006515
12750.0 0.0064679
12770.0 0.0064224
12790.0 0.0063791
12810.0 0.0063351
12830.0 0.0062906
12850.0 0.0062504
12870.0 0.0062122
12890.0 0.006174
12910.0 0.0061391
12930.0 0.0061085
12950.0 0.0060792
12970.0 0.0060526
12990.0 0.0060318
13010.0 0.0060145
13030.0 0.0060003
13050.0 0.0059906
13070.0 0.0059855
13090.0 0.0059831
13110.0 0.0059839
13130.0 0.0059881
13150.0 0.0059944
13170.0 0.0060021
13190.0 0.0060111
13210.0 0.0060208
13230.0 0.0060302
13250.0 0.0060389
13270.0 0.0060468
13290.0 0.0060531
13310.0 0.0060573
13330.0 0.0060594
13350.0 0.0060594
13370.0 0.0060563
13390.0 0.0060497
13410.0 0.0060411
13430.0 0.0060289
13450.0 0.0060126
13470.0 0.0059935
13490.0 0.005972
13510.0 0.005945
13530.0 0.0059153
13550.0 0.0058842
13570.0 0.00585
13590.0 0.0058121
13610.0 0.0057734
13630.0 0.0057342
13650.0 0.0056912
13670.0 0.0056468
13690.0 0.0056028
13710.0 0.0055567
13730.0 0.0055066
13750.0 0.0054584
13770.0 0.0054097
13790.0 0.0053583
13810.0 0.0053063
13830.0 0.0052562
13850.0 0.0052039
13870.0 0.0051503
13890.0 0.0050988
13910.0 0.005048
13930.0 0.0049956
13950.0 0.0049443
13970.0 0.0048966
13990.0 0.0048485
14010.0 0.0048008
14030.0 0.0047561
14050.0 0.004713
14070.0 0.004669
14090.0 0.0046277
14110.0 0.0045888
14130.0 0.0045502
14150.0 0.0045121
14170.0 0.0044766
14190.0 0.0044419
14210.0 0.0044068
14230.0 0.004373
14250.0 0.0043405
14270.0 0.0043073
14290.0 0.0042742
14310.0 0.0042428
14330.0 0.0042118
14350.0 0.0041804
14370.0 0.0041501
14390.0 0.0041212
14410.0 0.004092
14430.0 0.0040634
14450.0 0.004036
14470.0 0.0040092
14490.0 0.0039819
14510.0 0.0039556
14530.0 0.0039301
14550.0 0.0039042
14570.0 0.0038781
14590.0 0.0038525
14610.0 0.0038265
14630.0 0.0037995
14650.0 0.0037727
14670.0 0.0037458
14690.0 0.003718
14710.0 0.0036895
14730.0 0.0036616
14750.0 0.0036329
14770.0 0.0036033
14790.0 0.0035736
14810.0 0.003544
14830.0 0.0035126
14850.0 0.003481
14870.0 0.0034498
14890.0 0.0034179
14910.0 0.0033853
14930.0 0.0033537
14950.0 0.003323
14970.0 0.0032926
14990.0 0.0032637
15010.0 0.0032368
15030.0 0.0032111
15050.0 0.0031864
15070.0 0.0031636
15090.0 0.0031416
15110.0 0.0031198
15130.0 0.0030984
15150.0 0.0030775
15170.0 0.0030563
15190.0 0.003035
15210.0 0.0030139
15230.0 0.0029929
15250.0 0.0029715
15270.0 0.0029501
15290.0 0.0029291
15310.0 0.0029078
15330.0 0.0028863
15350.0 0.0028652
15370.0 0.002844
15390.0 0.0028225
15410.0 0.0028011
15430.0 0.00278
15450.0 0.0027587
15470.0 0.0027373
15490.0 0.0027162
15510.0 0.0026952
15530.0 0.0026739
15550.0 0.0026528
15570.0 0.0026319
15590.0 0.0026108
15610.0 0.0025897
15630.0 0.0025689
15650.0 0.0025482
15670.0 0.0025273
15690.0 0.0025066
15710.0 0.0024862
15730.0 0.0024656
15750.0 0.002445
15770.0 0.0024248
15790.0 0.0024045
15810.0 0.0023841
15830.0 0.002364
15850.0 0.0023442
15870.0 0.0023243
15890.0 0.0023044
15910.0 0.0022849
15930.0 0.0022653
15950.0 0.0022457
15970.0 0.0022264
15990.0 0.0022072
16010.0 0.002188
16030.0 0.0021689
16050.0 0.0021502
16070.0 0.0021315
16090.0 0.0021128
16110.0 0.0020943
16130.0 0.0020761
16150.0 0.0020577
16170.0 0.0020395
16190.0 0.0020217
16210.0 0.0020039
16230.0 0.001986
16250.0 0.0019685
16270.0 0.0019513
16290.0 0.0019339
16310.0 0.0019167
16330.0 0.0018999
16350.0 0.001883
16370.0 0.0018661
16390.0 0.0018496
16410.0 0.0018333
16430.0 0.0018169
16450.0 0.0018008
16470.0 0.001785
16490.0 0.0017691
16510.0 0.0017533
16530.0 0.0017378
16550.0 0.0017225
16570.0 0.0017072
16590.0 0.001692
16610.0 0.0016772
16630.0 0.0016624
16650.0 0.0016477
16670.0 0.0016333
16690.0 0.001619
16710.0 0.0016046
16730.0 0.0015905
16750.0 0.0015767
16770.0 0.0015629
16790.0 0.0015492
16810.0 0.0015358
16830.0 0.0015225
16850.0 0.0015092
16870.0 0.0014962
16890.0 0.0014834
16910.0 0.0014706
16930.0 0.0014578
16950.0 0.0014454
16970.0 0.0014331
16990.0 0.0014208
17010.0 0.0014088
17030.0 0.001397
17050.0 0.0013851
17070.0 0.0013734
17090.0 0.0013619
17110.0 0.0013506
17130.0 0.0013392
17150.0 0.0013281
17170.0 0.0013172
17190.0 0.0013063
17210.0 0.0012955
17230.0 0.001285
17250.0 0.0012745
17270.0 0.0012641
17290.0 0.0012539
17310.0 0.0012438
17330.0 0.0012338
17350.0 0.0012239
17370.0 0.0012143
17390.0 0.0012047
17410.0 0.0011951
17430.0 0.0011858
17450.0 0.0011766
17470.0 0.0011673
17490.0 0.0011582
17510.0 0.0011494
17530.0 0.0011406
17550.0 0.0011318
17570.0 0.0011233
17590.0 0.0011149
17610.0 0.0011065
17630.0 0.0010982
17650.0 0.0010902
17670.0 0.0010821
17690.0 0.001074
17710.0 0.0010662
17730.0 0.0010586
17750.0 0.0010509
17770.0 0.0010433
17790.0 0.001036
17810.0 0.0010286
17830.0 0.0010213
17850.0 0.0010142
17870.0 0.0010072
17890.0 0.0010001
17910.0 0.00099321
17930.0 0.00098655
17950.0 0.00097984
17970.0 0.00097318
17990.0 0.00096674
18010.0 0.00096038
18030.0 0.00095389
18050.0 0.00094764
18070.0 0.00094154
18090.0 0.00093542
18110.0 0.00092932
18130.0 0.00092349
18150.0 0.00091768
18170.0 0.00091184
18190.0 0.00090616
18210.0 0.00090063
18230.0 0.00089502
18250.0 0.00088945
18270.0 0.00088414
18290.0 0.00087885
18310.0 0.00087353
18330.0 0.00086838
18350.0 0.00086337
18370.0 0.00085827
18390.0 0.00085325
18410.0 0.00084842
18430.0 0.0008436
18450.0 0.0008387
18470.0 0.00083402
18490.0 0.00082947
18510.0 0.00082485
18530.0 0.0008203
18550.0 0.00081594
18570.0 0.00081154
18590.0 0.0008071
18610.0 0.00080286
18630.0 0.0007987
18650.0 0.00079447
18670.0 0.0007903
18690.0 0.00078636
18710.0 0.00078238
18730.0 0.00077837
18750.0 0.00077453
18770.0 0.00077078
18790.0 0.00076686
18810.0 0.0007631
18830.0 0.00075949
18850.0 0.00075586
18870.0 0.0007522
18890.0 0.00074872
18910.0 0.0007453
18930.0 0.00074178
18950.0 0.00073837
18970.0 0.0007351
18990.0 0.00073178
19010.0 0.00072837
19030.0 0.00072523
19050.0 0.0007221
19070.0 0.00071891
19090.0 0.00071581
19110.0 0.00071287
19130.0 0.0007098
19150.0 0.00070675
19170.0 0.00070386
19190.0 0.000701
19210.0 0.00069804
19230.0 0.00069519
19250.0 0.00069251
19270.0 0.00068973
19290.0 0.00068696
19310.0 0.00068435
19330.0 0.00068175
19350.0 0.00067899
19370.0 0.00067641
19390.0 0.00067393
19410.0 0.00067137
19430.0 0.0006688
19450.0 0.00066643
19470.0 0.00066403
19490.0 0.00066155
19510.0 0.00065919
19530.0 0.00065692
19550.0 0.00065452
19570.0 0.00065213
19590.0 0.00064995
19610.0 0.00064772
19630.0 0.00064543
19650.0 0.00064327
19670.0 0.00064119
19690.0 0.00063897
19710.0 0.00063679
19730.0 0.00063476
19750.0 0.00063269
19770.0 0.00063049
19790.0 0.00062849
19810.0 0.00062655
19830.0 0.00062451
19850.0 0.00062251
19870.0 0.00062068
19890.0 0.00061877
19910.0 0.00061685
19930.0 0.0006152
19950.0 0.00061373
19970.0 0.00061239
19990.0 0.00061137
20010.0 0.00061083
20030.0 0.00061058
20050.0 0.00061068
20070.0 0.00061118
20090.0 0.000612
20110.0 0.00061302
20130.0 0.00061429
20150.0 0.00061576
20170.0 0.00061734
20190.0 0.00061902
20210.0 0.00062082
20230.0 0.00062269
20250.0 0.0006246
20270.0 0.00062656
20290.0 0.00062856
20310.0 0.00063056
20330.0 0.00063255
20350.0 0.00063456
20370.0 0.00063655
20390.0 0.0006385
20410.0 0.00064044
20430.0 0.00064239
20450.0 0.00064428
20470.0 0.00064616
20490.0 0.00064807
20510.0 0.00065
20530.0 0.00065192
20550.0 0.0006539
20570.0 0.00065596
20590.0 0.00065804
20610.0 0.0006602
20630.0 0.00066245
20650.0 0.00066476
20670.0 0.00066709
20690.0 0.00066952
20710.0 0.000672
20730.0 0.00067449
20750.0 0.00067698
20770.0 0.0006795
20790.0 0.00068197
20810.0 0.00068436
20830.0 0.00068671
20850.0 0.000689
20870.0 0.00069113
20890.0 0.00069315
20910.0 0.00069513
20930.0 0.00069698
20950.0 0.00069867
20970.0 0.00070032
20990.0 0.00070193
21010.0 0.00070336
21030.0 0.00070476
21050.0 0.00070621
21070.0 0.00070758
21090.0 0.00070885
21110.0 0.00071026
21130.0 0.0007117
21150.0 0.00071306
21170.0 0.00071446
21190.0 0.00071597
21210.0 0.00071739
21230.0 0.00071875
21250.0 0.00072021
21270.0 0.00072165
21290.0 0.00072295
21310.0 0.00072422
21330.0 0.00072556
21350.0 0.00072671
21370.0 0.00072773
21390.0 0.00072876
21410.0 0.00072972
21430.0 0.00073034
21450.0 0.00073099
21470.0 0.00073165
21490.0 0.0007321
21510.0 0.00073239
21530.0 0.00073277
21550.0 0.00073304
21570.0 0.00073305
21590.0 0.00073309
21610.0 0.00073319
21630.0 0.00073309
21650.0 0.00073277
21670.0 0.00073275
21690.0 0.00073261
21710.0 0.00073228
21730.0 0.00073201
21750.0 0.00073186
21770.0 0.00073137
21790.0 0.00073087
21810.0 0.00073052
21830.0 0.00073008
21850.0 0.00072941
21870.0 0.00072885
21890.0 0.00072844
21910.0 0.00072778
21930.0 0.0007271
21950.0 0.00072663
21970.0 0.0007261
21990.0 0.00072532
22010.0 0.00072488
22030.0 0.00072459
22050.0 0.00072421
22070.0 0.00072393
22090.0 0.00072404
22110.0 0.00072416
22130.0 0.00072432
22150.0 0.00072481
22170.0 0.00072554
22190.0 0.00072625
22210.0 0.00072718
22230.0 0.0007285
22250.0 0.00072989
22270.0 0.00073137
22290.0 0.00073313
22310.0 0.00073506
22330.0 0.00073693
22350.0 0.00073898
22370.0 0.00074122
22390.0 0.00074346
22410.0 0.00074566
22430.0 0.00074809
22450.0 0.00075058
22470.0 0.00075299
22490.0 0.00075547
22510.0 0.00075811
22530.0 0.00076066
22550.0 0.00076318
22570.0 0.0007659
22590.0 0.00076867
22610.0 0.00077139
22630.0 0.00077421
22650.0 0.00077725
22670.0 0.00078024
22690.0 0.00078328
22710.0 0.00078653
22730.0 0.00078988
22750.0 0.00079316
22770.0 0.00079668
22790.0 0.00080041
22810.0 0.00080419
22830.0 0.00080809
22850.0 0.00081226
22870.0 0.00081658
22890.0 0.00082099
22910.0 0.00082567
22930.0 0.00083061
22950.0 0.00083571
22970.0 0.00084102
22990.0 0.00084669
23010.0 0.00085259
23030.0 0.00085875
23050.0 0.00086522
23070.0 0.000872
23090.0 0.00087908
23110.0 0.00088651
23130.0 0.00089427
23150.0 0.00090238
23170.0 0.00091088
23190.0 0.00091973
23210.0 0.00092891
23230.0 0.00093851
23250.0 0.00094848
23270.0 0.00095871
23290.0 0.0009693
23310.0 0.00098031
23330.0 0.00099146
23350.0 0.0010028
23370.0 0.0010144
23390.0 0.0010262
23410.0 0.0010379
23430.0 0.0010498
23450.0 0.0010617
23470.0 0.0010736
23490.0 0.0010854
23510.0 0.0010973
23530.0 0.0011092
23550.0 0.0011209
23570.0 0.0011327
23590.0 0.0011445
23610.0 0.0011563
23630.0 0.0011682
23650.0 0.0011804
23670.0 0.0011926
23690.0 0.001205
23710.0 0.0012177
23730.0 0.0012306
23750.0 0.0012438
23770.0 0.0012571
23790.0 0.0012709
23810.0 0.001285
23830.0 0.0012993
23850.0 0.0013141
23870.0 0.0013293
23890.0 0.0013449
23910.0 0.0013609
23930.0 0.0013809
23950.0 0.0014034
23970.0 0.0014263
23990.0 0.00145
24010.0 0.0014743
24030.0 0.0014988
24050.0 0.0015236
24070.0 0.0015489
24090.0 0.001574
24110.0 0.001599
24130.0 0.0016241
24150.0 0.0016492
24170.0 0.001674
