#lamb flux
1010.0 0.0002823
1030.0 0.0003071
1050.0 0.00033637
1070.0 0.00036932
1090.0 0.00040654
1110.0 0.00044476
1130.0 0.00048326
1150.0 0.0005236
1170.0 0.0005652
1190.0 0.00060461
1210.0 0.00064447
1230.0 0.00068556
1250.0 0.00072573
1270.0 0.00076457
1290.0 0.00080544
1310.0 0.00084609
1330.0 0.00088486
1350.0 0.0009239
1370.0 0.00096408
1390.0 0.0010031
1410.0 0.0010409
1430.0 0.0010804
1450.0 0.0011199
1470.0 0.0011581
1490.0 0.0011968
1510.0 0.0012379
1530.0 0.0012769
1550.0 0.0013156
1570.0 0.0013558
1590.0 0.0013964
1610.0 0.0014353
1630.0 0.0014758
1650.0 0.0015176
1670.0 0.0015583
1690.0 0.0015987
1710.0 0.0016408
1730.0 0.0016832
1750.0 0.0017234
1770.0 0.0017647
1790.0 0.0018068
1810.0 0.0018475
1830.0 0.0018873
1850.0 0.0019292
1870.0 0.0019696
1890.0 0.0020082
1910.0 0.0020469
1930.0 0.0020859
1950.0 0.0021222
1970.0 0.0021572
1990.0 0.0021928
2010.0 0.0022266
2030.0 0.0022581
2050.0 0.0022897
2070.0 0.0023213
2090.0 0.0023496
2110.0 0.0023769
2130.0 0.0024044
2150.0 0.0024304
2170.0 0.002454
2190.0 0.0024783
2210.0 0.0025024
2230.0 0.0025244
2250.0 0.002546
2270.0 0.0025688
2290.0 0.0025902
2310.0 0.00261
2330.0 0.0026308
2350.0 0.0026519
2370.0 0.0026716
2390.0 0.0026919
2410.0 0.0027143
2430.0 0.0027363
2450.0 0.0027585
2470.0 0.0027832
2490.0 0.0028108
2510.0 0.0028401
2530.0 0.0028787
2550.0 0.0029381
2570.0 0.00303
2590.0 0.0031701
2610.0 0.0033988
2630.0 0.0037289
2650.0 0.0041469
2670.0 0.0046605
2690.0 0.0052527
2710.0 0.0058396
2730.0 0.0063714
2750.0 0.006836
2770.0 0.0071655
2790.0 0.0073413
2810.0 0.0073793
2830.0 0.0072827
2850.0 0.0070899
2870.0 0.006833
2890.0 0.0065223
2910.0 0.0061862
2930.0 0.0058538
2950.0 0.0055045
2970.0 0.0051465
2990.0 0.0048027
3010.0 0.0064962
3030.0 0.0059887
3050.0 0.0054872
3070.0 0.0050261
3090.0 0.0045648
3110.0 0.0041243
3130.0 0.0037446
3150.0 0.0034884
3170.0 0.003284
3190.0 0.0054205
3210.0 0.015256
3230.0 0.031189
3250.0 0.039575
3270.0 0.034946
3290.0 0.026824
3310.0 0.022198
3330.0 0.020799
3350.0 0.021357
3370.0 0.02249
3390.0 0.023695
3410.0 0.024913
3430.0 0.026052
3450.0 0.027287
3470.0 0.02863
3490.0 0.029545
3510.0 0.028604
3530.0 0.029217
3550.0 0.036643
3570.0 0.046016
3590.0 0.050816
3610.0 0.052405
3630.0 0.053701
3650.0 0.053628
3670.0 0.056848
3690.0 0.068028
3710.0 0.080611
3730.0 0.08884
3750.0 0.094685
3770.0 0.095844
3790.0 0.092134
3810.0 0.085168
3830.0 0.074462
3850.0 0.063124
3870.0 0.057273
3890.0 0.064068
3910.0 0.081041
3930.0 0.098015
3950.0 0.1081
3970.0 0.11237
3990.0 0.11706
4010.0 0.11977
4030.0 0.10806
4050.0 0.085275
4070.0 0.073589
4090.0 0.077567
4110.0 0.085395
4130.0 0.08979
4150.0 0.090271
4170.0 0.088212
4190.0 0.086712
4210.0 0.088911
4230.0 0.094095
4250.0 0.098312
4270.0 0.099879
4290.0 0.098502
4310.0 0.099138
4330.0 0.10516
4350.0 0.11227
4370.0 0.11175
4390.0 0.10365
4410.0 0.091483
4430.0 0.076586
4450.0 0.066071
4470.0 0.065728
4490.0 0.071795
4510.0 0.079554
4530.0 0.087945
4550.0 0.10108
4570.0 0.12632
4590.0 0.1623
4610.0 0.1917
4630.0 0.20653
4650.0 0.21873
4670.0 0.23058
4690.0 0.22552
4710.0 0.19667
4730.0 0.15852
4750.0 0.12778
4770.0 0.10923
4790.0 0.1024
4810.0 0.10237
4830.0 0.10954
4850.0 0.12385
4870.0 0.13666
4890.0 0.14084
4910.0 0.14415
4930.0 0.15768
4950.0 0.17593
4970.0 0.18535
4990.0 0.18023
5010.0 0.16142
5030.0 0.13519
5050.0 0.11299
5070.0 0.099415
5090.0 0.093845
5110.0 0.093846
5130.0 0.094751
5150.0 0.093909
5170.0 0.091837
5190.0 0.09285
5210.0 0.099454
5230.0 0.11127
5250.0 0.1291
5270.0 0.14749
5290.0 0.15954
5310.0 0.16881
5330.0 0.18065
5350.0 0.18895
5370.0 0.18546
5390.0 0.17419
5410.0 0.16563
5430.0 0.16954
5450.0 0.18806
5470.0 0.21082
5490.0 0.22568
5510.0 0.22866
5530.0 0.22344
5550.0 0.21391
5570.0 0.20292
5590.0 0.19259
5610.0 0.18453
5630.0 0.17972
5650.0 0.1737
5670.0 0.16065
5690.0 0.14328
5710.0 0.12783
5730.0 0.11645
5750.0 0.11127
5770.0 0.11165
5790.0 0.11233
5810.0 0.11097
5830.0 0.10856
5850.0 0.10408
5870.0 0.098412
5890.0 0.09517
5910.0 0.093901
5930.0 0.089911
5950.0 0.081375
5970.0 0.069697
5990.0 0.057367
6010.0 0.049131
6030.0 0.047056
6050.0 0.049618
6070.0 0.052005
6090.0 0.05026
6110.0 0.047418
6130.0 0.048382
6150.0 0.052467
6170.0 0.056216
6190.0 0.058362
6210.0 0.059027
6230.0 0.057417
6250.0 0.052316
6270.0 0.045028
6290.0 0.039034
6310.0 0.03691
6330.0 0.038032
6350.0 0.039983
6370.0 0.042494
6390.0 0.047867
6410.0 0.055941
6430.0 0.062659
6450.0 0.066007
6470.0 0.067861
6490.0 0.069219
6510.0 0.069779
6530.0 0.070153
6550.0 0.071097
6570.0 0.07228
6590.0 0.073086
6610.0 0.072213
6630.0 0.068974
6650.0 0.064072
6670.0 0.059402
6690.0 0.056392
6710.0 0.054115
6730.0 0.051704
6750.0 0.050548
6770.0 0.051708
6790.0 0.053369
6810.0 0.053882
6830.0 0.053027
6850.0 0.050952
6870.0 0.048838
6890.0 0.047651
6910.0 0.047782
6930.0 0.048592
6950.0 0.049234
6970.0 0.049795
6990.0 0.049638
7010.0 0.048065
7030.0 0.044802
7050.0 0.040552
7070.0 0.037577
7090.0 0.037183
7110.0 0.037791
7130.0 0.036496
7150.0 0.033893
7170.0 0.033561
7190.0 0.036558
7210.0 0.040758
7230.0 0.044165
7250.0 0.045556
7270.0 0.044568
7290.0 0.042274
7310.0 0.04052
7330.0 0.040584
7350.0 0.041563
7370.0 0.042356
7390.0 0.044178
7410.0 0.047828
7430.0 0.052007
7450.0 0.055251
7470.0 0.056193
7490.0 0.053502
7510.0 0.050157
7530.0 0.048921
7550.0 0.047252
7570.0 0.045335
7590.0 0.044719
7610.0 0.045492
7630.0 0.047817
7650.0 0.051918
7670.0 0.057056
7690.0 0.061905
7710.0 0.06571
7730.0 0.069106
7750.0 0.072104
7770.0 0.073983
7790.0 0.076004
7810.0 0.077003
7830.0 0.075481
7850.0 0.073624
7870.0 0.072885
7890.0 0.073657
7910.0 0.074534
7930.0 0.073579
7950.0 0.07186
7970.0 0.069967
7990.0 0.068376
8010.0 0.065778
8030.0 0.066501
8050.0 0.066992
8070.0 0.066685
8090.0 0.066606
8110.0 0.066133
8130.0 0.06673
8150.0 0.066768
8170.0 0.066113
8190.0 0.064757
8210.0 0.063106
8230.0 0.061538
8250.0 0.06126
8270.0 0.058138
8290.0 0.050835
8310.0 0.042522
8330.0 0.036869
8350.0 0.035609
8370.0 0.039709
8390.0 0.045638
8410.0 0.049012
8430.0 0.051176
8450.0 0.055015
8470.0 0.059732
8490.0 0.066089
8510.0 0.073481
8530.0 0.08125
8550.0 0.087576
8570.0 0.092426
8590.0 0.096212
8610.0 0.098605
8630.0 0.098806
8650.0 0.097625
8670.0 0.09826
8690.0 0.1038
8710.0 0.11121
8730.0 0.11506
8750.0 0.11478
8770.0 0.1165
8790.0 0.11707
8810.0 0.11246
8830.0 0.10483
8850.0 0.095047
8870.0 0.087631
8890.0 0.085598
8910.0 0.084482
8930.0 0.079436
8950.0 0.073839
8970.0 0.071708
8990.0 0.072217
9010.0 0.071092
9030.0 0.069829
9050.0 0.069182
9070.0 0.068838
9090.0 0.068536
9110.0 0.068243
9130.0 0.067951
9150.0 0.067666
9170.0 0.067372
9190.0 0.06713
9210.0 0.066983
9230.0 0.066648
9250.0 0.066344
9270.0 0.066059
9290.0 0.065789
9310.0 0.065524
9330.0 0.065266
9350.0 0.065019
9370.0 0.064775
9390.0 0.06453
9410.0 0.064292
9430.0 0.064044
9450.0 0.06371
9470.0 0.063409
9490.0 0.063274
9510.0 0.063093
9530.0 0.062904
9550.0 0.062702
9570.0 0.062495
9590.0 0.06229
9610.0 0.062084
9630.0 0.061875
9650.0 0.06167
9670.0 0.061471
9690.0 0.061269
9710.0 0.061068
9730.0 0.060872
9750.0 0.060677
9770.0 0.060477
9790.0 0.060283
9810.0 0.060092
9830.0 0.059897
9850.0 0.059701
9870.0 0.059513
9890.0 0.059323
9910.0 0.059129
9930.0 0.058935
9950.0 0.058528
9970.0 0.058397
9990.0 0.058251
10010.0 0.058106
10030.0 0.057938
10050.0 0.057752
10070.0 0.057566
10090.0 0.057382
10110.0 0.057165
10130.0 0.056897
10150.0 0.056708
10170.0 0.056524
10190.0 0.056314
10210.0 0.056116
10230.0 0.055917
10250.0 0.055693
10270.0 0.055469
10290.0 0.055257
10310.0 0.055025
10330.0 0.054774
10350.0 0.054541
10370.0 0.054307
10390.0 0.05405
10410.0 0.053793
10430.0 0.053553
10450.0 0.05329
10470.0 0.053014
10490.0 0.052749
10510.0 0.052482
10530.0 0.05218
10550.0 0.051886
10570.0 0.051606
10590.0 0.051303
10610.0 0.050987
10630.0 0.050685
10650.0 0.050375
10670.0 0.050035
10690.0 0.049701
10710.0 0.049373
10730.0 0.049023
10750.0 0.04865
10770.0 0.048305
10790.0 0.047946
10810.0 0.047562
10830.0 0.047182
10850.0 0.046812
10870.0 0.046403
10890.0 0.045987
10910.0 0.045585
10930.0 0.045169
10950.0 0.044724
10970.0 0.044284
10990.0 0.043856
11010.0 0.046974
11030.0 0.046497
11050.0 0.046038
11070.0 0.045572
11090.0 0.045073
11110.0 0.044608
11130.0 0.044154
11150.0 0.043682
11170.0 0.043213
11190.0 0.042771
11210.0 0.04232
11230.0 0.04186
11250.0 0.041422
11270.0 0.040999
11290.0 0.040564
11310.0 0.040136
11330.0 0.039743
11350.0 0.039344
11370.0 0.038938
11390.0 0.038547
11410.0 0.038158
11430.0 0.037736
11450.0 0.037309
11470.0 0.036876
11490.0 0.036412
11510.0 0.035906
11530.0 0.035394
11550.0 0.034859
11570.0 0.034276
11590.0 0.033672
11610.0 0.033066
11630.0 0.032419
11650.0 0.031742
11670.0 0.031084
11690.0 0.030422
11710.0 0.029735
11730.0 0.029056
11750.0 0.028406
11770.0 0.027737
11790.0 0.027067
11810.0 0.026424
11830.0 0.025788
11850.0 0.02513
11870.0 0.024499
11890.0 0.023895
11910.0 0.023285
11930.0 0.02268
11950.0 0.022111
11970.0 0.021552
11990.0 0.020991
12010.0 0.020465
12030.0 0.01997
12050.0 0.019488
12070.0 0.019025
12090.0 0.018615
12110.0 0.01823
12130.0 0.01787
12150.0 0.017552
12170.0 0.017275
12190.0 0.017026
12210.0 0.01682
12230.0 0.016658
12250.0 0.016536
12270.0 0.016454
12290.0 0.016412
12310.0 0.016404
12330.0 0.016433
12350.0 0.016495
12370.0 0.016578
12390.0 0.016685
12410.0 0.016823
12430.0 0.016962
12450.0 0.017107
12470.0 0.017265
12490.0 0.017423
12510.0 0.017567
12530.0 0.01771
12550.0 0.017849
12570.0 0.017966
12590.0 0.018063
12610.0 0.018147
12630.0 0.018205
12650.0 0.018227
12670.0 0.018225
12690.0 0.018191
12710.0 0.018121
12730.0 0.01802
12750.0 0.017884
12770.0 0.017715
12790.0 0.017518
12810.0 0.017293
12830.0 0.017039
12850.0 0.016773
12870.0 0.016493
12890.0 0.016197
12910.0 0.015896
12930.0 0.0156
12950.0 0.015297
12970.0 0.014995
12990.0 0.014708
13010.0 0.014429
13030.0 0.014151
13050.0 0.013887
13070.0 0.013637
13090.0 0.01339
13110.0 0.01315
13130.0 0.012923
13150.0 0.012705
13170.0 0.012487
13190.0 0.012282
13210.0 0.012089
13230.0 0.011898
13250.0 0.011715
13270.0 0.011543
13290.0 0.011377
13310.0 0.011214
13330.0 0.011061
13350.0 0.010916
13370.0 0.010776
13390.0 0.010641
13410.0 0.010517
13430.0 0.010397
13450.0 0.010281
13470.0 0.010173
13490.0 0.01007
13510.0 0.0099675
13530.0 0.0098692
13550.0 0.0097754
13570.0 0.0096826
13590.0 0.0095895
13610.0 0.0094985
13630.0 0.009409
13650.0 0.0093173
13670.0 0.0092257
13690.0 0.009136
13710.0 0.0090456
13730.0 0.0089528
13750.0 0.0088641
13770.0 0.0087772
13790.0 0.0086899
13810.0 0.0086049
13830.0 0.0085247
13850.0 0.0084451
13870.0 0.0083671
13890.0 0.0082937
13910.0 0.0082234
13930.0 0.0081536
13950.0 0.0080863
13970.0 0.0080232
13990.0 0.0079599
14010.0 0.0078966
14030.0 0.0078351
14050.0 0.0077738
14070.0 0.0077089
14090.0 0.0076442
14110.0 0.0075798
14130.0 0.007513
14150.0 0.0074437
14170.0 0.0073768
14190.0 0.0073101
14210.0 0.0072421
14230.0 0.0071769
14250.0 0.007116
14270.0 0.0070563
14290.0 0.0070002
14310.0 0.0069515
14330.0 0.0069078
14350.0 0.0068685
14370.0 0.0068356
14390.0 0.006809
14410.0 0.006786
14430.0 0.0067675
14450.0 0.0067533
14470.0 0.0067419
14490.0 0.0067321
14510.0 0.0067245
14530.0 0.0067184
14550.0 0.006713
14570.0 0.0067087
14590.0 0.0067063
14610.0 0.0067058
14630.0 0.0067083
14650.0 0.0067153
14670.0 0.0067278
14690.0 0.0067477
14710.0 0.0067772
14730.0 0.0068159
14750.0 0.0068668
14770.0 0.006933
14790.0 0.007013
14810.0 0.0071071
14830.0 0.0072244
14850.0 0.0073593
14870.0 0.0075071
14890.0 0.0076728
14910.0 0.0078555
14930.0 0.0080395
14950.0 0.0082197
14970.0 0.0083985
14990.0 0.0085593
15010.0 0.0086947
15030.0 0.0088087
15050.0 0.0089013
15070.0 0.0089699
15090.0 0.0090242
15110.0 0.0090691
15130.0 0.0091075
15150.0 0.0091428
15170.0 0.009177
15190.0 0.0092109
15210.0 0.0092452
15230.0 0.00928
15250.0 0.0093155
15270.0 0.0093517
15290.0 0.0093887
15310.0 0.0094263
15330.0 0.0094646
15350.0 0.0095036
15370.0 0.0095433
15390.0 0.0095836
15410.0 0.0096245
15430.0 0.0096662
15450.0 0.0097084
15470.0 0.0097512
15490.0 0.0097947
15510.0 0.0098388
15530.0 0.0098835
15550.0 0.0099287
15570.0 0.0099746
15590.0 0.010021
15610.0 0.010068
15630.0 0.010115
15650.0 0.010163
15670.0 0.010212
15690.0 0.010261
15710.0 0.01031
15730.0 0.01036
15750.0 0.01041
15770.0 0.010461
15790.0 0.010512
15810.0 0.010564
15830.0 0.010616
15850.0 0.010668
15870.0 0.010721
15890.0 0.010774
15910.0 0.010827
15930.0 0.010881
15950.0 0.010935
15970.0 0.010989
15990.0 0.011044
16010.0 0.011099
16030.0 0.011153
16050.0 0.011209
16070.0 0.011264
16090.0 0.01132
16110.0 0.011375
16130.0 0.011431
16150.0 0.011487
16170.0 0.011543
16190.0 0.0116
16210.0 0.011656
16230.0 0.011712
16250.0 0.011768
16270.0 0.011824
16290.0 0.011881
16310.0 0.011937
16330.0 0.011993
16350.0 0.012049
16370.0 0.012105
16390.0 0.012161
16410.0 0.012216
16430.0 0.012272
16450.0 0.012327
16470.0 0.012382
16490.0 0.012437
16510.0 0.012491
16530.0 0.012546
16550.0 0.0126
16570.0 0.012653
16590.0 0.012707
16610.0 0.012759
16630.0 0.012812
16650.0 0.012864
16670.0 0.012916
16690.0 0.012967
16710.0 0.013018
16730.0 0.013068
16750.0 0.013118
16770.0 0.013167
16790.0 0.013215
16810.0 0.013263
16830.0 0.013311
16850.0 0.013357
16870.0 0.013403
16890.0 0.013449
16910.0 0.013494
16930.0 0.013538
16950.0 0.013581
16970.0 0.013623
16990.0 0.013665
17010.0 0.013706
17030.0 0.013746
17050.0 0.013786
17070.0 0.013824
17090.0 0.013862
17110.0 0.013898
17130.0 0.013934
17150.0 0.013969
17170.0 0.014003
17190.0 0.014036
17210.0 0.014068
17230.0 0.014099
17250.0 0.014129
17270.0 0.014158
17290.0 0.014186
17310.0 0.014213
17330.0 0.014239
17350.0 0.014264
17370.0 0.014288
17390.0 0.01431
17410.0 0.014332
17430.0 0.014352
17450.0 0.014372
17470.0 0.01439
17490.0 0.014407
17510.0 0.014423
17530.0 0.014438
17550.0 0.014451
17570.0 0.014464
17590.0 0.014475
17610.0 0.014485
17630.0 0.014494
17650.0 0.014501
17670.0 0.014508
17690.0 0.014513
17710.0 0.014517
17730.0 0.01452
17750.0 0.014522
17770.0 0.014522
17790.0 0.014521
17810.0 0.014519
17830.0 0.014516
17850.0 0.014512
17870.0 0.014506
17890.0 0.014499
17910.0 0.014491
17930.0 0.014482
17950.0 0.014471
17970.0 0.01446
17990.0 0.014447
18010.0 0.014433
18030.0 0.014418
18050.0 0.014401
18070.0 0.014384
18090.0 0.014365
18110.0 0.014345
18130.0 0.014324
18150.0 0.014302
18170.0 0.014279
18190.0 0.014254
18210.0 0.014229
18230.0 0.014202
18250.0 0.014175
18270.0 0.014146
18290.0 0.014116
18310.0 0.014085
18330.0 0.014053
18350.0 0.01402
18370.0 0.013986
18390.0 0.013951
18410.0 0.013915
18430.0 0.013879
18450.0 0.013841
18470.0 0.013802
18490.0 0.013762
18510.0 0.013722
18530.0 0.01368
18550.0 0.013638
18570.0 0.013594
18590.0 0.01355
18610.0 0.013505
18630.0 0.013459
18650.0 0.013413
18670.0 0.013365
18690.0 0.013317
18710.0 0.013268
18730.0 0.013219
18750.0 0.013168
18770.0 0.013117
18790.0 0.013065
18810.0 0.013013
18830.0 0.01296
18850.0 0.012906
18870.0 0.012852
18890.0 0.012797
18910.0 0.012742
18930.0 0.012686
18950.0 0.012629
18970.0 0.012572
18990.0 0.012514
19010.0 0.012456
19030.0 0.012398
19050.0 0.012339
19070.0 0.012279
19090.0 0.01222
19110.0 0.012159
19130.0 0.012099
19150.0 0.012038
19170.0 0.011976
19190.0 0.011915
19210.0 0.011853
19230.0 0.01179
19250.0 0.011728
19270.0 0.011665
19290.0 0.011602
19310.0 0.011539
19330.0 0.011475
19350.0 0.011412
19370.0 0.011348
19390.0 0.011284
19410.0 0.011219
19430.0 0.011155
19450.0 0.011091
19470.0 0.011026
19490.0 0.010961
19510.0 0.010897
19530.0 0.010832
19550.0 0.010767
19570.0 0.010702
19590.0 0.010637
19610.0 0.010572
19630.0 0.010507
19650.0 0.010442
19670.0 0.010378
19690.0 0.010313
19710.0 0.010248
19730.0 0.010183
19750.0 0.010119
19770.0 0.010054
19790.0 0.0099894
19810.0 0.009925
19830.0 0.0098605
19850.0 0.0097957
19870.0 0.0097302
19890.0 0.0096629
19910.0 0.009592
19930.0 0.0095158
19950.0 0.0094317
19970.0 0.0093348
19990.0 0.009223
20010.0 0.0090982
20030.0 0.0089553
20050.0 0.0087953
20070.0 0.0086264
20090.0 0.0084502
20110.0 0.0082609
20130.0 0.0080736
20150.0 0.0078912
20170.0 0.0077079
20190.0 0.0075263
20210.0 0.0073549
20230.0 0.0071889
20250.0 0.0070242
20270.0 0.006869
20290.0 0.0067235
20310.0 0.0065825
20330.0 0.0064466
20350.0 0.0063244
20370.0 0.0062088
20390.0 0.0060988
20410.0 0.0059979
20430.0 0.0059061
20450.0 0.0058187
20470.0 0.0057386
20490.0 0.0056663
20510.0 0.0055996
20530.0 0.0055377
20550.0 0.0054815
20570.0 0.0054302
20590.0 0.0053823
20610.0 0.0053377
20630.0 0.0052962
20650.0 0.0052568
20670.0 0.005219
20690.0 0.0051824
20710.0 0.0051464
20730.0 0.0051106
20750.0 0.0050745
20770.0 0.0050378
20790.0 0.005
20810.0 0.0049608
20830.0 0.0049202
20850.0 0.0048781
20870.0 0.0048337
20890.0 0.0047874
20910.0 0.00474
20930.0 0.0046907
20950.0 0.0046393
20970.0 0.0045872
20990.0 0.0045343
21010.0 0.0044793
21030.0 0.0044238
21050.0 0.0043687
21070.0 0.0043129
21090.0 0.004256
21110.0 0.0042008
21130.0 0.0041462
21150.0 0.0040912
21170.0 0.0040372
21190.0 0.003985
21210.0 0.0039329
21230.0 0.0038813
21250.0 0.0038319
21270.0 0.0037839
21290.0 0.0037365
21310.0 0.0036906
21330.0 0.0036472
21350.0 0.0036045
21370.0 0.0035632
21390.0 0.003524
21410.0 0.0034864
21430.0 0.0034497
21450.0 0.0034152
21470.0 0.0033827
21490.0 0.0033515
21510.0 0.0033217
21530.0 0.0032938
21550.0 0.0032672
21570.0 0.0032418
21590.0 0.0032177
21610.0 0.0031949
21630.0 0.0031729
21650.0 0.0031519
21670.0 0.0031317
21690.0 0.0031122
21710.0 0.0030933
21730.0 0.0030748
21750.0 0.0030568
21770.0 0.0030392
21790.0 0.003022
21810.0 0.003005
21830.0 0.0029882
21850.0 0.0029718
21870.0 0.0029555
21890.0 0.0029394
21910.0 0.0029235
21930.0 0.0029077
21950.0 0.002892
21970.0 0.0028763
21990.0 0.0028606
22010.0 0.0028448
22030.0 0.0028289
22050.0 0.0028128
22070.0 0.0027964
22090.0 0.0027799
22110.0 0.0027629
22130.0 0.0027456
22150.0 0.0027279
22170.0 0.0027099
22190.0 0.0026913
22210.0 0.0026723
22230.0 0.0026532
22250.0 0.0026334
22270.0 0.0026131
22290.0 0.0025926
22310.0 0.0025716
22330.0 0.0025497
22350.0 0.0025273
22370.0 0.0025045
22390.0 0.0024808
22410.0 0.0024559
22430.0 0.0024307
22450.0 0.0024047
22470.0 0.0023772
22490.0 0.0023489
22510.0 0.0023203
22530.0 0.00229
22550.0 0.0022584
22570.0 0.0022269
22590.0 0.0021947
22610.0 0.0021613
22630.0 0.0021277
22650.0 0.002095
22670.0 0.0020613
22690.0 0.0020276
22710.0 0.001995
22730.0 0.0019631
22750.0 0.0019305
22770.0 0.0018998
22790.0 0.0018708
22810.0 0.0018422
22830.0 0.0018146
22850.0 0.0017891
22870.0 0.0017647
22890.0 0.001741
22910.0 0.0017191
22930.0 0.0016987
22950.0 0.001679
22970.0 0.0016602
22990.0 0.0016432
23010.0 0.0016269
23030.0 0.0016112
23050.0 0.0015963
23070.0 0.0015823
23090.0 0.0015683
23110.0 0.0015548
23130.0 0.001542
23150.0 0.0015293
23170.0 0.0015167
23190.0 0.0015045
23210.0 0.0014927
23230.0 0.0014809
23250.0 0.0014694
23270.0 0.0014583
23290.0 0.0014475
23310.0 0.0014368
23330.0 0.0014267
23350.0 0.0014172
23370.0 0.0014079
23390.0 0.0013992
23410.0 0.0013911
23430.0 0.0013833
23450.0 0.0013759
23470.0 0.0013691
23490.0 0.0013627
23510.0 0.0013566
23530.0 0.0013509
23550.0 0.0013456
23570.0 0.0013407
23590.0 0.0013361
23610.0 0.001332
23630.0 0.0013283
23650.0 0.0013252
23670.0 0.0013227
23690.0 0.0013209
23710.0 0.00132
23730.0 0.0013203
23750.0 0.0013215
23770.0 0.001324
23790.0 0.0013282
23810.0 0.0013338
23830.0 0.0013408
23850.0 0.00135
23870.0 0.0013612
23890.0 0.0013735
23910.0 0.0013874
23930.0 0.0014034
23950.0 0.0014203
23970.0 0.0014374
23990.0 0.0014559
24010.0 0.0014751
24030.0 0.0014935
24050.0 0.0015118
24070.0 0.0015309
24090.0 0.0015484
24110.0 0.0015646
24130.0 0.0015807
24150.0 0.0015961
24170.0 0.00161
24190.0 0.0016234
24210.0 0.0016367
24230.0 0.001649
24250.0 0.0016606
24270.0 0.0016723
24290.0 0.0016839
24310.0 0.0016945
24330.0 0.0017052
24350.0 0.0017161
24370.0 0.0017266
24390.0 0.0017367
24410.0 0.0017476
24430.0 0.0017582
24450.0 0.0017685
24470.0 0.0017788
24490.0 0.0017895
24510.0 0.0017995
24530.0 0.0018091
24550.0 0.0018189
24570.0 0.0018282
24590.0 0.0018366
24610.0 0.0018446
24630.0 0.0018523
24650.0 0.0018587
24670.0 0.0018644
24690.0 0.0018696
