#lamb flux
1010.0 1.2706e-09
1030.0 1.4053e-09
1050.0 1.5602e-09
1070.0 1.7346e-09
1090.0 1.9327e-09
1110.0 2.1359e-09
1130.0 2.3404e-09
1150.0 2.5546e-09
1170.0 2.7755e-09
1190.0 2.9851e-09
1210.0 3.1974e-09
1230.0 3.4168e-09
1250.0 3.6318e-09
1270.0 3.8406e-09
1290.0 4.0612e-09
1310.0 4.2817e-09
1330.0 4.4931e-09
1350.0 4.7069e-09
1370.0 4.9276e-09
1390.0 5.1428e-09
1410.0 5.3517e-09
1430.0 5.57e-09
1450.0 5.7883e-09
1470.0 5.9993e-09
1490.0 6.2126e-09
1510.0 6.4379e-09
1530.0 6.6514e-09
1550.0 6.8621e-09
1570.0 7.0801e-09
1590.0 7.2983e-09
1610.0 7.5069e-09
1630.0 7.722e-09
1650.0 7.9429e-09
1670.0 8.1567e-09
1690.0 8.3678e-09
1710.0 8.5873e-09
1730.0 8.8081e-09
1750.0 9.016e-09
1770.0 9.2302e-09
1790.0 9.449e-09
1810.0 9.6611e-09
1830.0 9.8697e-09
1850.0 1.0091e-08
1870.0 1.0308e-08
1890.0 1.0517e-08
1910.0 1.0731e-08
1930.0 1.0951e-08
1950.0 1.1161e-08
1970.0 1.1369e-08
1990.0 1.1586e-08
2010.0 1.1799e-08
2030.0 1.2005e-08
2050.0 1.2218e-08
2070.0 1.2437e-08
2090.0 1.2644e-08
2110.0 1.2851e-08
2130.0 1.3064e-08
2150.0 1.3274e-08
2170.0 1.3475e-08
2190.0 1.3684e-08
2210.0 1.3895e-08
2230.0 1.4098e-08
2250.0 1.4299e-08
2270.0 1.4511e-08
2290.0 1.4716e-08
2310.0 1.4913e-08
2330.0 1.5118e-08
2350.0 1.5328e-08
2370.0 1.5538e-08
2390.0 1.5765e-08
2410.0 1.6034e-08
2430.0 1.6343e-08
2450.0 1.6713e-08
2470.0 1.7187e-08
2490.0 1.7784e-08
2510.0 1.8463e-08
2530.0 1.9281e-08
2550.0 2.0304e-08
2570.0 2.1576e-08
2590.0 2.3232e-08
2610.0 2.571e-08
2630.0 2.9248e-08
2650.0 3.3875e-08
2670.0 3.9857e-08
2690.0 4.7208e-08
2710.0 5.5055e-08
2730.0 6.2809e-08
2750.0 7.0446e-08
2770.0 7.7089e-08
2790.0 8.2364e-08
2810.0 8.655e-08
2830.0 8.9821e-08
2850.0 9.2053e-08
2870.0 9.3692e-08
2890.0 9.499e-08
2910.0 9.6025e-08
2930.0 9.6871e-08
2950.0 9.7679e-08
2970.0 9.8469e-08
2990.0 9.9209e-08
3010.0 2.8042e-06
3030.0 2.8252e-06
3050.0 2.8454e-06
3070.0 2.8628e-06
3090.0 2.8777e-06
3110.0 2.887e-06
3130.0 2.8866e-06
3150.0 2.8738e-06
3170.0 2.843e-06
3190.0 2.7947e-06
3210.0 2.7334e-06
3230.0 2.6632e-06
3250.0 2.5939e-06
3270.0 2.5433e-06
3290.0 2.5152e-06
3310.0 2.5198e-06
3330.0 2.5563e-06
3350.0 2.6198e-06
3370.0 2.7104e-06
3390.0 2.8247e-06
3410.0 2.9491e-06
3430.0 3.0887e-06
3450.0 3.2494e-06
3470.0 3.425e-06
3490.0 3.611e-06
3510.0 3.8212e-06
3530.0 4.0464e-06
3550.0 4.2743e-06
3570.0 4.5121e-06
3590.0 4.7707e-06
3610.0 5.0372e-06
3630.0 5.3029e-06
3650.0 5.5785e-06
3670.0 5.8301e-06
3690.0 6.0182e-06
3710.0 6.126e-06
3730.0 6.1295e-06
3750.0 6.0442e-06
3770.0 6.0107e-06
3790.0 5.975e-06
3810.0 5.8282e-06
3830.0 6.0086e-06
3850.0 6.7183e-06
3870.0 7.1079e-06
3890.0 7.0754e-06
3910.0 7.1056e-06
3930.0 7.2927e-06
3950.0 7.4078e-06
3970.0 6.7492e-06
3990.0 5.8074e-06
4010.0 1.7405e-05
4030.0 2.1089e-05
4050.0 2.4177e-05
4070.0 2.0978e-05
4090.0 1.9e-05
4110.0 1.6765e-05
4130.0 1.5431e-05
4150.0 1.6414e-05
4170.0 1.6168e-05
4190.0 1.7234e-05
4210.0 1.7077e-05
4230.0 1.8062e-05
4250.0 2.1368e-05
4270.0 2.1619e-05
4290.0 1.9922e-05
4310.0 2.07e-05
4330.0 2.2019e-05
4350.0 2.4689e-05
4370.0 2.8096e-05
4390.0 2.6365e-05
4410.0 1.948e-05
4430.0 1.6491e-05
4450.0 1.5153e-05
4470.0 1.163e-05
4490.0 1.2551e-05
4510.0 1.8958e-05
4530.0 2.1864e-05
4550.0 2.2054e-05
4570.0 2.4816e-05
4590.0 2.8268e-05
4610.0 3.8127e-05
4630.0 4.9519e-05
4650.0 5.3703e-05
4670.0 4.9734e-05
4690.0 4.7455e-05
4710.0 5.0163e-05
4730.0 4.734e-05
4750.0 3.5393e-05
4770.0 2.5962e-05
4790.0 2.4243e-05
4810.0 2.3108e-05
4830.0 2.1155e-05
4850.0 2.3214e-05
4870.0 3.0668e-05
4890.0 3.6166e-05
4910.0 3.1731e-05
4930.0 2.8078e-05
4950.0 3.0847e-05
4970.0 3.956e-05
4990.0 5.3613e-05
5010.0 6.1675e-05
5030.0 5.4383e-05
5050.0 3.6794e-05
5070.0 2.4248e-05
5090.0 1.9553e-05
5110.0 2.0108e-05
5130.0 2.3208e-05
5150.0 2.5144e-05
5170.0 2.4767e-05
5190.0 2.3143e-05
5210.0 2.419e-05
5230.0 2.5429e-05
5250.0 2.7405e-05
5270.0 2.9568e-05
5290.0 3.2768e-05
5310.0 3.8141e-05
5330.0 4.2208e-05
5350.0 4.1939e-05
5370.0 4.4053e-05
5390.0 5.0552e-05
5410.0 5.0507e-05
5430.0 4.4666e-05
5450.0 4.1038e-05
5470.0 4.3575e-05
5490.0 5.3236e-05
5510.0 6.6564e-05
5530.0 7.6346e-05
5550.0 7.379e-05
5570.0 6.7081e-05
5590.0 5.8328e-05
5610.0 5.3791e-05
5630.0 5.2161e-05
5650.0 4.9678e-05
5670.0 4.7074e-05
5690.0 4.2085e-05
5710.0 4.1033e-05
5730.0 3.7798e-05
5750.0 2.665e-05
5770.0 2.0791e-05
5790.0 2.3561e-05
5810.0 2.6605e-05
5830.0 3.2648e-05
5850.0 3.8864e-05
5870.0 4.312e-05
5890.0 4.3851e-05
5910.0 4.3021e-05
5930.0 4.0951e-05
5950.0 4.1728e-05
5970.0 4.7566e-05
5990.0 4.4724e-05
6010.0 3.7492e-05
6030.0 3.1676e-05
6050.0 2.7585e-05
6070.0 2.7435e-05
6090.0 2.9748e-05
6110.0 3.3264e-05
6130.0 3.3773e-05
6150.0 2.9059e-05
6170.0 2.5563e-05
6190.0 2.8767e-05
6210.0 3.803e-05
6230.0 4.9906e-05
6250.0 5.4055e-05
6270.0 4.7237e-05
6290.0 3.9743e-05
6310.0 3.1026e-05
6330.0 2.3772e-05
6350.0 2.1204e-05
6370.0 2.2298e-05
6390.0 2.5778e-05
6410.0 3.1785e-05
6430.0 3.7117e-05
6450.0 4.2471e-05
6470.0 4.863e-05
6490.0 5.8742e-05
6510.0 6.5681e-05
6530.0 6.4437e-05
6550.0 5.8269e-05
6570.0 4.9465e-05
6590.0 4.4604e-05
6610.0 3.846e-05
6630.0 3.4843e-05
6650.0 3.2937e-05
6670.0 3.1997e-05
6690.0 2.8911e-05
6710.0 2.6281e-05
6730.0 1.893e-05
6750.0 1.8767e-05
6770.0 2.0398e-05
6790.0 2.3446e-05
6810.0 2.1454e-05
6830.0 2.2091e-05
6850.0 2.0663e-05
6870.0 1.8875e-05
6890.0 1.8123e-05
6910.0 1.9313e-05
6930.0 1.8089e-05
6950.0 1.861e-05
6970.0 1.9575e-05
6990.0 2.2219e-05
7010.0 2.2408e-05
7030.0 2.2764e-05
7050.0 2.1709e-05
7070.0 2.0685e-05
7090.0 2.0746e-05
7110.0 2.1346e-05
7130.0 2.2971e-05
7150.0 2.4397e-05
7170.0 2.6921e-05
7190.0 2.9594e-05
7210.0 2.908e-05
7230.0 2.9894e-05
7250.0 3.2126e-05
7270.0 3.501e-05
7290.0 4.1553e-05
7310.0 4.5089e-05
7330.0 4.3582e-05
7350.0 3.9417e-05
7370.0 3.4297e-05
7390.0 3.3272e-05
7410.0 3.5358e-05
7430.0 3.9296e-05
7450.0 4.2801e-05
7470.0 4.2407e-05
7490.0 3.8667e-05
7510.0 4.3801e-05
7530.0 4.3321e-05
7550.0 3.8938e-05
7570.0 3.0418e-05
7590.0 2.0911e-05
7610.0 1.7948e-05
7630.0 2.0392e-05
7650.0 2.4111e-05
7670.0 3.0008e-05
7690.0 3.3021e-05
7710.0 3.4412e-05
7730.0 3.6163e-05
7750.0 4.0597e-05
7770.0 4.1235e-05
7790.0 3.7876e-05
7810.0 3.456e-05
7830.0 3.5639e-05
7850.0 3.4644e-05
7870.0 3.1763e-05
7890.0 2.6687e-05
7910.0 2.1693e-05
7930.0 2.0714e-05
7950.0 1.8871e-05
7970.0 1.7468e-05
7990.0 1.7368e-05
8010.0 1.2864e-06
8030.0 1.2696e-06
8050.0 1.2525e-06
8070.0 1.2689e-06
8090.0 1.3634e-06
8110.0 1.3402e-06
8130.0 1.1055e-06
8150.0 1.0766e-06
8170.0 9.2734e-07
8190.0 8.7886e-07
8210.0 1.1413e-06
8230.0 1.2707e-06
8250.0 1.1452e-06
8270.0 9.9677e-07
8290.0 9.7167e-07
8310.0 7.4784e-07
8330.0 5.0404e-07
8350.0 3.5771e-07
8370.0 2.2537e-07
8390.0 4.1198e-07
8410.0 4.8007e-07
8430.0 5.9175e-07
8450.0 6.9488e-07
8470.0 8.6369e-07
8490.0 8.576e-07
8510.0 8.4358e-07
8530.0 8.8039e-07
8550.0 1.1878e-06
8570.0 1.4062e-06
8590.0 1.5173e-06
8610.0 1.9167e-06
8630.0 2.3089e-06
8650.0 2.4153e-06
8670.0 2.5668e-06
8690.0 2.5812e-06
8710.0 2.3376e-06
8730.0 2.1743e-06
8750.0 1.9193e-06
8770.0 1.8211e-06
8790.0 1.7891e-06
8810.0 1.7144e-06
8830.0 1.3709e-06
8850.0 1.0036e-06
8870.0 7.6844e-07
8890.0 7.5127e-07
8910.0 8.6097e-07
8930.0 9.7929e-07
8950.0 9.9804e-07
8970.0 1.0028e-06
8990.0 8.9434e-07
9010.0 9.3723e-06
9030.0 8.4924e-06
9050.0 8.5334e-06
9070.0 8.6008e-06
9090.0 8.6599e-06
9110.0 8.7328e-06
9130.0 8.7891e-06
9150.0 8.8329e-06
9170.0 8.8795e-06
9190.0 8.9293e-06
9210.0 8.9818e-06
9230.0 9.0371e-06
9250.0 9.0933e-06
9270.0 9.1517e-06
9290.0 9.2118e-06
9310.0 9.2723e-06
9330.0 9.334e-06
9350.0 9.398e-06
9370.0 9.4627e-06
9390.0 9.528e-06
9410.0 9.5953e-06
9430.0 9.6645e-06
9450.0 9.7336e-06
9470.0 9.804e-06
9490.0 9.8765e-06
9510.0 9.9499e-06
9530.0 1.0024e-05
9550.0 1.01e-05
9570.0 1.0177e-05
9590.0 1.0255e-05
9610.0 1.0334e-05
9630.0 1.0416e-05
9650.0 1.0498e-05
9670.0 1.058e-05
9690.0 1.0664e-05
9710.0 1.075e-05
9730.0 1.0836e-05
9750.0 1.0923e-05
9770.0 1.1012e-05
9790.0 1.1102e-05
9810.0 1.1192e-05
9830.0 1.1284e-05
9850.0 1.1377e-05
9870.0 1.147e-05
9890.0 1.1564e-05
9910.0 1.166e-05
9930.0 1.1756e-05
9950.0 1.1852e-05
9970.0 1.195e-05
9990.0 1.205e-05
10010.0 1.0456e-05
10030.0 1.0542e-05
10050.0 1.0629e-05
10070.0 1.072e-05
10090.0 1.0805e-05
10110.0 1.0893e-05
10130.0 1.0981e-05
10150.0 1.1068e-05
10170.0 1.1157e-05
10190.0 1.1247e-05
10210.0 1.1336e-05
10230.0 1.1425e-05
10250.0 1.1515e-05
10270.0 1.1605e-05
10290.0 1.1695e-05
10310.0 1.1785e-05
10330.0 1.1876e-05
10350.0 1.1965e-05
10370.0 1.2055e-05
10390.0 1.2145e-05
10410.0 1.2235e-05
10430.0 1.2323e-05
10450.0 1.2412e-05
10470.0 1.2501e-05
10490.0 1.2589e-05
10510.0 1.2676e-05
10530.0 1.2764e-05
10550.0 1.2852e-05
10570.0 1.2937e-05
10590.0 1.3022e-05
10610.0 1.3108e-05
10630.0 1.3192e-05
10650.0 1.3274e-05
10670.0 1.3358e-05
10690.0 1.344e-05
10710.0 1.3521e-05
10730.0 1.3601e-05
10750.0 1.3682e-05
10770.0 1.3759e-05
10790.0 1.3836e-05
10810.0 1.3912e-05
10830.0 1.3986e-05
10850.0 1.4057e-05
10870.0 1.4125e-05
10890.0 1.4185e-05
10910.0 1.4231e-05
10930.0 1.4258e-05
10950.0 1.4251e-05
10970.0 1.4203e-05
10990.0 1.4108e-05
11010.0 1.395e-05
11030.0 1.3728e-05
11050.0 1.3458e-05
11070.0 1.3134e-05
11090.0 1.2746e-05
11110.0 1.2344e-05
11130.0 1.1924e-05
11150.0 1.1473e-05
11170.0 1.1008e-05
11190.0 1.0556e-05
11210.0 1.009e-05
11230.0 9.6121e-06
11250.0 9.1553e-06
11270.0 8.7167e-06
11290.0 8.2773e-06
11310.0 7.861e-06
11330.0 7.4944e-06
11350.0 7.1481e-06
11370.0 6.828e-06
11390.0 6.5511e-06
11410.0 6.3089e-06
11430.0 6.0839e-06
11450.0 5.89e-06
11470.0 5.7222e-06
11490.0 5.5662e-06
11510.0 5.4159e-06
11530.0 5.2764e-06
11550.0 5.1378e-06
11570.0 4.9899e-06
11590.0 4.8368e-06
11610.0 4.681e-06
11630.0 4.5114e-06
11650.0 4.3297e-06
11670.0 4.1508e-06
11690.0 3.9693e-06
11710.0 3.782e-06
11730.0 3.6006e-06
11750.0 3.4327e-06
11770.0 3.268e-06
11790.0 3.1137e-06
11810.0 2.9778e-06
11830.0 2.8563e-06
11850.0 2.7444e-06
11870.0 2.6508e-06
11890.0 2.573e-06
11910.0 2.5046e-06
11930.0 2.4458e-06
11950.0 2.3969e-06
11970.0 2.3531e-06
11990.0 2.3118e-06
12010.0 2.2736e-06
12030.0 2.2367e-06
12050.0 2.1986e-06
12070.0 2.159e-06
12090.0 2.1208e-06
12110.0 2.082e-06
12130.0 2.0431e-06
12150.0 2.0073e-06
12170.0 1.9761e-06
12190.0 1.949e-06
12210.0 1.9301e-06
12230.0 1.921e-06
12250.0 1.9225e-06
12270.0 1.937e-06
12290.0 1.9644e-06
12310.0 2.0037e-06
12330.0 2.0587e-06
12350.0 2.1273e-06
12370.0 2.2055e-06
12390.0 2.2956e-06
12410.0 2.4011e-06
12430.0 2.5085e-06
12450.0 2.6196e-06
12470.0 2.7377e-06
12490.0 2.8564e-06
12510.0 2.9677e-06
12530.0 3.0785e-06
12550.0 3.1853e-06
12570.0 3.2796e-06
12590.0 3.3624e-06
12610.0 3.4362e-06
12630.0 3.4951e-06
12650.0 3.5356e-06
12670.0 3.5623e-06
12690.0 3.573e-06
12710.0 3.5671e-06
12730.0 3.5464e-06
12750.0 3.5096e-06
12770.0 3.4589e-06
12790.0 3.3975e-06
12810.0 3.3242e-06
12830.0 3.2394e-06
12850.0 3.1507e-06
12870.0 3.0569e-06
12890.0 2.9554e-06
12910.0 2.8523e-06
12930.0 2.7506e-06
12950.0 2.6445e-06
12970.0 2.5365e-06
12990.0 2.4343e-06
13010.0 2.3334e-06
13030.0 2.2314e-06
13050.0 2.1334e-06
13070.0 2.0416e-06
13090.0 1.9495e-06
13110.0 1.8604e-06
13130.0 1.7782e-06
13150.0 1.7004e-06
13170.0 1.6242e-06
13190.0 1.5564e-06
13210.0 1.4967e-06
13230.0 1.4422e-06
13250.0 1.3952e-06
13270.0 1.3581e-06
13290.0 1.3293e-06
13310.0 1.3095e-06
13330.0 1.3004e-06
13350.0 1.3015e-06
13370.0 1.3132e-06
13390.0 1.3361e-06
13410.0 1.3671e-06
13430.0 1.4074e-06
13450.0 1.4571e-06
13470.0 1.5124e-06
13490.0 1.5709e-06
13510.0 1.6369e-06
13530.0 1.7037e-06
13550.0 1.7678e-06
13570.0 1.8309e-06
13590.0 1.8924e-06
13610.0 1.9472e-06
13630.0 1.995e-06
13650.0 2.0386e-06
13670.0 2.0748e-06
13690.0 2.1028e-06
13710.0 2.1245e-06
13730.0 2.1399e-06
13750.0 2.1477e-06
13770.0 2.1494e-06
13790.0 2.1455e-06
13810.0 2.1361e-06
13830.0 2.1221e-06
13850.0 2.1031e-06
13870.0 2.0792e-06
13890.0 2.0518e-06
13910.0 2.021e-06
13930.0 1.9853e-06
13950.0 1.9464e-06
13970.0 1.9066e-06
13990.0 1.8632e-06
14010.0 1.8171e-06
14030.0 1.7711e-06
14050.0 1.7247e-06
14070.0 1.6758e-06
14090.0 1.6289e-06
14110.0 1.5848e-06
14130.0 1.5421e-06
14150.0 1.5019e-06
14170.0 1.4676e-06
14190.0 1.4379e-06
14210.0 1.4127e-06
14230.0 1.3941e-06
14250.0 1.382e-06
14270.0 1.3762e-06
14290.0 1.3774e-06
14310.0 1.3851e-06
14330.0 1.3989e-06
14350.0 1.4192e-06
14370.0 1.4444e-06
14390.0 1.4732e-06
14410.0 1.507e-06
14430.0 1.5441e-06
14450.0 1.582e-06
14470.0 1.6213e-06
14490.0 1.6632e-06
14510.0 1.7032e-06
14530.0 1.7412e-06
14550.0 1.7792e-06
14570.0 1.8156e-06
14590.0 1.8488e-06
14610.0 1.8809e-06
14630.0 1.9127e-06
14650.0 1.9423e-06
14670.0 1.9708e-06
14690.0 2.0006e-06
14710.0 2.032e-06
14730.0 2.0633e-06
14750.0 2.098e-06
14770.0 2.1374e-06
14790.0 2.18e-06
14810.0 2.2263e-06
14830.0 2.281e-06
14850.0 2.3406e-06
14870.0 2.4027e-06
14890.0 2.4697e-06
14910.0 2.5409e-06
14930.0 2.6094e-06
14950.0 2.6733e-06
14970.0 2.7339e-06
14990.0 2.7846e-06
15010.0 2.8235e-06
15030.0 2.8522e-06
15050.0 2.8712e-06
15070.0 2.8805e-06
15090.0 2.8838e-06
15110.0 2.8828e-06
15130.0 2.8792e-06
15150.0 2.8743e-06
15170.0 2.8686e-06
15190.0 2.8624e-06
15210.0 2.8563e-06
15230.0 2.8503e-06
15250.0 2.844e-06
15270.0 2.8377e-06
15290.0 2.8318e-06
15310.0 2.8258e-06
15330.0 2.8197e-06
15350.0 2.8138e-06
15370.0 2.808e-06
15390.0 2.8018e-06
15410.0 2.7959e-06
15430.0 2.7902e-06
15450.0 2.7843e-06
15470.0 2.7783e-06
15490.0 2.7727e-06
15510.0 2.767e-06
15530.0 2.7612e-06
15550.0 2.7555e-06
15570.0 2.7499e-06
15590.0 2.7442e-06
15610.0 2.7384e-06
15630.0 2.7329e-06
15650.0 2.7273e-06
15670.0 2.7216e-06
15690.0 2.716e-06
15710.0 2.7107e-06
15730.0 2.7051e-06
15750.0 2.6994e-06
15770.0 2.694e-06
15790.0 2.6886e-06
15810.0 2.6829e-06
15830.0 2.6775e-06
15850.0 2.6722e-06
15870.0 2.6667e-06
15890.0 2.6611e-06
15910.0 2.6559e-06
15930.0 2.6505e-06
15950.0 2.6449e-06
15970.0 2.6395e-06
15990.0 2.6343e-06
16010.0 2.6288e-06
16030.0 2.6233e-06
16050.0 2.6181e-06
16070.0 2.6127e-06
16090.0 2.6073e-06
16110.0 2.602e-06
16130.0 2.5968e-06
16150.0 2.5912e-06
16170.0 2.5858e-06
16190.0 2.5805e-06
16210.0 2.5752e-06
16230.0 2.5697e-06
16250.0 2.5644e-06
16270.0 2.5592e-06
16290.0 2.5537e-06
16310.0 2.5483e-06
16330.0 2.5431e-06
16350.0 2.5377e-06
16370.0 2.5321e-06
16390.0 2.5268e-06
16410.0 2.5215e-06
16430.0 2.516e-06
16450.0 2.5106e-06
16470.0 2.5054e-06
16490.0 2.4999e-06
16510.0 2.4944e-06
16530.0 2.489e-06
16550.0 2.4837e-06
16570.0 2.4781e-06
16590.0 2.4726e-06
16610.0 2.4673e-06
16630.0 2.4618e-06
16650.0 2.4562e-06
16670.0 2.4509e-06
16690.0 2.4455e-06
16710.0 2.4398e-06
16730.0 2.4342e-06
16750.0 2.4288e-06
16770.0 2.4232e-06
16790.0 2.4175e-06
16810.0 2.4121e-06
16830.0 2.4066e-06
16850.0 2.4009e-06
16870.0 2.3953e-06
16890.0 2.3899e-06
16910.0 2.3841e-06
16930.0 2.3783e-06
16950.0 2.3728e-06
16970.0 2.3672e-06
16990.0 2.3614e-06
17010.0 2.3557e-06
17030.0 2.3502e-06
17050.0 2.3443e-06
17070.0 2.3385e-06
17090.0 2.3329e-06
17110.0 2.3272e-06
17130.0 2.3211e-06
17150.0 2.3154e-06
17170.0 2.3097e-06
17190.0 2.3038e-06
17210.0 2.2979e-06
17230.0 2.2922e-06
17250.0 2.2864e-06
17270.0 2.2803e-06
17290.0 2.2744e-06
17310.0 2.2686e-06
17330.0 2.2626e-06
17350.0 2.2565e-06
17370.0 2.2508e-06
17390.0 2.2448e-06
17410.0 2.2387e-06
17430.0 2.2328e-06
17450.0 2.2269e-06
17470.0 2.2206e-06
17490.0 2.2145e-06
17510.0 2.2086e-06
17530.0 2.2025e-06
17550.0 2.1963e-06
17570.0 2.1902e-06
17590.0 2.1843e-06
17610.0 2.178e-06
17630.0 2.1718e-06
17650.0 2.1658e-06
17670.0 2.1596e-06
17690.0 2.1531e-06
17710.0 2.1471e-06
17730.0 2.1409e-06
17750.0 2.1346e-06
17770.0 2.1283e-06
17790.0 2.1223e-06
17810.0 2.1159e-06
17830.0 2.1095e-06
17850.0 2.1033e-06
17870.0 2.097e-06
17890.0 2.0905e-06
17910.0 2.0841e-06
17930.0 2.078e-06
17950.0 2.0716e-06
17970.0 2.0651e-06
17990.0 2.0589e-06
18010.0 2.0526e-06
18030.0 2.0459e-06
18050.0 2.0395e-06
18070.0 2.0332e-06
18090.0 2.0267e-06
18110.0 2.0201e-06
18130.0 2.0138e-06
18150.0 2.0074e-06
18170.0 2.0008e-06
18190.0 1.9943e-06
18210.0 1.988e-06
18230.0 1.9814e-06
18250.0 1.9747e-06
18270.0 1.9683e-06
18290.0 1.9618e-06
18310.0 1.9551e-06
18330.0 1.9486e-06
18350.0 1.9422e-06
18370.0 1.9355e-06
18390.0 1.9289e-06
18410.0 1.9224e-06
18430.0 1.9159e-06
18450.0 1.909e-06
18470.0 1.9025e-06
18490.0 1.896e-06
18510.0 1.8893e-06
18530.0 1.8826e-06
18550.0 1.8762e-06
18570.0 1.8696e-06
18590.0 1.8627e-06
18610.0 1.8561e-06
18630.0 1.8496e-06
18650.0 1.8428e-06
18670.0 1.836e-06
18690.0 1.8296e-06
18710.0 1.8229e-06
18730.0 1.8161e-06
18750.0 1.8095e-06
18770.0 1.803e-06
18790.0 1.7961e-06
18810.0 1.7893e-06
18830.0 1.7828e-06
18850.0 1.7761e-06
18870.0 1.7692e-06
18890.0 1.7627e-06
18910.0 1.7561e-06
18930.0 1.7492e-06
18950.0 1.7425e-06
18970.0 1.7359e-06
18990.0 1.7292e-06
19010.0 1.7222e-06
19030.0 1.7157e-06
19050.0 1.7091e-06
19070.0 1.7022e-06
19090.0 1.6955e-06
19110.0 1.689e-06
19130.0 1.6822e-06
19150.0 1.6753e-06
19170.0 1.6687e-06
19190.0 1.6621e-06
19210.0 1.6552e-06
19230.0 1.6484e-06
19250.0 1.6419e-06
19270.0 1.6351e-06
19290.0 1.6283e-06
19310.0 1.6218e-06
19330.0 1.6151e-06
19350.0 1.6082e-06
19370.0 1.6015e-06
19390.0 1.5949e-06
19410.0 1.5881e-06
19430.0 1.5813e-06
19450.0 1.5748e-06
19470.0 1.5681e-06
19490.0 1.5613e-06
19510.0 1.5546e-06
19530.0 1.5481e-06
19550.0 1.5413e-06
19570.0 1.5344e-06
19590.0 1.5279e-06
19610.0 1.5212e-06
19630.0 1.5144e-06
19650.0 1.5078e-06
19670.0 1.5013e-06
19690.0 1.4945e-06
19710.0 1.4877e-06
19730.0 1.4812e-06
19750.0 1.4746e-06
19770.0 1.4677e-06
19790.0 1.4611e-06
19810.0 1.4546e-06
19830.0 1.4478e-06
19850.0 1.441e-06
19870.0 1.4343e-06
19890.0 1.4272e-06
19910.0 1.4193e-06
19930.0 1.4109e-06
19950.0 1.4012e-06
19970.0 1.3894e-06
19990.0 1.3751e-06
20010.0 1.2234e-06
20030.0 1.2057e-06
20050.0 1.185e-06
20070.0 1.1625e-06
20090.0 1.1384e-06
20110.0 1.1111e-06
20130.0 1.0834e-06
20150.0 1.056e-06
20170.0 1.0276e-06
20190.0 9.9875e-07
20210.0 9.7152e-07
20230.0 9.4496e-07
20250.0 9.1835e-07
20270.0 8.9365e-07
20290.0 8.711e-07
20310.0 8.4967e-07
20330.0 8.2965e-07
20350.0 8.1302e-07
20370.0 7.9827e-07
20390.0 7.8533e-07
20410.0 7.7488e-07
20430.0 7.6682e-07
20450.0 7.6044e-07
20470.0 7.5616e-07
20490.0 7.5387e-07
20510.0 7.532e-07
20530.0 7.5414e-07
20550.0 7.5646e-07
20570.0 7.5985e-07
20590.0 7.6444e-07
20610.0 7.6999e-07
20630.0 7.7611e-07
20650.0 7.8295e-07
20670.0 7.9077e-07
20690.0 7.9875e-07
20710.0 8.0699e-07
20730.0 8.1589e-07
20750.0 8.2517e-07
20770.0 8.343e-07
20790.0 8.4389e-07
20810.0 8.5403e-07
20830.0 8.6412e-07
20850.0 8.7426e-07
20870.0 8.8512e-07
20890.0 8.9619e-07
20910.0 9.0686e-07
20930.0 9.1794e-07
20950.0 9.2942e-07
20970.0 9.4061e-07
20990.0 9.5165e-07
21010.0 9.6326e-07
21030.0 9.7462e-07
21050.0 9.8545e-07
21070.0 9.9626e-07
21090.0 1.0071e-06
21110.0 1.017e-06
21130.0 1.0263e-06
21150.0 1.0353e-06
21170.0 1.0435e-06
21190.0 1.0505e-06
21210.0 1.0568e-06
21230.0 1.062e-06
21250.0 1.0658e-06
21270.0 1.0681e-06
21290.0 1.069e-06
21310.0 1.0682e-06
21330.0 1.0657e-06
21350.0 1.0612e-06
21370.0 1.0547e-06
21390.0 1.0465e-06
21410.0 1.0364e-06
21430.0 1.0236e-06
21450.0 1.0092e-06
21470.0 9.9352e-07
21490.0 9.7581e-07
21510.0 9.5638e-07
21530.0 9.3665e-07
21550.0 9.1597e-07
21570.0 8.9392e-07
21590.0 8.7223e-07
21610.0 8.5128e-07
21630.0 8.303e-07
21650.0 8.098e-07
21670.0 7.9204e-07
21690.0 7.7565e-07
21710.0 7.609e-07
21730.0 7.4881e-07
21750.0 7.3949e-07
21770.0 7.3238e-07
21790.0 7.283e-07
21810.0 7.2717e-07
21830.0 7.2878e-07
21850.0 7.3334e-07
21870.0 7.4044e-07
21890.0 7.4962e-07
21910.0 7.6139e-07
21930.0 7.7519e-07
21950.0 7.9015e-07
21970.0 8.0672e-07
21990.0 8.2532e-07
22010.0 8.439e-07
22030.0 8.6278e-07
22050.0 8.826e-07
22070.0 9.0253e-07
22090.0 9.2141e-07
22110.0 9.4043e-07
22130.0 9.5943e-07
22150.0 9.7717e-07
22170.0 9.939e-07
22190.0 1.0105e-06
22210.0 1.0259e-06
22230.0 1.0395e-06
22250.0 1.0523e-06
22270.0 1.064e-06
22290.0 1.0741e-06
22310.0 1.0827e-06
22330.0 1.0903e-06
22350.0 1.0962e-06
22370.0 1.1003e-06
22390.0 1.1029e-06
22410.0 1.1038e-06
22430.0 1.1027e-06
22450.0 1.0999e-06
22470.0 1.095e-06
22490.0 1.0881e-06
22510.0 1.0795e-06
22530.0 1.0685e-06
22550.0 1.0551e-06
22570.0 1.0403e-06
22590.0 1.0235e-06
22610.0 1.0043e-06
