#lamb flux
1010.0 3.7906e-09
1030.0 4.1924e-09
1050.0 4.6546e-09
1070.0 5.1749e-09
1090.0 5.7658e-09
1110.0 6.372e-09
1130.0 6.982e-09
1150.0 7.621e-09
1170.0 8.2802e-09
1190.0 8.9053e-09
1210.0 9.5388e-09
1230.0 1.0193e-08
1250.0 1.0835e-08
1270.0 1.1458e-08
1290.0 1.2116e-08
1310.0 1.2773e-08
1330.0 1.3404e-08
1350.0 1.4042e-08
1370.0 1.4701e-08
1390.0 1.5343e-08
1410.0 1.5966e-08
1430.0 1.6617e-08
1450.0 1.7268e-08
1470.0 1.7898e-08
1490.0 1.8534e-08
1510.0 1.9206e-08
1530.0 1.9843e-08
1550.0 2.0472e-08
1570.0 2.1122e-08
1590.0 2.1773e-08
1610.0 2.2395e-08
1630.0 2.3037e-08
1650.0 2.3696e-08
1670.0 2.4334e-08
1690.0 2.4964e-08
1710.0 2.5618e-08
1730.0 2.6277e-08
1750.0 2.6897e-08
1770.0 2.7536e-08
1790.0 2.8189e-08
1810.0 2.8822e-08
1830.0 2.9444e-08
1850.0 3.0106e-08
1870.0 3.0751e-08
1890.0 3.1376e-08
1910.0 3.2015e-08
1930.0 3.267e-08
1950.0 3.3297e-08
1970.0 3.3918e-08
1990.0 3.4564e-08
2010.0 3.5201e-08
2030.0 3.5816e-08
2050.0 3.6451e-08
2070.0 3.7104e-08
2090.0 3.7721e-08
2110.0 3.8338e-08
2130.0 3.8975e-08
2150.0 3.9601e-08
2170.0 4.02e-08
2190.0 4.0824e-08
2210.0 4.1453e-08
2230.0 4.2057e-08
2250.0 4.2659e-08
2270.0 4.329e-08
2290.0 4.3901e-08
2310.0 4.4489e-08
2330.0 4.5101e-08
2350.0 4.5729e-08
2370.0 4.6354e-08
2390.0 4.7032e-08
2410.0 4.7834e-08
2430.0 4.8757e-08
2450.0 4.9861e-08
2470.0 5.1274e-08
2490.0 5.3056e-08
2510.0 5.5082e-08
2530.0 5.752e-08
2550.0 6.0571e-08
2570.0 6.4368e-08
2590.0 6.9306e-08
2610.0 7.67e-08
2630.0 8.7257e-08
2650.0 1.0106e-07
2670.0 1.1891e-07
2690.0 1.4084e-07
2710.0 1.6425e-07
2730.0 1.8738e-07
2750.0 2.1016e-07
2770.0 2.2998e-07
2790.0 2.4572e-07
2810.0 2.582e-07
2830.0 2.6796e-07
2850.0 2.7462e-07
2870.0 2.7951e-07
2890.0 2.8338e-07
2910.0 2.8647e-07
2930.0 2.89e-07
2950.0 2.914e-07
2970.0 2.9376e-07
2990.0 2.9597e-07
3010.0 8.3657e-06
3030.0 8.4283e-06
3050.0 8.4887e-06
3070.0 8.5405e-06
3090.0 8.585e-06
3110.0 8.6126e-06
3130.0 8.6115e-06
3150.0 8.5733e-06
3170.0 8.4815e-06
3190.0 8.3372e-06
3210.0 8.1544e-06
3230.0 7.9451e-06
3250.0 7.7385e-06
3270.0 7.5875e-06
3290.0 7.5037e-06
3310.0 7.5172e-06
3330.0 7.626e-06
3350.0 7.8155e-06
3370.0 8.086e-06
3390.0 8.4269e-06
3410.0 8.7979e-06
3430.0 9.2145e-06
3450.0 9.6939e-06
3470.0 1.0218e-05
3490.0 1.0773e-05
3510.0 1.14e-05
3530.0 1.2071e-05
3550.0 1.2752e-05
3570.0 1.3461e-05
3590.0 1.4232e-05
3610.0 1.5027e-05
3630.0 1.582e-05
3650.0 1.6642e-05
3670.0 1.7393e-05
3690.0 1.7954e-05
3710.0 1.8276e-05
3730.0 1.8286e-05
3750.0 1.8032e-05
3770.0 1.7932e-05
3790.0 1.7825e-05
3810.0 1.7387e-05
3830.0 1.7925e-05
3850.0 2.0043e-05
3870.0 2.1205e-05
3890.0 2.1108e-05
3910.0 2.1198e-05
3930.0 2.1756e-05
3950.0 2.21e-05
3970.0 2.0135e-05
3990.0 1.7325e-05
4010.0 5.1925e-05
4030.0 6.2915e-05
4050.0 7.2128e-05
4070.0 6.2583e-05
4090.0 5.6682e-05
4110.0 5.0016e-05
4130.0 4.6035e-05
4150.0 4.8967e-05
4170.0 4.8235e-05
4190.0 5.1415e-05
4210.0 5.0944e-05
4230.0 5.3885e-05
4250.0 6.3748e-05
4270.0 6.4497e-05
4290.0 5.9434e-05
4310.0 6.1756e-05
4330.0 6.5689e-05
4350.0 7.3654e-05
4370.0 8.382e-05
4390.0 7.8656e-05
4410.0 5.8113e-05
4430.0 4.9196e-05
4450.0 4.5206e-05
4470.0 3.4697e-05
4490.0 3.7442e-05
4510.0 5.6558e-05
4530.0 6.5228e-05
4550.0 6.5794e-05
4570.0 7.4035e-05
4590.0 8.4332e-05
4610.0 0.00011374
4630.0 0.00014773
4650.0 0.00016021
4670.0 0.00014837
4690.0 0.00014157
4710.0 0.00014965
4730.0 0.00014123
4750.0 0.00010559
4770.0 7.7452e-05
4790.0 7.2325e-05
4810.0 6.8937e-05
4830.0 6.3111e-05
4850.0 6.9254e-05
4870.0 9.1491e-05
4890.0 0.00010789
4910.0 9.4663e-05
4930.0 8.3763e-05
4950.0 9.2027e-05
4970.0 0.00011802
4990.0 0.00015994
5010.0 0.00018399
5030.0 0.00016224
5050.0 0.00010977
5070.0 7.234e-05
5090.0 5.8331e-05
5110.0 5.9988e-05
5130.0 6.9236e-05
5150.0 7.5012e-05
5170.0 7.3886e-05
5190.0 6.9042e-05
5210.0 7.2165e-05
5230.0 7.5862e-05
5250.0 8.1758e-05
5270.0 8.8211e-05
5290.0 9.7757e-05
5310.0 0.00011379
5330.0 0.00012592
5350.0 0.00012512
5370.0 0.00013142
5390.0 0.00015081
5410.0 0.00015068
5430.0 0.00013325
5450.0 0.00012243
5470.0 0.00013
5490.0 0.00015882
5510.0 0.00019858
5530.0 0.00022776
5550.0 0.00022014
5570.0 0.00020012
5590.0 0.00017401
5610.0 0.00016047
5630.0 0.00015561
5650.0 0.00014821
5670.0 0.00014044
5690.0 0.00012555
5710.0 0.00012241
5730.0 0.00011276
5750.0 7.9504e-05
5770.0 6.2026e-05
5790.0 7.029e-05
5810.0 7.9369e-05
5830.0 9.7398e-05
5850.0 0.00011594
5870.0 0.00012864
5890.0 0.00013082
5910.0 0.00012834
5930.0 0.00012217
5950.0 0.00012449
5970.0 0.0001419
5990.0 0.00013343
6010.0 0.00011185
6030.0 9.4497e-05
6050.0 8.2295e-05
6070.0 8.1845e-05
6090.0 8.8748e-05
6110.0 9.9235e-05
6130.0 0.00010075
6150.0 8.669e-05
6170.0 7.6261e-05
6190.0 8.5821e-05
6210.0 0.00011345
6230.0 0.00014888
6250.0 0.00016126
6270.0 0.00014092
6290.0 0.00011856
6310.0 9.2559e-05
6330.0 7.0918e-05
6350.0 6.3257e-05
6370.0 6.6522e-05
6390.0 7.6903e-05
6410.0 9.4825e-05
6430.0 0.00011073
6450.0 0.0001267
6470.0 0.00014508
6490.0 0.00017524
6510.0 0.00019595
6530.0 0.00019223
6550.0 0.00017383
6570.0 0.00014757
6590.0 0.00013307
6610.0 0.00011474
6630.0 0.00010395
6650.0 9.826e-05
6670.0 9.5457e-05
6690.0 8.6251e-05
6710.0 7.8404e-05
6730.0 5.6473e-05
6750.0 5.5987e-05
6770.0 6.0854e-05
6790.0 6.9947e-05
6810.0 6.4003e-05
6830.0 6.5905e-05
6850.0 6.1642e-05
6870.0 5.631e-05
6890.0 5.4066e-05
6910.0 5.7615e-05
6930.0 5.3964e-05
6950.0 5.552e-05
6970.0 5.8397e-05
6990.0 6.6286e-05
7010.0 6.685e-05
7030.0 6.7912e-05
7050.0 6.4765e-05
7070.0 6.171e-05
7090.0 6.189e-05
7110.0 6.3681e-05
7130.0 6.853e-05
7150.0 7.2784e-05
7170.0 8.0313e-05
7190.0 8.8286e-05
7210.0 8.6753e-05
7230.0 8.9183e-05
7250.0 9.5842e-05
7270.0 0.00010444
7290.0 0.00012396
7310.0 0.00013451
7330.0 0.00013002
7350.0 0.00011759
7370.0 0.00010232
7390.0 9.926e-05
7410.0 0.00010548
7430.0 0.00011723
7450.0 0.00012769
7470.0 0.00012651
7490.0 0.00011536
7510.0 0.00013067
7530.0 0.00012924
7550.0 0.00011616
7570.0 9.0744e-05
7590.0 6.2383e-05
7610.0 5.3544e-05
7630.0 6.0836e-05
7650.0 7.193e-05
7670.0 8.9522e-05
7690.0 9.8512e-05
7710.0 0.00010266
7730.0 0.00010788
7750.0 0.00012111
7770.0 0.00012302
7790.0 0.000113
7810.0 0.0001031
7830.0 0.00010632
7850.0 0.00010335
7870.0 9.4759e-05
7890.0 7.9615e-05
7910.0 6.4716e-05
7930.0 6.1794e-05
7950.0 5.6297e-05
7970.0 5.2113e-05
7990.0 5.1815e-05
8010.0 3.8376e-06
8030.0 3.7877e-06
8050.0 3.7366e-06
8070.0 3.7855e-06
8090.0 4.0674e-06
8110.0 3.9981e-06
8130.0 3.298e-06
8150.0 3.2118e-06
8170.0 2.7665e-06
8190.0 2.6219e-06
8210.0 3.4048e-06
8230.0 3.7908e-06
8250.0 3.4166e-06
8270.0 2.9737e-06
8290.0 2.8988e-06
8310.0 2.231e-06
8330.0 1.5037e-06
8350.0 1.0672e-06
8370.0 6.7235e-07
8390.0 1.229e-06
8410.0 1.4322e-06
8430.0 1.7654e-06
8450.0 2.073e-06
8470.0 2.5766e-06
8490.0 2.5585e-06
8510.0 2.5166e-06
8530.0 2.6265e-06
8550.0 3.5436e-06
8570.0 4.1951e-06
8590.0 4.5265e-06
8610.0 5.7179e-06
8630.0 6.8881e-06
8650.0 7.2057e-06
8670.0 7.6575e-06
8690.0 7.7003e-06
8710.0 6.9737e-06
8730.0 6.4867e-06
8750.0 5.7257e-06
8770.0 5.4328e-06
8790.0 5.3374e-06
8810.0 5.1144e-06
8830.0 4.0898e-06
8850.0 2.994e-06
8870.0 2.2925e-06
8890.0 2.2413e-06
8910.0 2.5685e-06
8930.0 2.9215e-06
8950.0 2.9775e-06
8970.0 2.9915e-06
8990.0 2.6681e-06
9010.0 2.796e-05
9030.0 2.5335e-05
9050.0 2.5458e-05
9070.0 2.5659e-05
9090.0 2.5835e-05
9110.0 2.6052e-05
9130.0 2.622e-05
9150.0 2.6351e-05
9170.0 2.649e-05
9190.0 2.6639e-05
9210.0 2.6795e-05
9230.0 2.696e-05
9250.0 2.7128e-05
9270.0 2.7302e-05
9290.0 2.7481e-05
9310.0 2.7662e-05
9330.0 2.7846e-05
9350.0 2.8037e-05
9370.0 2.823e-05
9390.0 2.8425e-05
9410.0 2.8625e-05
9430.0 2.8832e-05
9450.0 2.9038e-05
9470.0 2.9248e-05
9490.0 2.9465e-05
9510.0 2.9683e-05
9530.0 2.9903e-05
9550.0 3.0131e-05
9570.0 3.0362e-05
9590.0 3.0594e-05
9610.0 3.0831e-05
9630.0 3.1073e-05
9650.0 3.1318e-05
9670.0 3.1563e-05
9690.0 3.1814e-05
9710.0 3.207e-05
9730.0 3.2326e-05
9750.0 3.2585e-05
9770.0 3.2853e-05
9790.0 3.312e-05
9810.0 3.3388e-05
9830.0 3.3663e-05
9850.0 3.394e-05
9870.0 3.4217e-05
9890.0 3.4498e-05
9910.0 3.4784e-05
9930.0 3.5071e-05
9950.0 3.5358e-05
9970.0 3.5652e-05
9990.0 3.5948e-05
10010.0 3.1193e-05
10030.0 3.1449e-05
10050.0 3.1711e-05
10070.0 3.1981e-05
10090.0 3.2236e-05
10110.0 3.2497e-05
10130.0 3.2759e-05
10150.0 3.302e-05
10170.0 3.3284e-05
10190.0 3.3553e-05
10210.0 3.3819e-05
10230.0 3.4084e-05
10250.0 3.4354e-05
10270.0 3.4623e-05
10290.0 3.4888e-05
10310.0 3.5157e-05
10330.0 3.5429e-05
10350.0 3.5696e-05
10370.0 3.5963e-05
10390.0 3.6232e-05
10410.0 3.65e-05
10430.0 3.6763e-05
10450.0 3.7028e-05
10470.0 3.7294e-05
10490.0 3.7556e-05
10510.0 3.7816e-05
10530.0 3.808e-05
10550.0 3.834e-05
10570.0 3.8594e-05
10590.0 3.885e-05
10610.0 3.9105e-05
10630.0 3.9354e-05
10650.0 3.9602e-05
10670.0 3.9851e-05
10690.0 4.0096e-05
10710.0 4.0336e-05
10730.0 4.0576e-05
10750.0 4.0816e-05
10770.0 4.1047e-05
10790.0 4.1276e-05
10810.0 4.1504e-05
10830.0 4.1725e-05
10850.0 4.1936e-05
10870.0 4.2139e-05
10890.0 4.2319e-05
10910.0 4.2457e-05
10930.0 4.2535e-05
10950.0 4.2516e-05
10970.0 4.2372e-05
10990.0 4.209e-05
11010.0 4.1617e-05
11030.0 4.0955e-05
11050.0 4.0148e-05
11070.0 3.9183e-05
11090.0 3.8024e-05
11110.0 3.6825e-05
11130.0 3.5574e-05
11150.0 3.4227e-05
11170.0 3.2839e-05
11190.0 3.1492e-05
11210.0 3.0102e-05
11230.0 2.8676e-05
11250.0 2.7313e-05
11270.0 2.6004e-05
11290.0 2.4693e-05
11310.0 2.3452e-05
11330.0 2.2358e-05
11350.0 2.1325e-05
11370.0 2.037e-05
11390.0 1.9544e-05
11410.0 1.8821e-05
11430.0 1.815e-05
11450.0 1.7571e-05
11470.0 1.7071e-05
11490.0 1.6606e-05
11510.0 1.6157e-05
11530.0 1.5741e-05
11550.0 1.5328e-05
11570.0 1.4886e-05
11590.0 1.443e-05
11610.0 1.3965e-05
11630.0 1.3459e-05
11650.0 1.2917e-05
11670.0 1.2383e-05
11690.0 1.1841e-05
11710.0 1.1283e-05
11730.0 1.0742e-05
11750.0 1.0241e-05
11770.0 9.7494e-06
11790.0 9.289e-06
11810.0 8.8837e-06
11830.0 8.5212e-06
11850.0 8.1873e-06
11870.0 7.908e-06
11890.0 7.6759e-06
11910.0 7.4719e-06
11930.0 7.2965e-06
11950.0 7.1505e-06
11970.0 7.0201e-06
11990.0 6.8967e-06
12010.0 6.7827e-06
12030.0 6.6727e-06
12050.0 6.5591e-06
12070.0 6.4409e-06
12090.0 6.3269e-06
12110.0 6.2112e-06
12130.0 6.0953e-06
12150.0 5.9884e-06
12170.0 5.8951e-06
12190.0 5.8144e-06
12210.0 5.7582e-06
12230.0 5.7309e-06
12250.0 5.7353e-06
12270.0 5.7786e-06
12290.0 5.8603e-06
12310.0 5.9776e-06
12330.0 6.1417e-06
12350.0 6.3464e-06
12370.0 6.5796e-06
12390.0 6.8484e-06
12410.0 7.1633e-06
12430.0 7.4835e-06
12450.0 7.815e-06
12470.0 8.1674e-06
12490.0 8.5214e-06
12510.0 8.8536e-06
12530.0 9.184e-06
12550.0 9.5027e-06
12570.0 9.7841e-06
12590.0 1.0031e-05
12610.0 1.0251e-05
12630.0 1.0427e-05
12650.0 1.0548e-05
12670.0 1.0627e-05
12690.0 1.0659e-05
12710.0 1.0642e-05
12730.0 1.058e-05
12750.0 1.047e-05
12770.0 1.0319e-05
12790.0 1.0136e-05
12810.0 9.9171e-06
12830.0 9.6641e-06
12850.0 9.3995e-06
12870.0 9.1197e-06
12890.0 8.8169e-06
12910.0 8.5092e-06
12930.0 8.2058e-06
12950.0 7.8893e-06
12970.0 7.5671e-06
12990.0 7.2623e-06
13010.0 6.9613e-06
13030.0 6.6569e-06
13050.0 6.3646e-06
13070.0 6.0907e-06
13090.0 5.8159e-06
13110.0 5.55e-06
13130.0 5.3048e-06
13150.0 5.0727e-06
13170.0 4.8454e-06
13190.0 4.6431e-06
13210.0 4.4651e-06
13230.0 4.3024e-06
13250.0 4.1623e-06
13270.0 4.0517e-06
13290.0 3.9657e-06
13310.0 3.9065e-06
13330.0 3.8796e-06
13350.0 3.8827e-06
13370.0 3.9175e-06
13390.0 3.9859e-06
13410.0 4.0784e-06
13430.0 4.1986e-06
13450.0 4.347e-06
13470.0 4.5118e-06
13490.0 4.6864e-06
13510.0 4.8832e-06
13530.0 5.0828e-06
13550.0 5.2738e-06
13570.0 5.4622e-06
13590.0 5.6457e-06
13610.0 5.809e-06
13630.0 5.9516e-06
13650.0 6.0817e-06
13670.0 6.1897e-06
13690.0 6.2733e-06
13710.0 6.3379e-06
13730.0 6.3841e-06
13750.0 6.4071e-06
13770.0 6.4124e-06
13790.0 6.4007e-06
13810.0 6.3725e-06
13830.0 6.3307e-06
13850.0 6.2742e-06
13870.0 6.2028e-06
13890.0 6.1212e-06
13910.0 6.0293e-06
13930.0 5.9229e-06
13950.0 5.8067e-06
13970.0 5.6879e-06
13990.0 5.5585e-06
14010.0 5.4209e-06
14030.0 5.2836e-06
14050.0 5.1453e-06
14070.0 4.9993e-06
14090.0 4.8594e-06
14110.0 4.7279e-06
14130.0 4.6005e-06
14150.0 4.4805e-06
14170.0 4.3781e-06
14190.0 4.2896e-06
14210.0 4.2145e-06
14230.0 4.1589e-06
14250.0 4.123e-06
14270.0 4.1055e-06
14290.0 4.1092e-06
14310.0 4.1321e-06
14330.0 4.1733e-06
14350.0 4.2338e-06
14370.0 4.3092e-06
14390.0 4.3948e-06
14410.0 4.4957e-06
14430.0 4.6065e-06
14450.0 4.7196e-06
14470.0 4.8369e-06
14490.0 4.9617e-06
14510.0 5.0811e-06
14530.0 5.1944e-06
14550.0 5.3077e-06
14570.0 5.4165e-06
14590.0 5.5155e-06
14610.0 5.6113e-06
14630.0 5.7061e-06
14650.0 5.7944e-06
14670.0 5.8796e-06
14690.0 5.9685e-06
14710.0 6.0619e-06
14730.0 6.1554e-06
14750.0 6.2589e-06
14770.0 6.3763e-06
14790.0 6.5036e-06
14810.0 6.6416e-06
14830.0 6.805e-06
14850.0 6.9826e-06
14870.0 7.1679e-06
14890.0 7.3679e-06
14910.0 7.5803e-06
14930.0 7.7845e-06
14950.0 7.9752e-06
14970.0 8.1559e-06
14990.0 8.3074e-06
15010.0 8.4232e-06
15030.0 8.509e-06
15050.0 8.5657e-06
15070.0 8.5934e-06
15090.0 8.6031e-06
15110.0 8.6003e-06
15130.0 8.5895e-06
15150.0 8.575e-06
15170.0 8.5578e-06
15190.0 8.5394e-06
15210.0 8.5212e-06
15230.0 8.5031e-06
15250.0 8.4843e-06
15270.0 8.4658e-06
15290.0 8.4482e-06
15310.0 8.4301e-06
15330.0 8.4119e-06
15350.0 8.3944e-06
15370.0 8.377e-06
15390.0 8.3587e-06
15410.0 8.341e-06
15430.0 8.3239e-06
15450.0 8.3064e-06
15470.0 8.2886e-06
15490.0 8.2717e-06
15510.0 8.2549e-06
15530.0 8.2374e-06
15550.0 8.2204e-06
15570.0 8.2039e-06
15590.0 8.1867e-06
15610.0 8.1693e-06
15630.0 8.1529e-06
15650.0 8.1364e-06
15670.0 8.1193e-06
15690.0 8.1027e-06
15710.0 8.0867e-06
15730.0 8.07e-06
15750.0 8.0532e-06
15770.0 8.0371e-06
15790.0 8.0209e-06
15810.0 8.0039e-06
15830.0 7.9876e-06
15850.0 7.9718e-06
15870.0 7.9554e-06
15890.0 7.939e-06
15910.0 7.9233e-06
15930.0 7.9072e-06
15950.0 7.8905e-06
15970.0 7.8745e-06
15990.0 7.8588e-06
16010.0 7.8424e-06
16030.0 7.8259e-06
16050.0 7.8105e-06
16070.0 7.7946e-06
16090.0 7.7782e-06
16110.0 7.7624e-06
16130.0 7.7469e-06
16150.0 7.7303e-06
16170.0 7.714e-06
16190.0 7.6985e-06
16210.0 7.6825e-06
16230.0 7.6661e-06
16250.0 7.6503e-06
16270.0 7.6348e-06
16290.0 7.6185e-06
16310.0 7.6023e-06
16330.0 7.5867e-06
16350.0 7.5707e-06
16370.0 7.5539e-06
16390.0 7.5382e-06
16410.0 7.5224e-06
16430.0 7.5061e-06
16450.0 7.4899e-06
16470.0 7.4744e-06
16490.0 7.4581e-06
16510.0 7.4415e-06
16530.0 7.4255e-06
16550.0 7.4096e-06
16570.0 7.3929e-06
16590.0 7.3764e-06
16610.0 7.3607e-06
16630.0 7.3443e-06
16650.0 7.3277e-06
16670.0 7.3117e-06
16690.0 7.2956e-06
16710.0 7.2785e-06
16730.0 7.262e-06
16750.0 7.2459e-06
16770.0 7.2292e-06
16790.0 7.2122e-06
16810.0 7.196e-06
16830.0 7.1797e-06
16850.0 7.1626e-06
16870.0 7.1459e-06
16890.0 7.1297e-06
16910.0 7.1126e-06
16930.0 7.0952e-06
16950.0 7.0787e-06
16970.0 7.062e-06
16990.0 7.0446e-06
17010.0 7.0277e-06
17030.0 7.0113e-06
17050.0 6.9939e-06
17070.0 6.9765e-06
17090.0 6.9597e-06
17110.0 6.9426e-06
17130.0 6.9246e-06
17150.0 6.9074e-06
17170.0 6.8906e-06
17190.0 6.873e-06
17210.0 6.8554e-06
17230.0 6.8384e-06
17250.0 6.8209e-06
17270.0 6.8028e-06
17290.0 6.7853e-06
17310.0 6.768e-06
17330.0 6.75e-06
17350.0 6.7318e-06
17370.0 6.7147e-06
17390.0 6.6969e-06
17410.0 6.6787e-06
17430.0 6.661e-06
17450.0 6.6435e-06
17470.0 6.6248e-06
17490.0 6.6065e-06
17510.0 6.5889e-06
17530.0 6.5707e-06
17550.0 6.5521e-06
17570.0 6.5341e-06
17590.0 6.5163e-06
17610.0 6.4976e-06
17630.0 6.4791e-06
17650.0 6.4612e-06
17670.0 6.4427e-06
17690.0 6.4234e-06
17710.0 6.4053e-06
17730.0 6.387e-06
17750.0 6.3681e-06
17770.0 6.3494e-06
17790.0 6.3314e-06
17810.0 6.3124e-06
17830.0 6.2932e-06
17850.0 6.2747e-06
17870.0 6.2561e-06
17890.0 6.2367e-06
17910.0 6.2176e-06
17930.0 6.1992e-06
17950.0 6.1802e-06
17970.0 6.1609e-06
17990.0 6.1422e-06
18010.0 6.1234e-06
18030.0 6.1036e-06
18050.0 6.0844e-06
18070.0 6.0656e-06
18090.0 6.0462e-06
18110.0 6.0266e-06
18130.0 6.0078e-06
18150.0 5.9887e-06
18170.0 5.969e-06
18190.0 5.9497e-06
18210.0 5.9308e-06
18230.0 5.9109e-06
18250.0 5.891e-06
18270.0 5.8719e-06
18290.0 5.8526e-06
18310.0 5.8327e-06
18330.0 5.8132e-06
18350.0 5.7942e-06
18370.0 5.7743e-06
18390.0 5.7544e-06
18410.0 5.7351e-06
18430.0 5.7156e-06
18450.0 5.6952e-06
18470.0 5.6756e-06
18490.0 5.6564e-06
18510.0 5.6364e-06
18530.0 5.6164e-06
18550.0 5.5972e-06
18570.0 5.5774e-06
18590.0 5.557e-06
18610.0 5.5373e-06
18630.0 5.5178e-06
18650.0 5.4976e-06
18670.0 5.4774e-06
18690.0 5.4581e-06
18710.0 5.4383e-06
18730.0 5.418e-06
18750.0 5.3983e-06
18770.0 5.3789e-06
18790.0 5.3582e-06
18810.0 5.3381e-06
18830.0 5.3186e-06
18850.0 5.2986e-06
18870.0 5.2782e-06
18890.0 5.2585e-06
18910.0 5.2389e-06
18930.0 5.2185e-06
18950.0 5.1984e-06
18970.0 5.1788e-06
18990.0 5.1587e-06
19010.0 5.1379e-06
19030.0 5.1183e-06
19050.0 5.0986e-06
19070.0 5.0782e-06
19090.0 5.0582e-06
19110.0 5.0388e-06
19130.0 5.0184e-06
19150.0 4.998e-06
19170.0 4.9783e-06
19190.0 4.9584e-06
19210.0 4.9379e-06
19230.0 4.9177e-06
19250.0 4.8983e-06
19270.0 4.8781e-06
19290.0 4.8578e-06
19310.0 4.8382e-06
19330.0 4.8184e-06
19350.0 4.7977e-06
19370.0 4.7777e-06
19390.0 4.7581e-06
19410.0 4.7379e-06
19430.0 4.7175e-06
19450.0 4.698e-06
19470.0 4.6782e-06
19490.0 4.6578e-06
19510.0 4.6379e-06
19530.0 4.6184e-06
19550.0 4.598e-06
19570.0 4.5776e-06
19590.0 4.5581e-06
19610.0 4.5383e-06
19630.0 4.518e-06
19650.0 4.4982e-06
19670.0 4.4788e-06
19690.0 4.4585e-06
19710.0 4.4384e-06
19730.0 4.4189e-06
19750.0 4.399e-06
19770.0 4.3785e-06
19790.0 4.3588e-06
19810.0 4.3394e-06
19830.0 4.3192e-06
19850.0 4.2989e-06
19870.0 4.279e-06
19890.0 4.2576e-06
19910.0 4.2342e-06
19930.0 4.209e-06
19950.0 4.1803e-06
19970.0 4.1449e-06
19990.0 4.1023e-06
20010.0 3.6498e-06
20030.0 3.597e-06
20050.0 3.5352e-06
20070.0 3.4682e-06
20090.0 3.3961e-06
20110.0 3.3146e-06
20130.0 3.2321e-06
20150.0 3.1503e-06
20170.0 3.0655e-06
20190.0 2.9795e-06
20210.0 2.8983e-06
20230.0 2.8191e-06
20250.0 2.7397e-06
20270.0 2.666e-06
20290.0 2.5987e-06
20310.0 2.5348e-06
20330.0 2.4751e-06
20350.0 2.4255e-06
20370.0 2.3815e-06
20390.0 2.3429e-06
20410.0 2.3117e-06
20430.0 2.2876e-06
20450.0 2.2686e-06
20470.0 2.2559e-06
20490.0 2.249e-06
20510.0 2.247e-06
20530.0 2.2498e-06
20550.0 2.2567e-06
20570.0 2.2669e-06
20590.0 2.2805e-06
20610.0 2.2971e-06
20630.0 2.3154e-06
20650.0 2.3358e-06
20670.0 2.3591e-06
20690.0 2.3829e-06
20710.0 2.4075e-06
20730.0 2.434e-06
20750.0 2.4617e-06
20770.0 2.489e-06
20790.0 2.5176e-06
20810.0 2.5478e-06
20830.0 2.5779e-06
20850.0 2.6082e-06
20870.0 2.6406e-06
20890.0 2.6736e-06
20910.0 2.7054e-06
20930.0 2.7385e-06
20950.0 2.7727e-06
20970.0 2.8061e-06
20990.0 2.8391e-06
21010.0 2.8737e-06
21030.0 2.9076e-06
21050.0 2.9399e-06
21070.0 2.9721e-06
21090.0 3.0045e-06
21110.0 3.034e-06
21130.0 3.0617e-06
21150.0 3.0886e-06
21170.0 3.1129e-06
21190.0 3.1339e-06
21210.0 3.1527e-06
21230.0 3.1683e-06
21250.0 3.1795e-06
21270.0 3.1866e-06
21290.0 3.1892e-06
21310.0 3.1867e-06
21330.0 3.1792e-06
21350.0 3.166e-06
21370.0 3.1466e-06
21390.0 3.1219e-06
21410.0 3.0918e-06
21430.0 3.0536e-06
21450.0 3.0107e-06
21470.0 2.964e-06
21490.0 2.9111e-06
21510.0 2.8532e-06
21530.0 2.7943e-06
21550.0 2.7326e-06
21570.0 2.6668e-06
21590.0 2.6021e-06
21610.0 2.5396e-06
21630.0 2.477e-06
21650.0 2.4159e-06
21670.0 2.3629e-06
21690.0 2.314e-06
21710.0 2.27e-06
21730.0 2.2339e-06
21750.0 2.2061e-06
21770.0 2.1849e-06
21790.0 2.1727e-06
21810.0 2.1694e-06
21830.0 2.1742e-06
21850.0 2.1877e-06
21870.0 2.2089e-06
21890.0 2.2363e-06
21910.0 2.2714e-06
21930.0 2.3126e-06
21950.0 2.3573e-06
21970.0 2.4067e-06
21990.0 2.4622e-06
22010.0 2.5176e-06
22030.0 2.5739e-06
22050.0 2.6331e-06
22070.0 2.6925e-06
22090.0 2.7488e-06
22110.0 2.8056e-06
22130.0 2.8623e-06
22150.0 2.9152e-06
22170.0 2.9651e-06
22190.0 3.0145e-06
22210.0 3.0605e-06
22230.0 3.101e-06
22250.0 3.1392e-06
22270.0 3.1743e-06
22290.0 3.2043e-06
22310.0 3.2301e-06
22330.0 3.2527e-06
22350.0 3.2703e-06
22370.0 3.2826e-06
22390.0 3.2904e-06
22410.0 3.2928e-06
22430.0 3.2897e-06
22450.0 3.2812e-06
22470.0 3.2666e-06
22490.0 3.246e-06
22510.0 3.2204e-06
22530.0 3.1876e-06
22550.0 3.1477e-06
22570.0 3.1034e-06
22590.0 3.0535e-06
22610.0 2.9961e-06
22630.0 2.9339e-06
