#lamb flux
1010.0 1.0613e-06
1030.0 1.1601e-06
1050.0 1.2744e-06
1070.0 1.4035e-06
1090.0 1.5506e-06
1110.0 1.7024e-06
1130.0 1.8564e-06
1150.0 2.0189e-06
1170.0 2.1878e-06
1190.0 2.3501e-06
1210.0 2.5163e-06
1230.0 2.6898e-06
1250.0 2.8623e-06
1270.0 3.0324e-06
1290.0 3.214e-06
1310.0 3.3981e-06
1330.0 3.5782e-06
1350.0 3.763e-06
1370.0 3.9562e-06
1390.0 4.1482e-06
1410.0 4.3383e-06
1430.0 4.5389e-06
1450.0 4.7426e-06
1470.0 4.9435e-06
1490.0 5.1489e-06
1510.0 5.3667e-06
1530.0 5.5773e-06
1550.0 5.7876e-06
1570.0 6.0056e-06
1590.0 6.225e-06
1610.0 6.437e-06
1630.0 6.6546e-06
1650.0 6.8766e-06
1670.0 7.0914e-06
1690.0 7.302e-06
1710.0 7.517e-06
1730.0 7.7296e-06
1750.0 7.9268e-06
1770.0 8.1241e-06
1790.0 8.3193e-06
1810.0 8.5016e-06
1830.0 8.6731e-06
1850.0 8.8472e-06
1870.0 9.0072e-06
1890.0 9.151e-06
1910.0 9.2878e-06
1930.0 9.4178e-06
1950.0 9.5277e-06
1970.0 9.6234e-06
1990.0 9.7134e-06
2010.0 9.7877e-06
2030.0 9.8432e-06
2050.0 9.8913e-06
2070.0 9.9308e-06
2090.0 9.9483e-06
2110.0 9.9535e-06
2130.0 9.9518e-06
2150.0 9.936e-06
2170.0 9.9032e-06
2190.0 9.8663e-06
2210.0 9.8212e-06
2230.0 9.7619e-06
2250.0 9.6947e-06
2270.0 9.6269e-06
2290.0 9.5487e-06
2310.0 9.4602e-06
2330.0 9.3716e-06
2350.0 9.2803e-06
2370.0 9.181e-06
2390.0 9.0803e-06
2410.0 8.9821e-06
2430.0 8.8764e-06
2450.0 8.7631e-06
2470.0 8.6445e-06
2490.0 8.5161e-06
2510.0 8.3744e-06
2530.0 8.2339e-06
2550.0 8.1167e-06
2570.0 8.0552e-06
2590.0 8.0892e-06
2610.0 8.2989e-06
2630.0 8.7234e-06
2650.0 9.3434e-06
2670.0 1.0176e-05
2690.0 1.1199e-05
2710.0 1.2266e-05
2730.0 1.3298e-05
2750.0 1.4323e-05
2770.0 1.5241e-05
2790.0 1.6021e-05
2810.0 1.6736e-05
2830.0 1.7446e-05
2850.0 1.8084e-05
2870.0 1.8716e-05
2890.0 1.9391e-05
2910.0 2.0081e-05
2930.0 2.075e-05
2950.0 2.1465e-05
2970.0 2.2213e-05
2990.0 2.2946e-05
3010.0 5.2467e-05
3030.0 5.4215e-05
3050.0 5.6e-05
3070.0 5.7708e-05
3090.0 5.9494e-05
3110.0 6.1308e-05
3130.0 6.3029e-05
3150.0 6.4661e-05
3170.0 6.6281e-05
3190.0 6.7679e-05
3210.0 6.8747e-05
3230.0 6.9722e-05
3250.0 6.8585e-05
3270.0 6.9339e-05
3290.0 6.8688e-05
3310.0 7.466e-05
3330.0 8.0143e-05
3350.0 8.6128e-05
3370.0 9.3026e-05
3390.0 0.0001008
3410.0 0.00010888
3430.0 0.00011756
3450.0 0.00012715
3470.0 0.00013732
3490.0 0.00014795
3510.0 0.00015919
3530.0 0.00017118
3550.0 0.00018662
3570.0 0.00020444
3590.0 0.00021923
3610.0 0.00023581
3630.0 0.00024206
3650.0 0.000247
3670.0 0.00025006
3690.0 0.00025707
3710.0 0.00026503
3730.0 0.00026065
3750.0 0.00025295
3770.0 0.00024237
3790.0 0.00023004
3810.0 0.00021442
3830.0 0.00018965
3850.0 0.00011849
3870.0 0.00016462
3890.0 0.00022445
3910.0 0.00027694
3930.0 0.00031936
3950.0 0.00033903
3970.0 0.00035347
3990.0 0.00042466
4010.0 0.00040148
4030.0 0.00035161
4050.0 0.0003119
4070.0 0.00028079
4090.0 0.00032896
4110.0 0.00035074
4130.0 0.00035369
4150.0 0.00034922
4170.0 0.00032848
4190.0 0.00031036
4210.0 0.00036641
4230.0 0.00041511
4250.0 0.00042277
4270.0 0.0004078
4290.0 0.00041546
4310.0 0.000441
4330.0 0.00050054
4350.0 0.00053735
4370.0 0.00052979
4390.0 0.00044675
4410.0 0.00038247
4430.0 0.00032427
4450.0 0.00028185
4470.0 0.00029318
4490.0 0.00036571
4510.0 0.00039635
4530.0 0.0004355
4550.0 0.00046864
4570.0 0.00058005
4590.0 0.00084323
4610.0 0.0011015
4630.0 0.0011045
4650.0 0.0010344
4670.0 0.0011134
4690.0 0.0012556
4710.0 0.0010614
4730.0 0.00077015
4750.0 0.00059874
4770.0 0.00055969
4790.0 0.00057103
4810.0 0.00053078
4830.0 0.00057709
4850.0 0.00070415
4870.0 0.00086296
4890.0 0.000787
4910.0 0.00067237
4930.0 0.00072453
4950.0 0.00095336
4970.0 0.0012572
4990.0 0.0013012
5010.0 0.0011375
5030.0 0.00087391
5050.0 0.00062461
5070.0 0.0005162
5090.0 0.00048158
5110.0 0.00048214
5130.0 0.00050371
5150.0 0.00049539
5170.0 0.00050727
5190.0 0.00048494
5210.0 0.00049367
5230.0 0.00053216
5250.0 0.00057454
5270.0 0.00071159
5290.0 0.00082963
5310.0 0.00082386
5330.0 0.00084855
5350.0 0.00096736
5370.0 0.0010532
5390.0 0.0009712
5410.0 0.00082692
5430.0 0.0007784
5450.0 0.00089882
5470.0 0.0011691
5490.0 0.0014555
5510.0 0.0015877
5530.0 0.0016028
5550.0 0.0015175
5570.0 0.0014264
5590.0 0.0013837
5610.0 0.0014034
5630.0 0.0014255
5650.0 0.0014227
5670.0 0.0014194
5690.0 0.0013833
5710.0 0.0012121
5730.0 0.0010194
5750.0 0.00086656
5770.0 0.0008857
5790.0 0.00097002
5810.0 0.0010458
5830.0 0.0010821
5850.0 0.0010715
5870.0 0.00098714
5890.0 0.0008622
5910.0 0.00085882
5930.0 0.00094871
5950.0 0.00096338
5970.0 0.00087423
5990.0 0.00075327
6010.0 0.00061449
6030.0 0.00051566
6050.0 0.0005195
6070.0 0.00059945
6090.0 0.00063189
6110.0 0.00056187
6130.0 0.00052182
6150.0 0.00056765
6170.0 0.00068503
6190.0 0.00081569
6210.0 0.0008679
6230.0 0.0008306
6250.0 0.00076269
6270.0 0.00065744
6290.0 0.00054513
6310.0 0.00045579
6330.0 0.00042037
6350.0 0.0004443
6370.0 0.00046855
6390.0 0.0004963
6410.0 0.00057073
6430.0 0.00071903
6450.0 0.00090627
6470.0 0.001011
6490.0 0.00099101
6510.0 0.00097552
6530.0 0.0010111
6550.0 0.0010224
6570.0 0.0010396
6590.0 0.0010436
6610.0 0.0010251
6630.0 0.0010365
6650.0 0.0010315
6670.0 0.00097945
6690.0 0.00086849
6710.0 0.00073793
6730.0 0.00072523
6750.0 0.00078661
6770.0 0.00084719
6790.0 0.00086842
6810.0 0.00086077
6830.0 0.00084677
6850.0 0.0008294
6870.0 0.00077896
6890.0 0.00074206
6910.0 0.0007044
6930.0 0.0006863
6950.0 0.00074015
6970.0 0.00079506
6990.0 0.00083347
7010.0 0.00083789
7030.0 0.00078808
7050.0 0.00068438
7070.0 0.00055541
7090.0 0.00047339
7110.0 0.00046262
7130.0 0.00049547
7150.0 0.00049302
7170.0 0.00044708
7190.0 0.0004429
7210.0 0.00049059
7230.0 0.000569
7250.0 0.00064693
7270.0 0.00067571
7290.0 0.00062568
7310.0 0.00055273
7330.0 0.00050728
7350.0 0.00050091
7370.0 0.000516
7390.0 0.00053624
7410.0 0.00057257
7430.0 0.00065803
7450.0 0.00076674
7470.0 0.00086812
7490.0 0.0009086
7510.0 0.00087665
7530.0 0.00073359
7550.0 0.00060302
7570.0 0.0005047
7590.0 0.00044743
7610.0 0.0004665
7630.0 0.00054087
7650.0 0.00061874
7670.0 0.00069365
7690.0 0.00074954
7710.0 0.00079579
7730.0 0.00084043
7750.0 0.00088251
7770.0 0.00090334
7790.0 0.00089988
7810.0 0.0009135
7830.0 0.00094697
7850.0 0.000938
7870.0 0.00090676
7890.0 0.00084782
7910.0 0.00079336
7930.0 0.00076197
7950.0 0.00075204
7970.0 0.00074223
7990.0 0.00074384
8010.0 0.00075886
8030.0 0.00076239
8050.0 0.00077817
8070.0 0.00076845
8090.0 0.00076695
8110.0 0.00073504
8130.0 0.00072979
8150.0 0.00071157
8170.0 0.00069117
8190.0 0.00068063
8210.0 0.00068476
8230.0 0.0006497
8250.0 0.000614
8270.0 0.00053791
8290.0 0.00043225
8310.0 0.00032852
8330.0 0.00025002
8350.0 0.00022349
8370.0 0.00025712
8390.0 0.00030421
8410.0 0.00033634
8430.0 0.0003651
8450.0 0.00038372
8470.0 0.00040255
8490.0 0.00044692
8510.0 0.00050194
8530.0 0.0005837
8550.0 0.00068045
8570.0 0.0007684
8590.0 0.00083903
8610.0 0.00089426
8630.0 0.00092689
8650.0 0.00093069
8670.0 0.00093163
8690.0 0.00096377
8710.0 0.00099117
8730.0 0.0010174
8750.0 0.0010024
8770.0 0.0010075
8790.0 0.00099459
8810.0 0.0009272
8830.0 0.00089584
8850.0 0.00084224
8870.0 0.00080058
8890.0 0.00077031
8910.0 0.00078416
8930.0 0.00074042
8950.0 0.00070861
8970.0 0.00069588
8990.0 0.00068179
9010.0 0.00066404
9030.0 0.00064777
9050.0 0.00064364
9070.0 0.0006417
9090.0 0.00063986
9110.0 0.00063809
9130.0 0.0006362
9150.0 0.00063427
9170.0 0.00063168
9190.0 0.00062856
9210.0 0.00063103
9230.0 0.0006278
9250.0 0.00062518
9270.0 0.00062275
9290.0 0.00062046
9310.0 0.00061822
9330.0 0.00061602
9350.0 0.00061387
9370.0 0.00061172
9390.0 0.00060952
9410.0 0.00060734
9430.0 0.00060511
9450.0 0.00060253
9470.0 0.00060006
9490.0 0.00059814
9510.0 0.00059604
9530.0 0.00059388
9550.0 0.00059168
9570.0 0.00058945
9590.0 0.00058718
9610.0 0.00058491
9630.0 0.00058263
9650.0 0.00058034
9670.0 0.00057804
9690.0 0.00057574
9710.0 0.00057343
9730.0 0.00057112
9750.0 0.00056881
9770.0 0.00056651
9790.0 0.00056419
9810.0 0.00056187
9830.0 0.00055955
9850.0 0.00055724
9870.0 0.00055491
9890.0 0.00055258
9910.0 0.00055026
9930.0 0.00054787
9950.0 0.00054162
9970.0 0.00054045
9990.0 0.00053906
10010.0 0.00053754
10030.0 0.0005357
10050.0 0.00053357
10070.0 0.00053131
10090.0 0.0005292
10110.0 0.00052684
10130.0 0.00052463
10150.0 0.00052236
10170.0 0.00051997
10190.0 0.00051744
10210.0 0.0005151
10230.0 0.0005128
10250.0 0.00051036
10270.0 0.00050793
10290.0 0.00050565
10310.0 0.00050322
10330.0 0.00050067
10350.0 0.00049829
10370.0 0.00049592
10390.0 0.0004934
10410.0 0.00049089
10430.0 0.00048855
10450.0 0.00048606
10470.0 0.00048348
10490.0 0.00048102
10510.0 0.00047857
10530.0 0.00047587
10550.0 0.00047327
10570.0 0.0004708
10590.0 0.00046819
10610.0 0.00046549
10630.0 0.00046294
10650.0 0.00046035
10670.0 0.00045756
10690.0 0.00045485
10710.0 0.00045222
10730.0 0.00044944
10750.0 0.00044651
10770.0 0.00044383
10790.0 0.00044107
10810.0 0.00043814
10830.0 0.00043527
10850.0 0.00043251
10870.0 0.00042943
10890.0 0.00042629
10910.0 0.00042321
10930.0 0.00041991
10950.0 0.00041619
10970.0 0.00041225
10990.0 0.00040814
11010.0 0.00037847
11030.0 0.00037342
11050.0 0.00036859
11070.0 0.00036372
11090.0 0.00035857
11110.0 0.00035387
11130.0 0.00034939
11150.0 0.00034481
11170.0 0.00034033
11190.0 0.00033619
11210.0 0.00033197
11230.0 0.00032763
11250.0 0.00032351
11270.0 0.00031951
11290.0 0.00031532
11310.0 0.00031117
11330.0 0.00030739
11350.0 0.00030354
11370.0 0.00029965
11390.0 0.00029598
11410.0 0.00029244
11430.0 0.00028864
11450.0 0.00028493
11470.0 0.00028135
11490.0 0.00027759
11510.0 0.00027357
11530.0 0.00026964
11550.0 0.00026561
11570.0 0.0002612
11590.0 0.00025666
11610.0 0.00025213
11630.0 0.00024722
11650.0 0.000242
11670.0 0.00023694
11690.0 0.0002318
11710.0 0.00022639
11730.0 0.00022105
11750.0 0.000216
11770.0 0.00021081
11790.0 0.00020566
11810.0 0.00020088
11830.0 0.0001963
11850.0 0.00019165
11870.0 0.0001874
11890.0 0.00018353
11910.0 0.00017974
11930.0 0.00017613
11950.0 0.00017288
11970.0 0.00016979
11990.0 0.00016672
12010.0 0.00016392
12030.0 0.00016134
12050.0 0.00015881
12070.0 0.00015637
12090.0 0.00015426
12110.0 0.00015226
12130.0 0.00015034
12150.0 0.00014866
12170.0 0.00014722
12190.0 0.00014588
12210.0 0.0001448
12230.0 0.00014402
12250.0 0.0001435
12270.0 0.00014325
12290.0 0.00014335
12310.0 0.00014378
12330.0 0.00014456
12350.0 0.0001457
12370.0 0.00014717
12390.0 0.00014899
12410.0 0.00015124
12430.0 0.00015371
12450.0 0.0001564
12470.0 0.00015938
12490.0 0.00016254
12510.0 0.00016567
12530.0 0.00016892
12550.0 0.00017222
12570.0 0.00017534
12590.0 0.00017828
12610.0 0.00018112
12630.0 0.00018368
12650.0 0.00018582
12670.0 0.00018769
12690.0 0.00018921
12710.0 0.00019031
12730.0 0.00019105
12750.0 0.0001914
12770.0 0.00019138
12790.0 0.00019102
12810.0 0.00019033
12830.0 0.00018932
12850.0 0.00018811
12870.0 0.00018672
12890.0 0.00018508
12910.0 0.00018334
12930.0 0.00018157
12950.0 0.00017964
12970.0 0.00017762
12990.0 0.00017567
13010.0 0.00017369
13030.0 0.00017162
13050.0 0.00016956
13070.0 0.00016757
13090.0 0.00016546
13110.0 0.00016332
13130.0 0.00016125
13150.0 0.00015917
13170.0 0.00015701
13190.0 0.00015496
13210.0 0.00015307
13230.0 0.00015122
13250.0 0.00014952
13270.0 0.00014808
13290.0 0.00014686
13310.0 0.00014586
13330.0 0.00014519
13350.0 0.00014482
13370.0 0.00014473
13390.0 0.00014492
13410.0 0.00014532
13430.0 0.00014588
13450.0 0.00014654
13470.0 0.00014719
13490.0 0.00014774
13510.0 0.00014816
13530.0 0.00014833
13550.0 0.0001482
13570.0 0.00014774
13590.0 0.0001469
13610.0 0.00014573
13630.0 0.00014428
13650.0 0.00014248
13670.0 0.00014044
13690.0 0.00013829
13710.0 0.00013599
13730.0 0.00013353
13750.0 0.00013121
13770.0 0.00012897
13790.0 0.00012675
13810.0 0.00012469
13830.0 0.00012286
13850.0 0.00012114
13870.0 0.00011957
13890.0 0.00011821
13910.0 0.00011703
13930.0 0.00011595
13950.0 0.00011501
13970.0 0.00011424
13990.0 0.00011354
14010.0 0.00011292
14030.0 0.00011239
14050.0 0.00011192
14070.0 0.00011146
14090.0 0.00011105
14110.0 0.00011066
14130.0 0.00011025
14150.0 0.00010983
14170.0 0.00010941
14190.0 0.00010896
14210.0 0.00010848
14230.0 0.00010797
14250.0 0.00010747
14270.0 0.00010694
14290.0 0.0001064
14310.0 0.0001059
14330.0 0.00010543
14350.0 0.00010498
14370.0 0.00010459
14390.0 0.00010425
14410.0 0.00010396
14430.0 0.00010371
14450.0 0.0001035
14470.0 0.00010333
14490.0 0.00010318
14510.0 0.00010305
14530.0 0.00010292
14550.0 0.00010281
14570.0 0.0001027
14590.0 0.00010261
14610.0 0.00010254
14630.0 0.00010251
14650.0 0.00010252
14670.0 0.0001026
14690.0 0.00010277
14710.0 0.00010305
14730.0 0.0001034
14750.0 0.00010389
14770.0 0.00010453
14790.0 0.00010529
14810.0 0.00010617
14830.0 0.00010728
14850.0 0.00010855
14870.0 0.00010991
14890.0 0.00011143
14910.0 0.0001131
14930.0 0.00011474
14950.0 0.0001163
14970.0 0.00011779
14990.0 0.00011904
15010.0 0.00011997
15030.0 0.00012062
15050.0 0.000121
15070.0 0.0001211
15090.0 0.00012101
15110.0 0.0001208
15130.0 0.00012051
15150.0 0.00012017
15170.0 0.00011981
15190.0 0.00011944
15210.0 0.00011906
15230.0 0.00011868
15250.0 0.0001183
15270.0 0.00011791
15290.0 0.00011753
15310.0 0.00011715
15330.0 0.00011676
15350.0 0.00011638
15370.0 0.00011599
15390.0 0.0001156
15410.0 0.00011522
15430.0 0.00011483
15450.0 0.00011444
15470.0 0.00011405
15490.0 0.00011367
15510.0 0.00011328
15530.0 0.00011289
15550.0 0.0001125
15570.0 0.00011211
15590.0 0.00011172
15610.0 0.00011133
15630.0 0.00011095
15650.0 0.00011056
15670.0 0.00011017
15690.0 0.00010978
15710.0 0.00010939
15730.0 0.000109
15750.0 0.00010862
15770.0 0.00010823
15790.0 0.00010784
15810.0 0.00010745
15830.0 0.00010707
15850.0 0.00010668
15870.0 0.0001063
15890.0 0.00010591
15910.0 0.00010553
15930.0 0.00010515
15950.0 0.00010476
15970.0 0.00010438
15990.0 0.000104
16010.0 0.00010362
16030.0 0.00010323
16050.0 0.00010286
16070.0 0.00010248
16090.0 0.0001021
16110.0 0.00010172
16130.0 0.00010135
16150.0 0.00010097
16170.0 0.00010059
16190.0 0.00010022
16210.0 9.9847e-05
16230.0 9.9472e-05
16250.0 9.9102e-05
16270.0 9.8734e-05
16290.0 9.8363e-05
16310.0 9.7994e-05
16330.0 9.7629e-05
16350.0 9.7263e-05
16370.0 9.6894e-05
16390.0 9.6532e-05
16410.0 9.617e-05
16430.0 9.5807e-05
16450.0 9.5446e-05
16470.0 9.5089e-05
16490.0 9.473e-05
16510.0 9.4371e-05
16530.0 9.4016e-05
16550.0 9.3663e-05
16570.0 9.3307e-05
16590.0 9.2954e-05
16610.0 9.2606e-05
16630.0 9.2256e-05
16650.0 9.1906e-05
16670.0 9.156e-05
16690.0 9.1216e-05
16710.0 9.0869e-05
16730.0 9.0525e-05
16750.0 9.0185e-05
16770.0 8.9844e-05
16790.0 8.9503e-05
16810.0 8.9167e-05
16830.0 8.8831e-05
16850.0 8.8495e-05
16870.0 8.8161e-05
16890.0 8.7831e-05
16910.0 8.7499e-05
16930.0 8.7167e-05
16950.0 8.6841e-05
16970.0 8.6515e-05
16990.0 8.6188e-05
17010.0 8.5864e-05
17030.0 8.5544e-05
17050.0 8.5222e-05
17070.0 8.4901e-05
17090.0 8.4585e-05
17110.0 8.4269e-05
17130.0 8.3951e-05
17150.0 8.3637e-05
17170.0 8.3327e-05
17190.0 8.3015e-05
17210.0 8.2705e-05
17230.0 8.2399e-05
17250.0 8.2093e-05
17270.0 8.1786e-05
17290.0 8.1483e-05
17310.0 8.1182e-05
17330.0 8.0881e-05
17350.0 8.058e-05
17370.0 8.0285e-05
17390.0 7.9989e-05
17410.0 7.9693e-05
17430.0 7.9401e-05
17450.0 7.9111e-05
17470.0 7.8819e-05
17490.0 7.8529e-05
17510.0 7.8244e-05
17530.0 7.7958e-05
17550.0 7.7672e-05
17570.0 7.739e-05
17590.0 7.7111e-05
17610.0 7.683e-05
17630.0 7.6551e-05
17650.0 7.6276e-05
17670.0 7.6e-05
17690.0 7.5723e-05
17710.0 7.5452e-05
17730.0 7.5182e-05
17750.0 7.4912e-05
17770.0 7.4643e-05
17790.0 7.4379e-05
17810.0 7.4113e-05
17830.0 7.3848e-05
17850.0 7.3586e-05
17870.0 7.3326e-05
17890.0 7.3065e-05
17910.0 7.2807e-05
17930.0 7.2552e-05
17950.0 7.2297e-05
17970.0 7.2042e-05
17990.0 7.1791e-05
18010.0 7.1541e-05
18030.0 7.1289e-05
18050.0 7.1041e-05
18070.0 7.0796e-05
18090.0 7.055e-05
18110.0 7.0305e-05
18130.0 7.0064e-05
18150.0 6.9823e-05
18170.0 6.9582e-05
18190.0 6.9344e-05
18210.0 6.9108e-05
18230.0 6.8871e-05
18250.0 6.8636e-05
18270.0 6.8404e-05
18290.0 6.8173e-05
18310.0 6.7941e-05
18330.0 6.7713e-05
18350.0 6.7487e-05
18370.0 6.7259e-05
18390.0 6.7033e-05
18410.0 6.6811e-05
18430.0 6.6589e-05
18450.0 6.6365e-05
18470.0 6.6146e-05
18490.0 6.5929e-05
18510.0 6.5711e-05
18530.0 6.5494e-05
18550.0 6.5281e-05
18570.0 6.5068e-05
18590.0 6.4854e-05
18610.0 6.4643e-05
18630.0 6.4434e-05
18650.0 6.4225e-05
18670.0 6.4016e-05
18690.0 6.3812e-05
18710.0 6.3607e-05
18730.0 6.3403e-05
18750.0 6.3201e-05
18770.0 6.3001e-05
18790.0 6.2799e-05
18810.0 6.26e-05
18830.0 6.2403e-05
18850.0 6.2206e-05
18870.0 6.201e-05
18890.0 6.1817e-05
18910.0 6.1625e-05
18930.0 6.1432e-05
18950.0 6.1241e-05
18970.0 6.1052e-05
18990.0 6.0863e-05
19010.0 6.0674e-05
19030.0 6.0489e-05
19050.0 6.0304e-05
19070.0 6.0119e-05
19090.0 5.9936e-05
19110.0 5.9756e-05
19130.0 5.9574e-05
19150.0 5.9393e-05
19170.0 5.9215e-05
19190.0 5.9038e-05
19210.0 5.886e-05
19230.0 5.8684e-05
19250.0 5.8511e-05
19270.0 5.8338e-05
19290.0 5.8164e-05
19310.0 5.7994e-05
19330.0 5.7824e-05
19350.0 5.7653e-05
19370.0 5.7484e-05
19390.0 5.7318e-05
19410.0 5.7151e-05
19430.0 5.6985e-05
19450.0 5.6821e-05
19470.0 5.6658e-05
19490.0 5.6495e-05
19510.0 5.6333e-05
19530.0 5.6174e-05
19550.0 5.6013e-05
19570.0 5.5853e-05
19590.0 5.5697e-05
19610.0 5.554e-05
19630.0 5.5383e-05
19650.0 5.5228e-05
19670.0 5.5076e-05
19690.0 5.4921e-05
19710.0 5.4768e-05
19730.0 5.4618e-05
19750.0 5.4467e-05
19770.0 5.4316e-05
19790.0 5.4167e-05
19810.0 5.402e-05
19830.0 5.3871e-05
19850.0 5.372e-05
19870.0 5.3568e-05
19890.0 5.3405e-05
19910.0 5.3221e-05
19930.0 5.3011e-05
19950.0 5.2757e-05
19970.0 5.2431e-05
19990.0 5.2022e-05
20010.0 5.154e-05
20030.0 5.0952e-05
20050.0 5.0262e-05
20070.0 4.9515e-05
20090.0 4.8719e-05
20110.0 4.7837e-05
20130.0 4.6958e-05
20150.0 4.6101e-05
20170.0 4.5228e-05
20190.0 4.4357e-05
20210.0 4.3539e-05
20230.0 4.2746e-05
20250.0 4.1951e-05
20270.0 4.1205e-05
20290.0 4.051e-05
20310.0 3.9831e-05
20330.0 3.9172e-05
20350.0 3.859e-05
20370.0 3.8038e-05
20390.0 3.751e-05
20410.0 3.7031e-05
20430.0 3.6604e-05
20450.0 3.6196e-05
20470.0 3.5831e-05
20490.0 3.5518e-05
20510.0 3.524e-05
20530.0 3.4996e-05
20550.0 3.4796e-05
20570.0 3.4636e-05
20590.0 3.4508e-05
20610.0 3.4414e-05
20630.0 3.4352e-05
20650.0 3.4317e-05
20670.0 3.4311e-05
20690.0 3.4326e-05
20710.0 3.4359e-05
20730.0 3.441e-05
20750.0 3.4474e-05
20770.0 3.454e-05
20790.0 3.4614e-05
20810.0 3.4692e-05
20830.0 3.4763e-05
20850.0 3.4828e-05
20870.0 3.4888e-05
20890.0 3.4934e-05
20910.0 3.4962e-05
20930.0 3.4974e-05
20950.0 3.4968e-05
20970.0 3.4939e-05
20990.0 3.4889e-05
21010.0 3.4815e-05
21030.0 3.4717e-05
21050.0 3.4598e-05
21070.0 3.4457e-05
21090.0 3.4289e-05
21110.0 3.4109e-05
21130.0 3.3913e-05
21150.0 3.3696e-05
21170.0 3.3468e-05
21190.0 3.3238e-05
21210.0 3.2993e-05
21230.0 3.2739e-05
21250.0 3.2492e-05
21270.0 3.2247e-05
21290.0 3.1998e-05
21310.0 3.1756e-05
21330.0 3.1531e-05
21350.0 3.1309e-05
21370.0 3.1096e-05
21390.0 3.0902e-05
21410.0 3.0724e-05
21430.0 3.0554e-05
21450.0 3.0407e-05
21470.0 3.0282e-05
21490.0 3.0174e-05
21510.0 3.0087e-05
21530.0 3.0024e-05
21550.0 2.9981e-05
21570.0 2.9962e-05
21590.0 2.9966e-05
21610.0 2.999e-05
21630.0 3.0039e-05
21650.0 3.0114e-05
21670.0 3.0202e-05
21690.0 3.0311e-05
21710.0 3.0442e-05
21730.0 3.0586e-05
21750.0 3.0737e-05
21770.0 3.0911e-05
21790.0 3.1093e-05
21810.0 3.1274e-05
21830.0 3.146e-05
21850.0 3.1654e-05
21870.0 3.184e-05
21890.0 3.2014e-05
21910.0 3.219e-05
21930.0 3.2357e-05
21950.0 3.2505e-05
21970.0 3.2643e-05
21990.0 3.2774e-05
22010.0 3.288e-05
22030.0 3.2968e-05
22050.0 3.3042e-05
22070.0 3.3096e-05
22090.0 3.3127e-05
22110.0 3.3141e-05
22130.0 3.3136e-05
22150.0 3.3109e-05
22170.0 3.3062e-05
22190.0 3.2994e-05
22210.0 3.2904e-05
22230.0 3.2798e-05
22250.0 3.267e-05
22270.0 3.252e-05
22290.0 3.2354e-05
22310.0 3.2171e-05
22330.0 3.1961e-05
22350.0 3.1735e-05
22370.0 3.1497e-05
22390.0 3.1238e-05
22410.0 3.0952e-05
22430.0 3.0664e-05
22450.0 3.0362e-05
22470.0 3.0035e-05
22490.0 2.9699e-05
22510.0 2.9363e-05
22530.0 2.9003e-05
22550.0 2.8629e-05
22570.0 2.8263e-05
22590.0 2.7894e-05
22610.0 2.7512e-05
22630.0 2.7134e-05
22650.0 2.6775e-05
22670.0 2.6408e-05
