#lamb flux
1010.0 9.9686e-06
1030.0 1.2742e-05
1050.0 1.6085e-05
1070.0 2.0045e-05
1090.0 2.4781e-05
1110.0 2.9987e-05
1130.0 3.5577e-05
1150.0 4.1353e-05
1170.0 4.7556e-05
1190.0 5.3755e-05
1210.0 6.0409e-05
1230.0 6.7436e-05
1250.0 7.4478e-05
1270.0 8.1388e-05
1290.0 8.8531e-05
1310.0 9.5486e-05
1330.0 0.0001019
1350.0 0.00010796
1370.0 0.0001137
1390.0 0.00011872
1410.0 0.00012295
1430.0 0.0001268
1450.0 0.00013001
1470.0 0.00013245
1490.0 0.00013442
1510.0 0.0001366
1530.0 0.00013829
1550.0 0.00013935
1570.0 0.00013861
1590.0 0.00013773
1610.0 0.00013662
1630.0 0.0001357
1650.0 0.00013502
1670.0 0.00013439
1690.0 0.00013394
1710.0 0.00013388
1730.0 0.00013411
1750.0 0.0001344
1770.0 0.00013507
1790.0 0.00013608
1810.0 0.00013725
1830.0 0.00013861
1850.0 0.00014049
1870.0 0.00014259
1890.0 0.00014477
1910.0 0.0001472
1930.0 0.00014989
1950.0 0.00015248
1970.0 0.00015519
1990.0 0.00015825
2010.0 0.00016148
2030.0 0.00016482
2050.0 0.00016846
2070.0 0.00017219
2090.0 0.00017583
2110.0 0.00017959
2130.0 0.00018357
2150.0 0.0001876
2170.0 0.0001916
2190.0 0.00019581
2210.0 0.0002002
2230.0 0.00020463
2250.0 0.00020912
2270.0 0.00021382
2290.0 0.00021849
2310.0 0.00022308
2330.0 0.0002278
2350.0 0.00023257
2370.0 0.0002372
2390.0 0.00024185
2410.0 0.00024663
2430.0 0.00025129
2450.0 0.00025592
2470.0 0.00026082
2490.0 0.00026622
2510.0 0.00027215
2530.0 0.00027946
2550.0 0.00028922
2570.0 0.00030211
2590.0 0.00031903
2610.0 0.00034325
2630.0 0.00037549
2650.0 0.00041508
2670.0 0.00046417
2690.0 0.00052387
2710.0 0.0005893
2730.0 0.00065783
2750.0 0.00073162
2770.0 0.00080381
2790.0 0.00086913
2810.0 0.00092842
2830.0 0.00098162
2850.0 0.0010227
2870.0 0.0010557
2890.0 0.0010837
2910.0 0.001107
2930.0 0.0011262
2950.0 0.0011444
2970.0 0.0011622
2990.0 0.0011786
3010.0 0.0011945
3030.0 0.0012111
3050.0 0.0012276
3070.0 0.0012428
3090.0 0.0012585
3110.0 0.001275
3130.0 0.0012926
3150.0 0.0013086
3170.0 0.0013368
3190.0 0.0013796
3210.0 0.0014426
3230.0 0.001536
3250.0 0.0016707
3270.0 0.0018107
3290.0 0.0020135
3310.0 0.0023896
3330.0 0.0024842
3350.0 0.0025083
3370.0 0.0025297
3390.0 0.0025509
3410.0 0.0025699
3430.0 0.002587
3450.0 0.0026038
3470.0 0.0026209
3490.0 0.0026331
3510.0 0.0026253
3530.0 0.0025297
3550.0 0.0024178
3570.0 0.0024779
3590.0 0.0026751
3610.0 0.0029152
3630.0 0.0030797
3650.0 0.0029695
3670.0 0.0026816
3690.0 0.0024765
3710.0 0.0024608
3730.0 0.0025433
3750.0 0.0025981
3770.0 0.0026967
3790.0 0.0028101
3810.0 0.0028247
3830.0 0.0026519
3850.0 0.0024778
3870.0 0.0024083
3890.0 0.0024453
3910.0 0.0024527
3930.0 0.0024689
3950.0 0.0025965
3970.0 0.0027448
3990.0 0.0028188
4010.0 0.0027972
4030.0 0.002708
4050.0 0.0026661
4070.0 0.0026406
4090.0 0.0026427
4110.0 0.0026288
4130.0 0.0025456
4150.0 0.0024481
4170.0 0.0024138
4190.0 0.0023277
4210.0 0.0021631
4230.0 0.0019875
4250.0 0.0018063
4270.0 0.0016676
4290.0 0.001586
4310.0 0.0015556
4330.0 0.0015919
4350.0 0.001663
4370.0 0.0017179
4390.0 0.0018356
4410.0 0.0019288
4430.0 0.0019139
4450.0 0.001763
4470.0 0.0016205
4490.0 0.0015576
4510.0 0.0015173
4530.0 0.0015031
4550.0 0.001489
4570.0 0.0014943
4590.0 0.001526
4610.0 0.0015676
4630.0 0.0015933
4650.0 0.0016007
4670.0 0.0015625
4690.0 0.0014608
4710.0 0.001361
4730.0 0.0012876
4750.0 0.0012396
4770.0 0.0012186
4790.0 0.0012039
4810.0 0.0011648
4830.0 0.001123
4850.0 0.0011631
4870.0 0.0011216
4890.0 0.0011102
4910.0 0.0010848
4930.0 0.0010099
4950.0 0.00088754
4970.0 0.00081812
4990.0 0.00075904
5010.0 0.00072047
5030.0 0.00072319
5050.0 0.00074885
5070.0 0.00076031
5090.0 0.00079092
5110.0 0.0007895
5130.0 0.00077966
5150.0 0.00078304
5170.0 0.00076424
5190.0 0.00076334
5210.0 0.00076613
5230.0 0.00073969
5250.0 0.00074352
5270.0 0.00075839
5290.0 0.00074891
5310.0 0.00072445
5330.0 0.00070418
5350.0 0.00067863
5370.0 0.00066695
5390.0 0.00065752
5410.0 0.00064366
5430.0 0.00064796
5450.0 0.00064489
5470.0 0.00065447
5490.0 0.00069457
5510.0 0.00071427
5530.0 0.00072436
5550.0 0.00073352
5570.0 0.00074422
5590.0 0.0007414
5610.0 0.0007414
5630.0 0.00074895
5650.0 0.00074769
5670.0 0.00073867
5690.0 0.00072828
5710.0 0.00072896
5730.0 0.0007497
5750.0 0.00072942
5770.0 0.00070139
5790.0 0.00066544
5810.0 0.00060129
5830.0 0.00065255
5850.0 0.00072114
5870.0 0.00074476
5890.0 0.00076319
5910.0 0.0007922
5930.0 0.00080457
5950.0 0.0008116
5970.0 0.00082006
5990.0 0.00083
6010.0 0.00082123
6030.0 0.0008132
6050.0 0.00081773
6070.0 0.00082619
6090.0 0.00083585
6110.0 0.00082868
6130.0 0.00081557
6150.0 0.00080125
6170.0 0.00078658
6190.0 0.00075783
6210.0 0.00074784
6230.0 0.000755
6250.0 0.00075323
6270.0 0.00075136
6290.0 0.00076303
6310.0 0.00077635
6330.0 0.00077311
6350.0 0.00075921
6370.0 0.00075794
6390.0 0.00074815
6410.0 0.00073947
6430.0 0.000726
6450.0 0.00071999
6470.0 0.00071393
6490.0 0.00071098
6510.0 0.00069976
6530.0 0.00068868
6550.0 0.00067788
6570.0 0.00066829
6590.0 0.00067325
6610.0 0.00067171
6630.0 0.00065192
6650.0 0.00063208
6670.0 0.0006242
6690.0 0.00061319
6710.0 0.00059641
6730.0 0.00058855
6750.0 0.00059094
6770.0 0.00061888
6790.0 0.00067149
6810.0 0.00063899
6830.0 0.00056673
6850.0 0.00053722
6870.0 0.00052434
6890.0 0.00051875
6910.0 0.00051402
6930.0 0.00050805
6950.0 0.00050247
6970.0 0.00048323
6990.0 0.00047239
7010.0 0.00047217
7030.0 0.00046931
7050.0 0.00045559
7070.0 0.00043846
7090.0 0.00042907
7110.0 0.00042999
7130.0 0.00042567
7150.0 0.0004206
7170.0 0.00041491
7190.0 0.00040974
7210.0 0.00041097
7230.0 0.0004117
7250.0 0.00040855
7270.0 0.00040491
7290.0 0.00040509
7310.0 0.0004006
7330.0 0.00038869
7350.0 0.00037213
7370.0 0.0003631
7390.0 0.00035919
7410.0 0.00034716
7430.0 0.00034533
7450.0 0.00034014
7470.0 0.0003419
7490.0 0.00033435
7510.0 0.00032131
7530.0 0.00032103
7550.0 0.00031361
7570.0 0.00030481
7590.0 0.00028956
7610.0 0.00028728
7630.0 0.00029408
7650.0 0.00029762
7670.0 0.00028686
7690.0 0.00028857
7710.0 0.00029545
7730.0 0.00029887
7750.0 0.0003034
7770.0 0.00029833
7790.0 0.00029002
7810.0 0.00029746
7830.0 0.00030802
7850.0 0.00030472
7870.0 0.00031145
7890.0 0.00030619
7910.0 0.00030021
7930.0 0.00029433
7950.0 0.00029958
7970.0 0.00029915
7990.0 0.00027974
8010.0 0.00042149
8030.0 0.00041233
8050.0 0.00040566
8070.0 0.00039325
8090.0 0.00035402
8110.0 0.0003496
8130.0 0.0003888
8150.0 0.00041096
8170.0 0.0004221
8190.0 0.00043948
8210.0 0.00042404
8230.0 0.00042479
8250.0 0.00042307
8270.0 0.0004207
8290.0 0.00041423
8310.0 0.00039409
8330.0 0.00038625
8350.0 0.00039766
8370.0 0.0004023
8390.0 0.00039326
8410.0 0.00038862
8430.0 0.00037589
8450.0 0.00036895
8470.0 0.00039406
8490.0 0.00039648
8510.0 0.00037302
8530.0 0.00036781
8550.0 0.00036336
8570.0 0.00034127
8590.0 0.00034335
8610.0 0.00034694
8630.0 0.00035733
8650.0 0.00035797
8670.0 0.00035846
8690.0 0.00035158
8710.0 0.00034077
8730.0 0.00033084
8750.0 0.00032462
8770.0 0.00032394
8790.0 0.00033357
8810.0 0.00031684
8830.0 0.00031386
8850.0 0.00032764
8870.0 0.00031069
8890.0 0.00028963
8910.0 0.0002845
8930.0 0.00028351
8950.0 0.00026552
8970.0 0.00025465
8990.0 0.00024905
9010.0 0.00023529
9030.0 0.00023186
9050.0 0.00023068
9070.0 0.00022961
9090.0 0.00022853
9110.0 0.00022743
9130.0 0.00022632
9150.0 0.00022523
9170.0 0.00022412
9190.0 0.000223
9210.0 0.00022186
9230.0 0.00022073
9250.0 0.00021958
9270.0 0.00021843
9290.0 0.00021727
9310.0 0.0002162
9330.0 0.00021528
9350.0 0.00021435
9370.0 0.00021342
9390.0 0.00021247
9410.0 0.00021152
9430.0 0.00021057
9450.0 0.00020961
9470.0 0.00020876
9490.0 0.00020784
9510.0 0.00020681
9530.0 0.00020579
9550.0 0.00020479
9570.0 0.0002038
9590.0 0.00020281
9610.0 0.00020196
9630.0 0.00020113
9650.0 0.0002003
9670.0 0.00019944
9690.0 0.0001986
9710.0 0.00019776
9730.0 0.00019691
9750.0 0.00019605
9770.0 0.00019522
9790.0 0.00019436
9810.0 0.00019351
9830.0 0.00019266
9850.0 0.00019171
9870.0 0.00019068
9890.0 0.00018994
9910.0 0.00018917
9930.0 0.00018824
9950.0 0.0001874
9970.0 0.00018662
9990.0 0.00018581
10010.0 0.000185
10030.0 0.00018417
10050.0 0.00018334
10070.0 0.00018251
10090.0 0.00018168
10110.0 0.00018085
10130.0 0.00018002
10150.0 0.00017921
10170.0 0.00017839
10190.0 0.00017758
10210.0 0.00017677
10230.0 0.00017597
10250.0 0.00017517
10270.0 0.00017438
10290.0 0.00017359
10310.0 0.00017281
10330.0 0.00017202
10350.0 0.00017125
10370.0 0.00017049
10390.0 0.00016971
10410.0 0.00016883
10430.0 0.00016791
10450.0 0.00016731
10470.0 0.00016663
10490.0 0.00016595
10510.0 0.00016525
10530.0 0.00016453
10550.0 0.00016382
10570.0 0.00016313
10590.0 0.00016242
10610.0 0.00016172
10630.0 0.00016104
10650.0 0.00016036
10670.0 0.00015967
10690.0 0.000159
10710.0 0.00015835
10730.0 0.00015769
10750.0 0.00015702
10770.0 0.00015638
10790.0 0.00015575
10810.0 0.00015511
10830.0 0.00015449
10850.0 0.00015388
10870.0 0.00015325
10890.0 0.00015263
10910.0 0.00015202
10930.0 0.0001514
10950.0 0.00015074
10970.0 0.00015007
10990.0 0.0001494
11010.0 0.00014486
11030.0 0.00014411
11050.0 0.00014333
11070.0 0.00014252
11090.0 0.00014161
11110.0 0.00014072
11130.0 0.00013982
11150.0 0.00013886
11170.0 0.00013788
11190.0 0.00013692
11210.0 0.00013593
11230.0 0.00013489
11250.0 0.00013389
11270.0 0.00013291
11290.0 0.00013191
11310.0 0.00013092
11330.0 0.00013002
11350.0 0.00012913
11370.0 0.00012826
11390.0 0.00012746
11410.0 0.0001267
11430.0 0.00012594
11450.0 0.00012523
11470.0 0.00012456
11490.0 0.0001239
11510.0 0.00012322
11530.0 0.00012258
11550.0 0.00012195
11570.0 0.00012128
11590.0 0.0001206
11610.0 0.00011994
11630.0 0.00011923
11650.0 0.00011848
11670.0 0.00011774
11690.0 0.00011699
11710.0 0.00011619
11730.0 0.00011539
11750.0 0.0001146
11770.0 0.00011378
11790.0 0.00011294
11810.0 0.00011212
11830.0 0.0001113
11850.0 0.00011046
11870.0 0.00010965
11890.0 0.00010888
11910.0 0.00010811
11930.0 0.00010736
11950.0 0.00010667
11970.0 0.000106
11990.0 0.00010534
12010.0 0.00010475
12030.0 0.0001042
12050.0 0.00010367
12070.0 0.00010318
12090.0 0.00010276
12110.0 0.00010236
12130.0 0.00010199
12150.0 0.00010166
12170.0 0.00010136
12190.0 0.00010107
12210.0 0.00010079
12230.0 0.00010052
12250.0 0.00010026
12270.0 9.9972e-05
12290.0 9.9676e-05
12310.0 9.9363e-05
12330.0 9.9006e-05
12350.0 9.8611e-05
12370.0 9.8188e-05
12390.0 9.7716e-05
12410.0 9.7171e-05
12430.0 9.6604e-05
12450.0 9.5999e-05
12470.0 9.533e-05
12490.0 9.4619e-05
12510.0 9.3901e-05
12530.0 9.313e-05
12550.0 9.2309e-05
12570.0 9.1489e-05
12590.0 9.0658e-05
12610.0 8.9779e-05
12630.0 8.8891e-05
12650.0 8.8044e-05
12670.0 8.7176e-05
12690.0 8.6298e-05
12710.0 8.546e-05
12730.0 8.4646e-05
12750.0 8.3811e-05
12770.0 8.302e-05
12790.0 8.2281e-05
12810.0 8.1557e-05
12830.0 8.0852e-05
12850.0 8.0216e-05
12870.0 7.9622e-05
12890.0 7.9049e-05
12910.0 7.8528e-05
12930.0 7.8067e-05
12950.0 7.7636e-05
12970.0 7.725e-05
12990.0 7.693e-05
13010.0 7.6658e-05
13030.0 7.6428e-05
13050.0 7.6249e-05
13070.0 7.6117e-05
13090.0 7.6017e-05
13110.0 7.595e-05
13130.0 7.5907e-05
13150.0 7.588e-05
13170.0 7.5857e-05
13190.0 7.583e-05
13210.0 7.579e-05
13230.0 7.5727e-05
13250.0 7.5634e-05
13270.0 7.5511e-05
13290.0 7.5348e-05
13310.0 7.5135e-05
13330.0 7.4883e-05
13350.0 7.4594e-05
13370.0 7.4251e-05
13390.0 7.3857e-05
13410.0 7.3446e-05
13430.0 7.299e-05
13450.0 7.2484e-05
13470.0 7.1957e-05
13490.0 7.1414e-05
13510.0 7.0808e-05
13530.0 7.0183e-05
13550.0 6.956e-05
13570.0 6.8909e-05
13590.0 6.8222e-05
13610.0 6.7543e-05
13630.0 6.6872e-05
13650.0 6.6163e-05
13670.0 6.5452e-05
13690.0 6.4763e-05
13710.0 6.4062e-05
13730.0 6.3327e-05
13750.0 6.2639e-05
13770.0 6.1962e-05
13790.0 6.1273e-05
13810.0 6.0599e-05
13830.0 5.9969e-05
13850.0 5.9332e-05
13870.0 5.87e-05
13890.0 5.8109e-05
13910.0 5.7542e-05
13930.0 5.6971e-05
13950.0 5.6425e-05
13970.0 5.5928e-05
13990.0 5.5434e-05
14010.0 5.4952e-05
14030.0 5.4507e-05
14050.0 5.4084e-05
14070.0 5.3658e-05
14090.0 5.3265e-05
14110.0 5.2903e-05
14130.0 5.255e-05
14150.0 5.2208e-05
14170.0 5.19e-05
14190.0 5.1607e-05
14210.0 5.1317e-05
14230.0 5.1046e-05
14250.0 5.0793e-05
14270.0 5.0539e-05
14290.0 5.0289e-05
14310.0 5.0059e-05
14330.0 4.9834e-05
14350.0 4.9606e-05
14370.0 4.9388e-05
14390.0 4.9182e-05
14410.0 4.8971e-05
14430.0 4.8763e-05
14450.0 4.8566e-05
14470.0 4.8372e-05
14490.0 4.817e-05
14510.0 4.7978e-05
14530.0 4.7793e-05
14550.0 4.7602e-05
14570.0 4.7409e-05
14590.0 4.7224e-05
14610.0 4.7034e-05
14630.0 4.6835e-05
14650.0 4.664e-05
14670.0 4.6447e-05
14690.0 4.6243e-05
14710.0 4.6034e-05
14730.0 4.5835e-05
14750.0 4.5627e-05
14770.0 4.541e-05
14790.0 4.5194e-05
14810.0 4.498e-05
14830.0 4.4745e-05
14850.0 4.451e-05
14870.0 4.428e-05
14890.0 4.4044e-05
14910.0 4.3801e-05
14930.0 4.3571e-05
14950.0 4.3355e-05
14970.0 4.3142e-05
14990.0 4.2949e-05
15010.0 4.2783e-05
15030.0 4.2634e-05
15050.0 4.2497e-05
15070.0 4.2385e-05
15090.0 4.2284e-05
15110.0 4.2187e-05
15130.0 4.2096e-05
15150.0 4.2011e-05
15170.0 4.1924e-05
15190.0 4.1835e-05
15210.0 4.1749e-05
15230.0 4.1664e-05
15250.0 4.1575e-05
15270.0 4.1486e-05
15290.0 4.1402e-05
15310.0 4.1314e-05
15330.0 4.1225e-05
15350.0 4.1139e-05
15370.0 4.1053e-05
15390.0 4.0961e-05
15410.0 4.0871e-05
15430.0 4.0784e-05
15450.0 4.0694e-05
15470.0 4.0602e-05
15490.0 4.0514e-05
15510.0 4.0426e-05
15530.0 4.0334e-05
15550.0 4.0243e-05
15570.0 4.0154e-05
15590.0 4.0062e-05
15610.0 3.9967e-05
15630.0 3.9877e-05
15650.0 3.9786e-05
15670.0 3.9691e-05
15690.0 3.9598e-05
15710.0 3.9508e-05
15730.0 3.9413e-05
15750.0 3.9318e-05
15770.0 3.9226e-05
15790.0 3.9132e-05
15810.0 3.9034e-05
15830.0 3.8939e-05
15850.0 3.8846e-05
15870.0 3.8749e-05
15890.0 3.8652e-05
15910.0 3.8559e-05
15930.0 3.8463e-05
15950.0 3.8363e-05
15970.0 3.8266e-05
15990.0 3.817e-05
16010.0 3.8071e-05
16030.0 3.797e-05
16050.0 3.7875e-05
16070.0 3.7777e-05
16090.0 3.7676e-05
16110.0 3.7578e-05
16130.0 3.7481e-05
16150.0 3.7378e-05
16170.0 3.7276e-05
16190.0 3.7178e-05
16210.0 3.7077e-05
16230.0 3.6974e-05
16250.0 3.6874e-05
16270.0 3.6775e-05
16290.0 3.6671e-05
16310.0 3.6568e-05
16330.0 3.6468e-05
16350.0 3.6366e-05
16370.0 3.6259e-05
16390.0 3.6157e-05
16410.0 3.6056e-05
16430.0 3.5951e-05
16450.0 3.5846e-05
16470.0 3.5746e-05
16490.0 3.5641e-05
16510.0 3.5534e-05
16530.0 3.5431e-05
16550.0 3.5327e-05
16570.0 3.5219e-05
16590.0 3.5113e-05
16610.0 3.501e-05
16630.0 3.4904e-05
16650.0 3.4797e-05
16670.0 3.4693e-05
16690.0 3.4588e-05
16710.0 3.4478e-05
16730.0 3.4371e-05
16750.0 3.4267e-05
16770.0 3.4159e-05
16790.0 3.4049e-05
16810.0 3.3945e-05
16830.0 3.3839e-05
16850.0 3.3729e-05
16870.0 3.3622e-05
16890.0 3.3517e-05
16910.0 3.3407e-05
16930.0 3.3296e-05
16950.0 3.319e-05
16970.0 3.3082e-05
16990.0 3.2972e-05
17010.0 3.2864e-05
17030.0 3.2758e-05
17050.0 3.2648e-05
17070.0 3.2537e-05
17090.0 3.243e-05
17110.0 3.2322e-05
17130.0 3.2209e-05
17150.0 3.21e-05
17170.0 3.1994e-05
17190.0 3.1883e-05
17210.0 3.1773e-05
17230.0 3.1666e-05
17250.0 3.1557e-05
17270.0 3.1444e-05
17290.0 3.1335e-05
17310.0 3.1227e-05
17330.0 3.1116e-05
17350.0 3.1003e-05
17370.0 3.0897e-05
17390.0 3.0787e-05
17410.0 3.0676e-05
17430.0 3.0567e-05
17450.0 3.0459e-05
17470.0 3.0346e-05
17490.0 3.0234e-05
17510.0 3.0127e-05
17530.0 3.0017e-05
17550.0 2.9904e-05
17570.0 2.9796e-05
17590.0 2.9688e-05
17610.0 2.9576e-05
17630.0 2.9465e-05
17650.0 2.9357e-05
17670.0 2.9247e-05
17690.0 2.9133e-05
17710.0 2.9025e-05
17730.0 2.8916e-05
17750.0 2.8805e-05
17770.0 2.8694e-05
17790.0 2.8588e-05
17810.0 2.8476e-05
17830.0 2.8364e-05
17850.0 2.8256e-05
17870.0 2.8147e-05
17890.0 2.8034e-05
17910.0 2.7924e-05
17930.0 2.7817e-05
17950.0 2.7707e-05
17970.0 2.7596e-05
17990.0 2.7488e-05
18010.0 2.738e-05
18030.0 2.7267e-05
18050.0 2.7157e-05
18070.0 2.705e-05
18090.0 2.6939e-05
18110.0 2.6828e-05
18130.0 2.6721e-05
18150.0 2.6613e-05
18170.0 2.6502e-05
18190.0 2.6393e-05
18210.0 2.6286e-05
18230.0 2.6175e-05
18250.0 2.6063e-05
18270.0 2.5957e-05
18290.0 2.5849e-05
18310.0 2.5738e-05
18330.0 2.563e-05
18350.0 2.5524e-05
18370.0 2.5414e-05
18390.0 2.5304e-05
18410.0 2.5198e-05
18430.0 2.509e-05
18450.0 2.4978e-05
18470.0 2.487e-05
18490.0 2.4765e-05
18510.0 2.4656e-05
18530.0 2.4547e-05
18550.0 2.4442e-05
18570.0 2.4334e-05
18590.0 2.4223e-05
18610.0 2.4116e-05
18630.0 2.401e-05
18650.0 2.3901e-05
18670.0 2.3792e-05
18690.0 2.3688e-05
18710.0 2.3581e-05
18730.0 2.3472e-05
18750.0 2.3366e-05
18770.0 2.3262e-05
18790.0 2.3151e-05
18810.0 2.3043e-05
18830.0 2.2939e-05
18850.0 2.2832e-05
18870.0 2.2723e-05
18890.0 2.2618e-05
18910.0 2.2514e-05
18930.0 2.2406e-05
18950.0 2.2299e-05
18970.0 2.2195e-05
18990.0 2.2089e-05
19010.0 2.1978e-05
19030.0 2.1875e-05
19050.0 2.1771e-05
19070.0 2.1663e-05
19090.0 2.1557e-05
19110.0 2.1455e-05
19130.0 2.1348e-05
19150.0 2.1241e-05
19170.0 2.1137e-05
19190.0 2.1033e-05
19210.0 2.0925e-05
19230.0 2.0819e-05
19250.0 2.0718e-05
19270.0 2.0612e-05
19290.0 2.0506e-05
19310.0 2.0403e-05
19330.0 2.03e-05
19350.0 2.0191e-05
19370.0 2.0087e-05
19390.0 1.9985e-05
19410.0 1.988e-05
19430.0 1.9773e-05
19450.0 1.9672e-05
19470.0 1.9569e-05
19490.0 1.9463e-05
19510.0 1.9359e-05
19530.0 1.9258e-05
19550.0 1.9152e-05
19570.0 1.9045e-05
19590.0 1.8944e-05
19610.0 1.8841e-05
19630.0 1.8736e-05
19650.0 1.8633e-05
19670.0 1.8533e-05
19690.0 1.8427e-05
19710.0 1.8323e-05
19730.0 1.8221e-05
19750.0 1.8119e-05
19770.0 1.8012e-05
19790.0 1.791e-05
19810.0 1.781e-05
19830.0 1.7705e-05
19850.0 1.7602e-05
19870.0 1.7503e-05
19890.0 1.7402e-05
19910.0 1.73e-05
19930.0 1.7206e-05
19950.0 1.7116e-05
19970.0 1.703e-05
19990.0 1.6954e-05
20010.0 1.689e-05
20030.0 1.6834e-05
20050.0 1.6787e-05
20070.0 1.675e-05
20090.0 1.672e-05
20110.0 1.6693e-05
20130.0 1.667e-05
20150.0 1.6649e-05
20170.0 1.6629e-05
20190.0 1.6609e-05
20210.0 1.6589e-05
20230.0 1.6569e-05
20250.0 1.6547e-05
20270.0 1.6525e-05
20290.0 1.6502e-05
20310.0 1.6478e-05
20330.0 1.6451e-05
20350.0 1.6425e-05
20370.0 1.6397e-05
20390.0 1.6366e-05
20410.0 1.6336e-05
20430.0 1.6305e-05
20450.0 1.6271e-05
20470.0 1.6237e-05
20490.0 1.6204e-05
20510.0 1.617e-05
20530.0 1.6135e-05
20550.0 1.6102e-05
20570.0 1.6069e-05
20590.0 1.6037e-05
20610.0 1.6005e-05
20630.0 1.5974e-05
20650.0 1.5944e-05
20670.0 1.5913e-05
20690.0 1.5884e-05
20710.0 1.5855e-05
20730.0 1.5824e-05
20750.0 1.5792e-05
20770.0 1.576e-05
20790.0 1.5726e-05
20810.0 1.5689e-05
20830.0 1.565e-05
20850.0 1.5609e-05
20870.0 1.5564e-05
20890.0 1.5515e-05
20910.0 1.5466e-05
20930.0 1.5413e-05
20950.0 1.5356e-05
20970.0 1.5298e-05
20990.0 1.524e-05
21010.0 1.5178e-05
21030.0 1.5115e-05
21050.0 1.5053e-05
21070.0 1.4991e-05
21090.0 1.4926e-05
21110.0 1.4864e-05
21130.0 1.4804e-05
21150.0 1.4742e-05
21170.0 1.4681e-05
21190.0 1.4622e-05
21210.0 1.4561e-05
21230.0 1.45e-05
21250.0 1.444e-05
21270.0 1.438e-05
21290.0 1.4318e-05
21310.0 1.4255e-05
21330.0 1.4193e-05
21350.0 1.4128e-05
21370.0 1.406e-05
21390.0 1.3993e-05
21410.0 1.3925e-05
21430.0 1.3851e-05
21450.0 1.3778e-05
21470.0 1.3705e-05
21490.0 1.3628e-05
21510.0 1.3549e-05
21530.0 1.3472e-05
21550.0 1.3393e-05
21570.0 1.3309e-05
21590.0 1.3227e-05
21610.0 1.3146e-05
21630.0 1.3063e-05
21650.0 1.2976e-05
21670.0 1.2895e-05
21690.0 1.2812e-05
21710.0 1.2727e-05
21730.0 1.2644e-05
21750.0 1.2563e-05
21770.0 1.2478e-05
21790.0 1.2394e-05
21810.0 1.2312e-05
21830.0 1.2229e-05
21850.0 1.2144e-05
21870.0 1.206e-05
21890.0 1.1979e-05
21910.0 1.1895e-05
21930.0 1.1811e-05
21950.0 1.173e-05
21970.0 1.1648e-05
21990.0 1.1564e-05
22010.0 1.1484e-05
22030.0 1.1406e-05
22050.0 1.1328e-05
22070.0 1.1249e-05
22090.0 1.1171e-05
22110.0 1.1094e-05
22130.0 1.1018e-05
22150.0 1.0946e-05
22170.0 1.0878e-05
22190.0 1.0809e-05
22210.0 1.0744e-05
22230.0 1.0683e-05
22250.0 1.0624e-05
22270.0 1.0565e-05
22290.0 1.051e-05
22310.0 1.0456e-05
22330.0 1.0401e-05
22350.0 1.0348e-05
22370.0 1.0297e-05
22390.0 1.0245e-05
22410.0 1.0192e-05
22430.0 1.0141e-05
22450.0 1.0089e-05
22470.0 1.0036e-05
22490.0 9.9822e-06
22510.0 9.9294e-06
22530.0 9.8745e-06
22550.0 9.8186e-06
22570.0 9.7637e-06
22590.0 9.7085e-06
22610.0 9.6519e-06
22630.0 9.5958e-06
22650.0 9.5412e-06
22670.0 9.4857e-06
22690.0 9.4304e-06
22710.0 9.3768e-06
22730.0 9.324e-06
22750.0 9.2707e-06
