#lamb flux
1010.0 1.6608e-06
1030.0 1.7623e-06
1050.0 1.8791e-06
1070.0 2.0105e-06
1090.0 2.1598e-06
1110.0 2.313e-06
1130.0 2.4672e-06
1150.0 2.6288e-06
1170.0 2.7954e-06
1190.0 2.9535e-06
1210.0 3.1138e-06
1230.0 3.2794e-06
1250.0 3.4418e-06
1270.0 3.5995e-06
1290.0 3.7662e-06
1310.0 3.9328e-06
1330.0 4.0927e-06
1350.0 4.2544e-06
1370.0 4.4214e-06
1390.0 4.5844e-06
1410.0 4.7426e-06
1430.0 4.908e-06
1450.0 5.0735e-06
1470.0 5.2336e-06
1490.0 5.3954e-06
1510.0 5.5664e-06
1530.0 5.7286e-06
1550.0 5.8887e-06
1570.0 6.0544e-06
1590.0 6.2204e-06
1610.0 6.3791e-06
1630.0 6.5429e-06
1650.0 6.711e-06
1670.0 6.8738e-06
1690.0 7.0346e-06
1710.0 7.2018e-06
1730.0 7.37e-06
1750.0 7.5285e-06
1770.0 7.6918e-06
1790.0 7.8585e-06
1810.0 8.0202e-06
1830.0 8.1793e-06
1850.0 8.3483e-06
1870.0 8.5134e-06
1890.0 8.6732e-06
1910.0 8.8367e-06
1930.0 9.0044e-06
1950.0 9.1651e-06
1970.0 9.3243e-06
1990.0 9.4901e-06
2010.0 9.6537e-06
2030.0 9.8122e-06
2050.0 9.9763e-06
2070.0 1.0145e-05
2090.0 1.0305e-05
2110.0 1.0466e-05
2130.0 1.0632e-05
2150.0 1.0797e-05
2170.0 1.0955e-05
2190.0 1.1121e-05
2210.0 1.1289e-05
2230.0 1.1451e-05
2250.0 1.1614e-05
2270.0 1.1786e-05
2290.0 1.1954e-05
2310.0 1.2117e-05
2330.0 1.2286e-05
2350.0 1.2458e-05
2370.0 1.2625e-05
2390.0 1.2795e-05
2410.0 1.2974e-05
2430.0 1.3148e-05
2450.0 1.3316e-05
2470.0 1.3481e-05
2490.0 1.3635e-05
2510.0 1.3767e-05
2530.0 1.3897e-05
2550.0 1.4059e-05
2570.0 1.4307e-05
2590.0 1.4714e-05
2610.0 1.5436e-05
2630.0 1.6566e-05
2650.0 1.8091e-05
2670.0 2.0065e-05
2690.0 2.2471e-05
2710.0 2.503e-05
2730.0 2.7584e-05
2750.0 3.0179e-05
2770.0 3.2597e-05
2790.0 3.4757e-05
2810.0 3.679e-05
2830.0 3.8812e-05
2850.0 4.0677e-05
2870.0 4.2521e-05
2890.0 4.4446e-05
2910.0 4.6395e-05
2930.0 4.8286e-05
2950.0 5.0263e-05
2970.0 5.2297e-05
2990.0 5.4277e-05
3010.0 0.00011652
3030.0 0.00012078
3050.0 0.00012508
3070.0 0.0001292
3090.0 0.00013352
3110.0 0.00013801
3130.0 0.00014245
3150.0 0.00014685
3170.0 0.00015135
3190.0 0.00015524
3210.0 0.00015826
3230.0 0.00016063
3250.0 0.00014156
3270.0 0.00012262
3290.0 9.365e-05
3310.0 0.00010494
3330.0 0.00011302
3350.0 0.00012071
3370.0 0.00012833
3390.0 0.00013597
3410.0 0.0001436
3430.0 0.00015122
3450.0 0.00015886
3470.0 0.00016647
3490.0 0.00017291
3510.0 0.00017508
3530.0 0.00018321
3550.0 0.00022384
3570.0 0.00028375
3590.0 0.00032107
3610.0 0.00036546
3630.0 0.00034043
3650.0 0.0003114
3670.0 0.00030012
3690.0 0.00035674
3710.0 0.0004527
3730.0 0.00048665
3750.0 0.00050521
3770.0 0.00051021
3790.0 0.00050175
3810.0 0.00045541
3830.0 0.00035269
3850.0 0.00028168
3870.0 0.00027439
3890.0 0.00037447
3910.0 0.00050916
3930.0 0.00059698
3950.0 0.00062993
3970.0 0.00062669
3990.0 0.00071515
4010.0 0.00079944
4030.0 0.00074779
4050.0 0.00065417
4070.0 0.00055343
4090.0 0.00055014
4110.0 0.00062327
4130.0 0.00063256
4150.0 0.00063766
4170.0 0.00060081
4190.0 0.00057286
4210.0 0.00057993
4230.0 0.00066655
4250.0 0.00067307
4270.0 0.00066865
4290.0 0.0006623
4310.0 0.00066285
4330.0 0.00073237
4350.0 0.00084346
4370.0 0.00085713
4390.0 0.00074175
4410.0 0.00061272
4430.0 0.00052532
4450.0 0.00045199
4470.0 0.00043793
4490.0 0.00052357
4510.0 0.0005874
4530.0 0.00064396
4550.0 0.00069218
4570.0 0.00081774
4590.0 0.001166
4610.0 0.001562
4630.0 0.0016179
4650.0 0.0015359
4670.0 0.0016323
4690.0 0.0017907
4710.0 0.0015833
4730.0 0.0011659
4750.0 0.00088726
4770.0 0.00080776
4790.0 0.00081083
4810.0 0.0007601
4830.0 0.0008293
4850.0 0.0010529
4870.0 0.0013077
4890.0 0.0011688
4910.0 0.0010274
4930.0 0.0011398
4950.0 0.0014974
4970.0 0.0019428
4990.0 0.0020024
5010.0 0.0017251
5030.0 0.0012945
5050.0 0.00092814
5070.0 0.00078048
5090.0 0.00074031
5110.0 0.00075118
5130.0 0.00078155
5150.0 0.00077121
5170.0 0.000786
5190.0 0.00076103
5210.0 0.00078793
5230.0 0.00084641
5250.0 0.00093694
5270.0 0.0011595
5290.0 0.0013295
5310.0 0.0013421
5330.0 0.0014036
5350.0 0.0015911
5370.0 0.0016997
5390.0 0.0015842
5410.0 0.0013628
5430.0 0.0013024
5450.0 0.0015106
5470.0 0.0019585
5490.0 0.0024432
5510.0 0.0027006
5530.0 0.0027713
5550.0 0.0026552
5570.0 0.0024856
5590.0 0.0024148
5610.0 0.0024567
5630.0 0.0025272
5650.0 0.0025452
5670.0 0.0025204
5690.0 0.0024632
5710.0 0.0022226
5730.0 0.0018694
5750.0 0.0015775
5770.0 0.0015955
5790.0 0.001763
5810.0 0.0019072
5830.0 0.0019812
5850.0 0.0019909
5870.0 0.0018512
5890.0 0.0016302
5910.0 0.0016049
5930.0 0.0017515
5950.0 0.0018209
5970.0 0.0016795
5990.0 0.0014554
6010.0 0.0012044
6030.0 0.0010115
6050.0 0.00099609
6070.0 0.0011322
6090.0 0.0011921
6110.0 0.00109
6130.0 0.0010089
6150.0 0.0010717
6170.0 0.0012832
6190.0 0.001531
6210.0 0.0016647
6230.0 0.0016071
6250.0 0.0014731
6270.0 0.0012747
6290.0 0.0010568
6310.0 0.00087468
6330.0 0.00079008
6350.0 0.00082289
6370.0 0.0008921
6390.0 0.00096557
6410.0 0.0010987
6430.0 0.0013527
6450.0 0.0017035
6470.0 0.0019392
6490.0 0.0019441
6510.0 0.0018982
6530.0 0.0019342
6550.0 0.0019774
6570.0 0.0019948
6590.0 0.0019949
6610.0 0.0019407
6630.0 0.0019434
6650.0 0.00195
6670.0 0.001875
6690.0 0.0016813
6710.0 0.0014213
6730.0 0.0013608
6750.0 0.0014625
6770.0 0.0015902
6790.0 0.0016393
6810.0 0.0016208
6830.0 0.0015986
6850.0 0.0015638
6870.0 0.0014745
6890.0 0.0013894
6910.0 0.0013279
6930.0 0.0012799
6950.0 0.0013586
6970.0 0.0014787
6990.0 0.0015596
7010.0 0.0015778
7030.0 0.0014912
7050.0 0.0012945
7070.0 0.0010495
7090.0 0.00089165
7110.0 0.00086009
7130.0 0.00090723
7150.0 0.00091846
7170.0 0.0008448
7190.0 0.00082827
7210.0 0.00091251
7230.0 0.0010479
7250.0 0.0011977
7270.0 0.0012613
7290.0 0.0011876
7310.0 0.0010537
7330.0 0.00096435
7350.0 0.00094393
7370.0 0.00096863
7390.0 0.0010123
7410.0 0.0010846
7430.0 0.0012329
7450.0 0.0014332
7470.0 0.0016364
7490.0 0.001731
7510.0 0.0016743
7530.0 0.0014435
7550.0 0.0011715
7570.0 0.00097052
7590.0 0.00085216
7610.0 0.00087339
7630.0 0.0010053
7650.0 0.0011516
7670.0 0.0012981
7690.0 0.0014209
7710.0 0.0015079
7730.0 0.0015796
7750.0 0.001646
7770.0 0.0017036
7790.0 0.0017038
7810.0 0.0017158
7830.0 0.0017634
7850.0 0.0017602
7870.0 0.0017073
7890.0 0.0015801
7910.0 0.0014791
7930.0 0.0014051
7950.0 0.0013991
7970.0 0.0013852
7990.0 0.001394
8010.0 0.0013844
8030.0 0.0013854
8050.0 0.0014177
8070.0 0.0013927
8090.0 0.0013885
8110.0 0.0013308
8130.0 0.0013188
8150.0 0.0012788
8170.0 0.0012394
8190.0 0.0012189
8210.0 0.0012243
8230.0 0.0011459
8250.0 0.0010714
8270.0 0.00093355
8290.0 0.00075099
8310.0 0.00058107
8330.0 0.00044528
8350.0 0.00039204
8370.0 0.00044031
8390.0 0.00050771
8410.0 0.00055953
8430.0 0.00061984
8450.0 0.00065184
8470.0 0.00068114
8490.0 0.0007557
8510.0 0.00084041
8530.0 0.00097447
8550.0 0.0011404
8570.0 0.0012891
8590.0 0.0014073
8610.0 0.0015071
8630.0 0.0015772
8650.0 0.0015856
8670.0 0.001586
8690.0 0.0016352
8710.0 0.0016625
8730.0 0.0016923
8750.0 0.0016545
8770.0 0.0016564
8790.0 0.0016299
8810.0 0.0015145
8830.0 0.0014708
8850.0 0.0013846
8870.0 0.0013198
8890.0 0.001258
8910.0 0.0012872
8930.0 0.0012087
8950.0 0.0011616
8970.0 0.0011423
8990.0 0.0011135
9010.0 0.0010925
9030.0 0.0010637
9050.0 0.0010572
9070.0 0.0010543
9090.0 0.0010515
9110.0 0.0010488
9130.0 0.0010458
9150.0 0.0010427
9170.0 0.0010382
9190.0 0.0010322
9210.0 0.0010373
9230.0 0.001032
9250.0 0.0010277
9270.0 0.0010236
9290.0 0.0010198
9310.0 0.001016
9330.0 0.0010122
9350.0 0.0010085
9370.0 0.0010048
9390.0 0.001001
9410.0 0.00099722
9430.0 0.00099333
9450.0 0.00098902
9470.0 0.00098481
9490.0 0.00098124
9510.0 0.00097744
9530.0 0.00097355
9550.0 0.00096959
9570.0 0.00096558
9590.0 0.00096154
9610.0 0.00095746
9630.0 0.00095337
9650.0 0.00094926
9670.0 0.00094513
9690.0 0.00094099
9710.0 0.00093685
9730.0 0.0009327
9750.0 0.00092854
9770.0 0.00092438
9790.0 0.00092022
9810.0 0.00091605
9830.0 0.00091189
9850.0 0.00090773
9870.0 0.00090356
9890.0 0.0008994
9910.0 0.00089523
9930.0 0.000891
9950.0 0.00088123
9970.0 0.00087874
9990.0 0.00087595
10010.0 0.00087299
10030.0 0.00086958
10050.0 0.00086573
10070.0 0.00086161
10090.0 0.00085789
10110.0 0.00085381
10130.0 0.00084993
10150.0 0.00084599
10170.0 0.00084188
10190.0 0.00083757
10210.0 0.00083355
10230.0 0.00082962
10250.0 0.00082547
10270.0 0.00082138
10290.0 0.00081751
10310.0 0.00081344
10330.0 0.0008092
10350.0 0.00080524
10370.0 0.0008013
10390.0 0.00079715
10410.0 0.00079305
10430.0 0.00078922
10450.0 0.00078517
10470.0 0.00078102
10490.0 0.00077707
10510.0 0.00077314
10530.0 0.00076887
10550.0 0.00076476
10570.0 0.00076087
10590.0 0.00075678
10610.0 0.00075258
10630.0 0.00074863
10650.0 0.00074464
10670.0 0.00074037
10690.0 0.00073623
10710.0 0.00073224
10730.0 0.00072804
10750.0 0.00072365
10770.0 0.00071964
10790.0 0.00071553
10810.0 0.0007112
10830.0 0.00070696
10850.0 0.0007029
10870.0 0.00069838
10890.0 0.00069376
10910.0 0.00068918
10930.0 0.00068423
10950.0 0.00067853
10970.0 0.00067236
10990.0 0.00066577
11010.0 0.00060086
11030.0 0.00059289
11050.0 0.00058518
11070.0 0.0005773
11090.0 0.00056881
11110.0 0.00056095
11130.0 0.00055332
11150.0 0.00054542
11170.0 0.00053758
11190.0 0.00053027
11210.0 0.00052275
11230.0 0.00051499
11250.0 0.00050761
11270.0 0.00050045
11290.0 0.00049299
11310.0 0.00048568
11330.0 0.00047911
11350.0 0.00047251
11370.0 0.00046597
11390.0 0.00045996
11410.0 0.00045429
11430.0 0.00044837
11450.0 0.00044276
11470.0 0.00043747
11490.0 0.00043202
11510.0 0.00042626
11530.0 0.00042072
11550.0 0.00041504
11570.0 0.00040878
11590.0 0.00040229
11610.0 0.00039577
11630.0 0.00038859
11650.0 0.00038083
11670.0 0.00037324
11690.0 0.00036542
11710.0 0.00035709
11730.0 0.00034879
11750.0 0.0003409
11770.0 0.00033271
11790.0 0.00032456
11810.0 0.00031699
11830.0 0.00030972
11850.0 0.00030234
11870.0 0.00029563
11890.0 0.00028958
11910.0 0.00028368
11930.0 0.00027809
11950.0 0.00027314
11970.0 0.00026846
11990.0 0.00026385
12010.0 0.00025969
12030.0 0.00025591
12050.0 0.00025222
12070.0 0.00024866
12090.0 0.00024561
12110.0 0.00024272
12130.0 0.00023995
12150.0 0.00023752
12170.0 0.00023547
12190.0 0.00023354
12210.0 0.000232
12230.0 0.00023096
12250.0 0.00023033
12270.0 0.00023016
12290.0 0.00023058
12310.0 0.00023157
12330.0 0.00023318
12350.0 0.00023544
12370.0 0.00023826
12390.0 0.0002417
12410.0 0.00024588
12430.0 0.00025041
12450.0 0.00025531
12470.0 0.00026067
12490.0 0.00026625
12510.0 0.00027175
12530.0 0.00027739
12550.0 0.00028303
12570.0 0.00028831
12590.0 0.00029326
12610.0 0.00029799
12630.0 0.00030223
12650.0 0.00030583
12670.0 0.00030898
12690.0 0.00031161
12710.0 0.00031363
12730.0 0.0003151
12750.0 0.00031603
12770.0 0.00031641
12790.0 0.00031632
12810.0 0.00031574
12830.0 0.00031466
12850.0 0.0003133
12870.0 0.00031161
12890.0 0.00030952
12910.0 0.0003072
12930.0 0.00030477
12950.0 0.00030202
12970.0 0.00029901
12990.0 0.00029602
13010.0 0.0002929
13030.0 0.00028951
13050.0 0.00028606
13070.0 0.00028265
13090.0 0.00027897
13110.0 0.00027516
13130.0 0.00027145
13150.0 0.00026773
13170.0 0.00026384
13190.0 0.0002602
13210.0 0.00025688
13230.0 0.00025369
13250.0 0.00025083
13270.0 0.00024851
13290.0 0.00024663
13310.0 0.00024521
13330.0 0.00024442
13350.0 0.00024419
13370.0 0.00024445
13390.0 0.0002452
13410.0 0.00024625
13430.0 0.00024752
13450.0 0.00024889
13470.0 0.00025016
13490.0 0.00025119
13510.0 0.00025188
13530.0 0.00025206
13550.0 0.00025168
13570.0 0.00025068
13590.0 0.000249
13610.0 0.00024677
13630.0 0.00024408
13650.0 0.00024081
13670.0 0.00023718
13690.0 0.00023344
13710.0 0.0002295
13730.0 0.00022532
13750.0 0.00022144
13770.0 0.00021772
13790.0 0.00021407
13810.0 0.00021069
13830.0 0.00020769
13850.0 0.00020485
13870.0 0.00020223
13890.0 0.00019995
13910.0 0.00019791
13930.0 0.00019602
13950.0 0.00019434
13970.0 0.0001929
13990.0 0.00019157
14010.0 0.00019037
14030.0 0.00018931
14050.0 0.00018835
14070.0 0.00018744
14090.0 0.00018663
14110.0 0.00018589
14130.0 0.00018517
14150.0 0.00018448
14170.0 0.00018383
14190.0 0.00018319
14210.0 0.00018255
14230.0 0.00018194
14250.0 0.00018135
14270.0 0.00018078
14290.0 0.00018025
14310.0 0.00017978
14330.0 0.00017937
14350.0 0.00017902
14370.0 0.00017874
14390.0 0.00017852
14410.0 0.00017835
14430.0 0.00017821
14450.0 0.00017809
14470.0 0.00017797
14490.0 0.00017784
14510.0 0.00017767
14530.0 0.00017746
14550.0 0.00017721
14570.0 0.00017694
14590.0 0.00017665
14610.0 0.00017637
14630.0 0.00017613
14650.0 0.00017597
14670.0 0.0001759
14690.0 0.000176
14710.0 0.00017629
14730.0 0.00017674
14750.0 0.00017744
14770.0 0.00017844
14790.0 0.00017969
14810.0 0.00018118
14830.0 0.00018311
14850.0 0.00018533
14870.0 0.00018773
14890.0 0.0001904
14910.0 0.00019333
14930.0 0.00019618
14950.0 0.00019884
14970.0 0.00020137
14990.0 0.00020343
15010.0 0.0002049
15030.0 0.00020586
15050.0 0.00020633
15070.0 0.00020629
15090.0 0.00020592
15110.0 0.00020534
15130.0 0.00020462
15150.0 0.00020381
15170.0 0.00020297
15190.0 0.0002021
15210.0 0.00020122
15230.0 0.00020035
15250.0 0.00019946
15270.0 0.00019857
15290.0 0.00019769
15310.0 0.00019681
15330.0 0.00019592
15350.0 0.00019504
15370.0 0.00019415
15390.0 0.00019326
15410.0 0.00019237
15430.0 0.00019149
15450.0 0.0001906
15470.0 0.00018971
15490.0 0.00018883
15510.0 0.00018795
15530.0 0.00018707
15550.0 0.00018619
15570.0 0.00018531
15590.0 0.00018443
15610.0 0.00018354
15630.0 0.00018267
15650.0 0.0001818
15670.0 0.00018092
15690.0 0.00018005
15710.0 0.00017919
15730.0 0.00017832
15750.0 0.00017745
15770.0 0.00017659
15790.0 0.00017573
15810.0 0.00017487
15830.0 0.00017401
15850.0 0.00017317
15870.0 0.00017231
15890.0 0.00017147
15910.0 0.00017063
15930.0 0.00016979
15950.0 0.00016894
15970.0 0.00016811
15990.0 0.00016728
16010.0 0.00016645
16030.0 0.00016562
16050.0 0.00016481
16070.0 0.00016399
16090.0 0.00016317
16110.0 0.00016236
16130.0 0.00016156
16150.0 0.00016075
16170.0 0.00015995
16190.0 0.00015916
16210.0 0.00015837
16230.0 0.00015758
16250.0 0.0001568
16270.0 0.00015602
16290.0 0.00015524
16310.0 0.00015447
16330.0 0.0001537
16350.0 0.00015294
16370.0 0.00015218
16390.0 0.00015142
16410.0 0.00015068
16430.0 0.00014993
16450.0 0.00014919
16470.0 0.00014845
16490.0 0.00014772
16510.0 0.00014699
16530.0 0.00014626
16550.0 0.00014555
16570.0 0.00014483
16590.0 0.00014411
16610.0 0.00014341
16630.0 0.00014271
16650.0 0.00014201
16670.0 0.00014132
16690.0 0.00014063
16710.0 0.00013994
16730.0 0.00013926
16750.0 0.00013859
16770.0 0.00013792
16790.0 0.00013725
16810.0 0.00013659
16830.0 0.00013594
16850.0 0.00013528
16870.0 0.00013464
16890.0 0.000134
16910.0 0.00013336
16930.0 0.00013272
16950.0 0.00013209
16970.0 0.00013147
16990.0 0.00013085
17010.0 0.00013023
17030.0 0.00012962
17050.0 0.00012901
17070.0 0.00012841
17090.0 0.00012782
17110.0 0.00012722
17130.0 0.00012663
17150.0 0.00012605
17170.0 0.00012547
17190.0 0.00012489
17210.0 0.00012432
17230.0 0.00012376
17250.0 0.00012319
17270.0 0.00012263
17290.0 0.00012208
17310.0 0.00012153
17330.0 0.00012099
17350.0 0.00012044
17370.0 0.00011991
17390.0 0.00011938
17410.0 0.00011885
17430.0 0.00011833
17450.0 0.00011781
17470.0 0.00011729
17490.0 0.00011678
17510.0 0.00011627
17530.0 0.00011577
17550.0 0.00011527
17570.0 0.00011478
17590.0 0.00011429
17610.0 0.0001138
17630.0 0.00011332
17650.0 0.00011284
17670.0 0.00011237
17690.0 0.00011189
17710.0 0.00011143
17730.0 0.00011097
17750.0 0.0001105
17770.0 0.00011005
17790.0 0.0001096
17810.0 0.00010915
17830.0 0.00010871
17850.0 0.00010827
17870.0 0.00010783
17890.0 0.0001074
17910.0 0.00010697
17930.0 0.00010654
17950.0 0.00010612
17970.0 0.0001057
17990.0 0.00010529
18010.0 0.00010488
18030.0 0.00010447
18050.0 0.00010407
18070.0 0.00010367
18090.0 0.00010327
18110.0 0.00010287
18130.0 0.00010249
18150.0 0.0001021
18170.0 0.00010171
18190.0 0.00010133
18210.0 0.00010096
18230.0 0.00010058
18250.0 0.00010021
18270.0 9.9845e-05
18290.0 9.9482e-05
18310.0 9.9119e-05
18330.0 9.8761e-05
18350.0 9.841e-05
18370.0 9.8056e-05
18390.0 9.7706e-05
18410.0 9.7362e-05
18430.0 9.702e-05
18450.0 9.6677e-05
18470.0 9.6341e-05
18490.0 9.601e-05
18510.0 9.5677e-05
18530.0 9.5348e-05
18550.0 9.5026e-05
18570.0 9.4704e-05
18590.0 9.4381e-05
18610.0 9.4065e-05
18630.0 9.3753e-05
18650.0 9.344e-05
18670.0 9.3129e-05
18690.0 9.2827e-05
18710.0 9.2524e-05
18730.0 9.2221e-05
18750.0 9.1924e-05
18770.0 9.1631e-05
18790.0 9.1335e-05
18810.0 9.1043e-05
18830.0 9.0758e-05
18850.0 9.0472e-05
18870.0 9.0187e-05
18890.0 8.9908e-05
18910.0 8.9632e-05
18930.0 8.9355e-05
18950.0 8.9081e-05
18970.0 8.8812e-05
18990.0 8.8543e-05
19010.0 8.8273e-05
19030.0 8.8011e-05
19050.0 8.7751e-05
19070.0 8.749e-05
19090.0 8.7232e-05
19110.0 8.698e-05
19130.0 8.6726e-05
19150.0 8.6473e-05
19170.0 8.6226e-05
19190.0 8.598e-05
19210.0 8.5733e-05
19230.0 8.549e-05
19250.0 8.5253e-05
19270.0 8.5014e-05
19290.0 8.4776e-05
19310.0 8.4544e-05
19330.0 8.4313e-05
19350.0 8.4079e-05
19370.0 8.3851e-05
19390.0 8.3626e-05
19410.0 8.34e-05
19430.0 8.3176e-05
19450.0 8.2957e-05
19470.0 8.2739e-05
19490.0 8.252e-05
19510.0 8.2305e-05
19530.0 8.2093e-05
19550.0 8.1879e-05
19570.0 8.1666e-05
19590.0 8.146e-05
19610.0 8.1254e-05
19630.0 8.1047e-05
19650.0 8.0844e-05
19670.0 8.0645e-05
19690.0 8.0443e-05
19710.0 8.0243e-05
19730.0 8.0048e-05
19750.0 7.9853e-05
19770.0 7.9655e-05
19790.0 7.9464e-05
19810.0 7.9275e-05
19830.0 7.9082e-05
19850.0 7.8888e-05
19870.0 7.8693e-05
19890.0 7.8481e-05
19910.0 7.8241e-05
19930.0 7.7963e-05
19950.0 7.7622e-05
19970.0 7.7179e-05
19990.0 7.6615e-05
20010.0 7.5946e-05
20030.0 7.5122e-05
20050.0 7.4148e-05
20070.0 7.3088e-05
20090.0 7.1951e-05
20110.0 7.068e-05
20130.0 6.9407e-05
20150.0 6.8157e-05
20170.0 6.6877e-05
20190.0 6.5591e-05
20210.0 6.4381e-05
20230.0 6.3203e-05
20250.0 6.2022e-05
20270.0 6.0917e-05
20290.0 5.9895e-05
20310.0 5.8907e-05
20330.0 5.796e-05
20350.0 5.7145e-05
20370.0 5.6392e-05
20390.0 5.5696e-05
20410.0 5.5094e-05
20430.0 5.4585e-05
20450.0 5.4131e-05
20470.0 5.376e-05
20490.0 5.3476e-05
20510.0 5.3262e-05
20530.0 5.3114e-05
20550.0 5.3035e-05
20570.0 5.3014e-05
20590.0 5.3046e-05
20610.0 5.3126e-05
20630.0 5.324e-05
20650.0 5.3388e-05
20670.0 5.3572e-05
20690.0 5.3764e-05
20710.0 5.3962e-05
20730.0 5.417e-05
20750.0 5.4375e-05
20770.0 5.4558e-05
20790.0 5.473e-05
20810.0 5.4885e-05
20830.0 5.5007e-05
20850.0 5.5098e-05
20870.0 5.5158e-05
20890.0 5.518e-05
20910.0 5.516e-05
20930.0 5.5103e-05
20950.0 5.5003e-05
20970.0 5.4866e-05
20990.0 5.4695e-05
21010.0 5.4479e-05
21030.0 5.4231e-05
21050.0 5.396e-05
21070.0 5.3658e-05
21090.0 5.3322e-05
21110.0 5.2983e-05
21130.0 5.2634e-05
21150.0 5.2264e-05
21170.0 5.1894e-05
21190.0 5.1537e-05
21210.0 5.1174e-05
21230.0 5.0814e-05
21250.0 5.0484e-05
21270.0 5.0173e-05
21290.0 4.9875e-05
21310.0 4.9607e-05
21330.0 4.9377e-05
21350.0 4.9169e-05
21370.0 4.8992e-05
21390.0 4.8854e-05
21410.0 4.8749e-05
21430.0 4.8675e-05
21450.0 4.8639e-05
21470.0 4.8636e-05
21490.0 4.8666e-05
21510.0 4.873e-05
21530.0 4.8821e-05
21550.0 4.8941e-05
21570.0 4.9095e-05
21590.0 4.9273e-05
21610.0 4.9469e-05
21630.0 4.9696e-05
21650.0 4.9953e-05
21670.0 5.0211e-05
21690.0 5.049e-05
21710.0 5.0795e-05
21730.0 5.1106e-05
21750.0 5.1417e-05
21770.0 5.1757e-05
21790.0 5.2102e-05
21810.0 5.2438e-05
21830.0 5.2779e-05
21850.0 5.3131e-05
21870.0 5.3469e-05
21890.0 5.3789e-05
21910.0 5.4115e-05
21930.0 5.4428e-05
21950.0 5.4715e-05
21970.0 5.4991e-05
21990.0 5.5259e-05
22010.0 5.549e-05
22030.0 5.5694e-05
22050.0 5.5877e-05
22070.0 5.6029e-05
22090.0 5.6143e-05
22110.0 5.6225e-05
22130.0 5.6272e-05
22150.0 5.6279e-05
22170.0 5.6247e-05
22190.0 5.6171e-05
22210.0 5.6051e-05
22230.0 5.5894e-05
22250.0 5.5693e-05
22270.0 5.5443e-05
22290.0 5.516e-05
22310.0 5.4842e-05
22330.0 5.4467e-05
22350.0 5.406e-05
22370.0 5.363e-05
22390.0 5.3158e-05
22410.0 5.2638e-05
22430.0 5.2116e-05
22450.0 5.1573e-05
22470.0 5.0988e-05
22490.0 5.0392e-05
22510.0 4.9804e-05
22530.0 4.9179e-05
22550.0 4.8536e-05
22570.0 4.7918e-05
22590.0 4.7301e-05
22610.0 4.6667e-05
22630.0 4.605e-05
22650.0 4.547e-05
22670.0 4.4882e-05
22690.0 4.4306e-05
22710.0 4.3769e-05
22730.0 4.3254e-05
22750.0 4.2733e-05
22770.0 4.2257e-05
22790.0 4.1818e-05
22810.0 4.139e-05
