#lamb flux
1010.0 2.3457e-08
1030.0 2.5944e-08
1050.0 2.8804e-08
1070.0 3.2024e-08
1090.0 3.5681e-08
1110.0 3.9432e-08
1130.0 4.3207e-08
1150.0 4.7161e-08
1170.0 5.1241e-08
1190.0 5.5109e-08
1210.0 5.9029e-08
1230.0 6.308e-08
1250.0 6.7049e-08
1270.0 7.0903e-08
1290.0 7.4976e-08
1310.0 7.9046e-08
1330.0 8.2949e-08
1350.0 8.6896e-08
1370.0 9.0971e-08
1390.0 9.4945e-08
1410.0 9.88e-08
1430.0 1.0283e-07
1450.0 1.0686e-07
1470.0 1.1076e-07
1490.0 1.1469e-07
1510.0 1.1885e-07
1530.0 1.228e-07
1550.0 1.2668e-07
1570.0 1.3071e-07
1590.0 1.3474e-07
1610.0 1.3859e-07
1630.0 1.4256e-07
1650.0 1.4664e-07
1670.0 1.5058e-07
1690.0 1.5448e-07
1710.0 1.5853e-07
1730.0 1.6261e-07
1750.0 1.6645e-07
1770.0 1.704e-07
1790.0 1.7444e-07
1810.0 1.7836e-07
1830.0 1.8221e-07
1850.0 1.863e-07
1870.0 1.903e-07
1890.0 1.9417e-07
1910.0 1.9812e-07
1930.0 2.0217e-07
1950.0 2.0606e-07
1970.0 2.099e-07
1990.0 2.1389e-07
2010.0 2.1783e-07
2030.0 2.2164e-07
2050.0 2.2557e-07
2070.0 2.2961e-07
2090.0 2.3343e-07
2110.0 2.3725e-07
2130.0 2.4119e-07
2150.0 2.4506e-07
2170.0 2.4877e-07
2190.0 2.5263e-07
2210.0 2.5652e-07
2230.0 2.6026e-07
2250.0 2.6399e-07
2270.0 2.6789e-07
2290.0 2.7167e-07
2310.0 2.7531e-07
2330.0 2.791e-07
2350.0 2.8298e-07
2370.0 2.8685e-07
2390.0 2.9105e-07
2410.0 2.9601e-07
2430.0 3.0173e-07
2450.0 3.0855e-07
2470.0 3.173e-07
2490.0 3.2833e-07
2510.0 3.4086e-07
2530.0 3.5595e-07
2550.0 3.7483e-07
2570.0 3.9833e-07
2590.0 4.2889e-07
2610.0 4.7464e-07
2630.0 5.3997e-07
2650.0 6.2539e-07
2670.0 7.3582e-07
2690.0 8.7154e-07
2710.0 1.0164e-06
2730.0 1.1595e-06
2750.0 1.3005e-06
2770.0 1.4232e-06
2790.0 1.5206e-06
2810.0 1.5979e-06
2830.0 1.6582e-06
2850.0 1.6994e-06
2870.0 1.7297e-06
2890.0 1.7537e-06
2910.0 1.7728e-06
2930.0 1.7884e-06
2950.0 1.8033e-06
2970.0 1.8179e-06
2990.0 1.8316e-06
3010.0 5.177e-05
3030.0 5.2157e-05
3050.0 5.2531e-05
3070.0 5.2851e-05
3090.0 5.3127e-05
3110.0 5.3298e-05
3130.0 5.3291e-05
3150.0 5.3054e-05
3170.0 5.2486e-05
3190.0 5.1593e-05
3210.0 5.0462e-05
3230.0 4.9166e-05
3250.0 4.7888e-05
3270.0 4.6954e-05
3290.0 4.6435e-05
3310.0 4.6519e-05
3330.0 4.7192e-05
3350.0 4.8365e-05
3370.0 5.0039e-05
3390.0 5.2148e-05
3410.0 5.4444e-05
3430.0 5.7022e-05
3450.0 5.9989e-05
3470.0 6.323e-05
3490.0 6.6664e-05
3510.0 7.0546e-05
3530.0 7.4702e-05
3550.0 7.891e-05
3570.0 8.33e-05
3590.0 8.8075e-05
3610.0 9.2994e-05
3630.0 9.7899e-05
3650.0 0.00010299
3670.0 0.00010763
3690.0 0.0001111
3710.0 0.0001131
3730.0 0.00011316
3750.0 0.00011159
3770.0 0.00011097
3790.0 0.00011031
3810.0 0.0001076
3830.0 0.00011093
3850.0 0.00012403
3870.0 0.00013122
3890.0 0.00013062
3910.0 0.00013118
3930.0 0.00013463
3950.0 0.00013676
3970.0 0.0001246
3990.0 0.00010721
4010.0 0.00032133
4030.0 0.00038934
4050.0 0.00044635
4070.0 0.00038729
4090.0 0.00035076
4110.0 0.00030952
4130.0 0.00028488
4150.0 0.00030302
4170.0 0.00029849
4190.0 0.00031817
4210.0 0.00031526
4230.0 0.00033346
4250.0 0.00039449
4270.0 0.00039913
4290.0 0.00036779
4310.0 0.00038216
4330.0 0.00040651
4350.0 0.00045579
4370.0 0.0005187
4390.0 0.00048675
4410.0 0.00035962
4430.0 0.00030444
4450.0 0.00027975
4470.0 0.00021472
4490.0 0.00023171
4510.0 0.00035
4530.0 0.00040365
4550.0 0.00040715
4570.0 0.00045815
4590.0 0.00052188
4610.0 0.00070389
4630.0 0.0009142
4650.0 0.00099144
4670.0 0.00091817
4690.0 0.00087609
4710.0 0.00092609
4730.0 0.00087397
4750.0 0.00065341
4770.0 0.0004793
4790.0 0.00044757
4810.0 0.0004266
4830.0 0.00039055
4850.0 0.00042856
4870.0 0.00056618
4890.0 0.00066768
4910.0 0.00058581
4930.0 0.00051835
4950.0 0.00056949
4970.0 0.00073033
4990.0 0.00098978
5010.0 0.0011386
5030.0 0.001004
5050.0 0.00067926
5070.0 0.00044766
5090.0 0.00036097
5110.0 0.00037123
5130.0 0.00042845
5150.0 0.0004642
5170.0 0.00045723
5190.0 0.00042725
5210.0 0.00044657
5230.0 0.00046945
5250.0 0.00050593
5270.0 0.00054586
5290.0 0.00060492
5310.0 0.00070411
5330.0 0.00077918
5350.0 0.0007742
5370.0 0.00081322
5390.0 0.00093318
5410.0 0.00093234
5430.0 0.00082451
5450.0 0.00075753
5470.0 0.00080436
5490.0 0.0009827
5510.0 0.0012287
5530.0 0.0014093
5550.0 0.0013621
5570.0 0.0012382
5590.0 0.0010766
5610.0 0.00099288
5630.0 0.00096278
5650.0 0.00091695
5670.0 0.00086888
5690.0 0.00077677
5710.0 0.00075736
5730.0 0.00069764
5750.0 0.00049187
5770.0 0.00038374
5790.0 0.00043486
5810.0 0.00049103
5830.0 0.00060255
5850.0 0.00071727
5870.0 0.00079581
5890.0 0.00080929
5910.0 0.00079397
5930.0 0.00075576
5950.0 0.0007701
5970.0 0.00087783
5990.0 0.00082538
6010.0 0.00069192
6030.0 0.00058457
6050.0 0.00050908
6070.0 0.0005063
6090.0 0.000549
6110.0 0.00061387
6130.0 0.00062327
6150.0 0.00053627
6170.0 0.00047175
6190.0 0.00053089
6210.0 0.00070183
6230.0 0.000921
6250.0 0.00099757
6270.0 0.00087174
6290.0 0.00073344
6310.0 0.00057258
6330.0 0.00043871
6350.0 0.00039131
6370.0 0.00041151
6390.0 0.00047573
6410.0 0.00058659
6430.0 0.00068498
6450.0 0.00078379
6470.0 0.00089746
6490.0 0.0010841
6510.0 0.0012121
6530.0 0.0011892
6550.0 0.0010753
6570.0 0.00091286
6590.0 0.00082315
6610.0 0.00070977
6630.0 0.00064302
6650.0 0.00060784
6670.0 0.0005905
6690.0 0.00053355
6710.0 0.00048501
6730.0 0.00034934
6750.0 0.00034634
6770.0 0.00037645
6790.0 0.0004327
6810.0 0.00039592
6830.0 0.00040769
6850.0 0.00038132
6870.0 0.00034834
6890.0 0.00033446
6910.0 0.00035641
6930.0 0.00033383
6950.0 0.00034345
6970.0 0.00036125
6990.0 0.00041005
7010.0 0.00041354
7030.0 0.00042011
7050.0 0.00040064
7070.0 0.00038174
7090.0 0.00038286
7110.0 0.00039393
7130.0 0.00042393
7150.0 0.00045025
7170.0 0.00049682
7190.0 0.00054614
7210.0 0.00053666
7230.0 0.00055169
7250.0 0.00059288
7270.0 0.0006461
7290.0 0.00076685
7310.0 0.00083211
7330.0 0.0008043
7350.0 0.00072744
7370.0 0.00063294
7390.0 0.00061403
7410.0 0.00065252
7430.0 0.0007252
7450.0 0.00078988
7470.0 0.00078262
7490.0 0.0007136
7510.0 0.00080833
7530.0 0.00079949
7550.0 0.0007186
7570.0 0.00056136
7590.0 0.00038592
7610.0 0.00033123
7630.0 0.00037635
7650.0 0.00044498
7670.0 0.00055381
7690.0 0.00060943
7710.0 0.0006351
7730.0 0.00066742
7750.0 0.00074925
7770.0 0.00076104
7790.0 0.00069905
7810.0 0.00063785
7830.0 0.00065777
7850.0 0.00063941
7870.0 0.00058624
7890.0 0.00049255
7910.0 0.00040038
7930.0 0.0003823
7950.0 0.00034829
7970.0 0.00032241
7990.0 0.00032057
8010.0 2.3753e-05
8030.0 2.3443e-05
8050.0 2.3128e-05
8070.0 2.3433e-05
8090.0 2.5181e-05
8110.0 2.4752e-05
8130.0 2.0412e-05
8150.0 1.988e-05
8170.0 1.712e-05
8190.0 1.6222e-05
8210.0 2.1073e-05
8230.0 2.3464e-05
8250.0 2.1141e-05
8270.0 1.8399e-05
8290.0 1.7941e-05
8310.0 1.3809e-05
8330.0 9.3072e-06
8350.0 6.6056e-06
8370.0 4.1595e-06
8390.0 7.6075e-06
8410.0 8.8647e-06
8430.0 1.0927e-05
8450.0 1.2831e-05
8470.0 1.5952e-05
8490.0 1.5837e-05
8510.0 1.5577e-05
8530.0 1.6253e-05
8550.0 2.1936e-05
8570.0 2.5974e-05
8590.0 2.8019e-05
8610.0 3.5397e-05
8630.0 4.2639e-05
8650.0 4.4595e-05
8670.0 4.7396e-05
8690.0 4.767e-05
8710.0 4.3171e-05
8730.0 4.0159e-05
8750.0 3.5445e-05
8770.0 3.3631e-05
8790.0 3.3043e-05
8810.0 3.1665e-05
8830.0 2.5316e-05
8850.0 1.853e-05
8870.0 1.4187e-05
8890.0 1.3876e-05
8910.0 1.5905e-05
8930.0 1.8094e-05
8950.0 1.8441e-05
8970.0 1.8528e-05
8990.0 1.6522e-05
9010.0 0.00017302
9030.0 0.00015677
9050.0 0.00015753
9070.0 0.00015877
9090.0 0.00015986
9110.0 0.00016121
9130.0 0.00016225
9150.0 0.00016306
9170.0 0.00016392
9190.0 0.00016484
9210.0 0.00016581
9230.0 0.00016683
9250.0 0.00016787
9270.0 0.00016894
9290.0 0.00017005
9310.0 0.00017117
9330.0 0.00017231
9350.0 0.00017349
9370.0 0.00017469
9390.0 0.00017589
9410.0 0.00017713
9430.0 0.00017841
9450.0 0.00017969
9470.0 0.00018099
9490.0 0.00018233
9510.0 0.00018368
9530.0 0.00018504
9550.0 0.00018645
9570.0 0.00018789
9590.0 0.00018932
9610.0 0.00019078
9630.0 0.00019228
9650.0 0.0001938
9670.0 0.00019531
9690.0 0.00019687
9710.0 0.00019845
9730.0 0.00020004
9750.0 0.00020164
9770.0 0.0002033
9790.0 0.00020495
9810.0 0.00020662
9830.0 0.00020831
9850.0 0.00021003
9870.0 0.00021174
9890.0 0.00021348
9910.0 0.00021525
9930.0 0.00021703
9950.0 0.00021881
9970.0 0.00022062
9990.0 0.00022246
10010.0 0.00019303
10030.0 0.00019462
10050.0 0.00019624
10070.0 0.00019791
10090.0 0.00019949
10110.0 0.0002011
10130.0 0.00020272
10150.0 0.00020434
10170.0 0.00020598
10190.0 0.00020764
10210.0 0.00020929
10230.0 0.00021093
10250.0 0.00021259
10270.0 0.00021426
10290.0 0.0002159
10310.0 0.00021757
10330.0 0.00021925
10350.0 0.00022091
10370.0 0.00022255
10390.0 0.00022422
10410.0 0.00022588
10430.0 0.00022751
10450.0 0.00022915
10470.0 0.0002308
10490.0 0.00023242
10510.0 0.00023402
10530.0 0.00023566
10550.0 0.00023727
10570.0 0.00023884
10590.0 0.00024042
10610.0 0.00024201
10630.0 0.00024355
10650.0 0.00024508
10670.0 0.00024662
10690.0 0.00024814
10710.0 0.00024962
10730.0 0.00025111
10750.0 0.00025259
10770.0 0.00025402
10790.0 0.00025544
10810.0 0.00025685
10830.0 0.00025822
10850.0 0.00025952
10870.0 0.00026078
10890.0 0.00026189
10910.0 0.00026275
10930.0 0.00026323
10950.0 0.00026312
10970.0 0.00026223
10990.0 0.00026048
11010.0 0.00025754
11030.0 0.00025344
11050.0 0.00024845
11070.0 0.00024248
11090.0 0.0002353
11110.0 0.00022788
11130.0 0.00022014
11150.0 0.00021181
11170.0 0.00020322
11190.0 0.00019488
11210.0 0.00018628
11230.0 0.00017745
11250.0 0.00016902
11270.0 0.00016092
11290.0 0.00015281
11310.0 0.00014513
11330.0 0.00013836
11350.0 0.00013196
11370.0 0.00012606
11390.0 0.00012094
11410.0 0.00011647
11430.0 0.00011232
11450.0 0.00010874
11470.0 0.00010564
11490.0 0.00010276
11510.0 9.9986e-05
11530.0 9.741e-05
11550.0 9.4852e-05
11570.0 9.2122e-05
11590.0 8.9295e-05
11610.0 8.6418e-05
11630.0 8.3286e-05
11650.0 7.9934e-05
11670.0 7.6629e-05
11690.0 7.3278e-05
11710.0 6.9822e-05
11730.0 6.6472e-05
11750.0 6.3372e-05
11770.0 6.0332e-05
11790.0 5.7483e-05
11810.0 5.4975e-05
11830.0 5.2732e-05
11850.0 5.0666e-05
11870.0 4.8937e-05
11890.0 4.7501e-05
11910.0 4.6238e-05
11930.0 4.5153e-05
11950.0 4.425e-05
11970.0 4.3442e-05
11990.0 4.2679e-05
12010.0 4.1973e-05
12030.0 4.1293e-05
12050.0 4.059e-05
12070.0 3.9858e-05
12090.0 3.9153e-05
12110.0 3.8437e-05
12130.0 3.772e-05
12150.0 3.7058e-05
12170.0 3.6481e-05
12190.0 3.5982e-05
12210.0 3.5633e-05
12230.0 3.5465e-05
12250.0 3.5492e-05
12270.0 3.576e-05
12290.0 3.6265e-05
12310.0 3.6991e-05
12330.0 3.8006e-05
12350.0 3.9274e-05
12370.0 4.0716e-05
12390.0 4.238e-05
12410.0 4.4329e-05
12430.0 4.631e-05
12450.0 4.8361e-05
12470.0 5.0543e-05
12490.0 5.2733e-05
12510.0 5.4789e-05
12530.0 5.6833e-05
12550.0 5.8806e-05
12570.0 6.0547e-05
12590.0 6.2076e-05
12610.0 6.3438e-05
12630.0 6.4524e-05
12650.0 6.5273e-05
12670.0 6.5766e-05
12690.0 6.5963e-05
12710.0 6.5855e-05
12730.0 6.5473e-05
12750.0 6.4792e-05
12770.0 6.3857e-05
12790.0 6.2724e-05
12810.0 6.137e-05
12830.0 5.9804e-05
12850.0 5.8167e-05
12870.0 5.6435e-05
12890.0 5.4562e-05
12910.0 5.2657e-05
12930.0 5.078e-05
12950.0 4.8822e-05
12970.0 4.6828e-05
12990.0 4.4941e-05
13010.0 4.3079e-05
13030.0 4.1195e-05
13050.0 3.9386e-05
13070.0 3.7691e-05
13090.0 3.599e-05
13110.0 3.4345e-05
13130.0 3.2828e-05
13150.0 3.1391e-05
13170.0 2.9985e-05
13190.0 2.8733e-05
13210.0 2.7632e-05
13230.0 2.6625e-05
13250.0 2.5757e-05
13270.0 2.5073e-05
13290.0 2.4541e-05
13310.0 2.4175e-05
13330.0 2.4008e-05
13350.0 2.4027e-05
13370.0 2.4243e-05
13390.0 2.4666e-05
13410.0 2.5238e-05
13430.0 2.5982e-05
13450.0 2.6901e-05
13470.0 2.7921e-05
13490.0 2.9001e-05
13510.0 3.0219e-05
13530.0 3.1454e-05
13550.0 3.2636e-05
13570.0 3.3802e-05
13590.0 3.4937e-05
13610.0 3.5948e-05
13630.0 3.683e-05
13650.0 3.7636e-05
13670.0 3.8304e-05
13690.0 3.8821e-05
13710.0 3.9221e-05
13730.0 3.9507e-05
13750.0 3.9649e-05
13770.0 3.9682e-05
13790.0 3.961e-05
13810.0 3.9435e-05
13830.0 3.9177e-05
13850.0 3.8826e-05
13870.0 3.8385e-05
13890.0 3.788e-05
13910.0 3.7311e-05
13930.0 3.6653e-05
13950.0 3.5934e-05
13970.0 3.5198e-05
13990.0 3.4398e-05
14010.0 3.3546e-05
14030.0 3.2697e-05
14050.0 3.1841e-05
14070.0 3.0937e-05
14090.0 3.0072e-05
14110.0 2.9258e-05
14130.0 2.8469e-05
14150.0 2.7727e-05
14170.0 2.7093e-05
14190.0 2.6545e-05
14210.0 2.6081e-05
14230.0 2.5736e-05
14250.0 2.5514e-05
14270.0 2.5406e-05
14290.0 2.5429e-05
14310.0 2.5571e-05
14330.0 2.5825e-05
14350.0 2.62e-05
14370.0 2.6667e-05
14390.0 2.7197e-05
14410.0 2.7821e-05
14430.0 2.8506e-05
14450.0 2.9206e-05
14470.0 2.9932e-05
14490.0 3.0705e-05
14510.0 3.1443e-05
14530.0 3.2145e-05
14550.0 3.2846e-05
14570.0 3.3519e-05
14590.0 3.4132e-05
14610.0 3.4724e-05
14630.0 3.5311e-05
14650.0 3.5857e-05
14670.0 3.6385e-05
14690.0 3.6935e-05
14710.0 3.7513e-05
14730.0 3.8091e-05
14750.0 3.8732e-05
14770.0 3.9459e-05
14790.0 4.0246e-05
14810.0 4.11e-05
14830.0 4.2111e-05
14850.0 4.3211e-05
14870.0 4.4357e-05
14890.0 4.5595e-05
14910.0 4.6909e-05
14930.0 4.8173e-05
14950.0 4.9353e-05
14970.0 5.0471e-05
14990.0 5.1409e-05
15010.0 5.2125e-05
15030.0 5.2656e-05
15050.0 5.3007e-05
15070.0 5.3179e-05
15090.0 5.3239e-05
15110.0 5.3222e-05
15130.0 5.3154e-05
15150.0 5.3065e-05
15170.0 5.2958e-05
15190.0 5.2844e-05
15210.0 5.2732e-05
15230.0 5.262e-05
15250.0 5.2504e-05
15270.0 5.2389e-05
15290.0 5.228e-05
15310.0 5.2168e-05
15330.0 5.2055e-05
15350.0 5.1947e-05
15370.0 5.1839e-05
15390.0 5.1726e-05
15410.0 5.1617e-05
15430.0 5.1511e-05
15450.0 5.1403e-05
15470.0 5.1292e-05
15490.0 5.1188e-05
15510.0 5.1084e-05
15530.0 5.0976e-05
15550.0 5.087e-05
15570.0 5.0768e-05
15590.0 5.0662e-05
15610.0 5.0554e-05
15630.0 5.0453e-05
15650.0 5.035e-05
15670.0 5.0245e-05
15690.0 5.0142e-05
15710.0 5.0043e-05
15730.0 4.9939e-05
15750.0 4.9836e-05
15770.0 4.9736e-05
15790.0 4.9636e-05
15810.0 4.953e-05
15830.0 4.943e-05
15850.0 4.9332e-05
15870.0 4.923e-05
15890.0 4.9129e-05
15910.0 4.9032e-05
15930.0 4.8932e-05
15950.0 4.8829e-05
15970.0 4.873e-05
15990.0 4.8633e-05
16010.0 4.8531e-05
16030.0 4.8429e-05
16050.0 4.8334e-05
16070.0 4.8235e-05
16090.0 4.8134e-05
16110.0 4.8036e-05
16130.0 4.794e-05
16150.0 4.7837e-05
16170.0 4.7737e-05
16190.0 4.7641e-05
16210.0 4.7542e-05
16230.0 4.744e-05
16250.0 4.7343e-05
16270.0 4.7247e-05
16290.0 4.7145e-05
16310.0 4.7046e-05
16330.0 4.6949e-05
16350.0 4.685e-05
16370.0 4.6746e-05
16390.0 4.6649e-05
16410.0 4.6551e-05
16430.0 4.645e-05
16450.0 4.635e-05
16470.0 4.6254e-05
16490.0 4.6153e-05
16510.0 4.605e-05
16530.0 4.5951e-05
16550.0 4.5853e-05
16570.0 4.5749e-05
16590.0 4.5647e-05
16610.0 4.555e-05
16630.0 4.5449e-05
16650.0 4.5346e-05
16670.0 4.5247e-05
16690.0 4.5148e-05
16710.0 4.5042e-05
16730.0 4.4939e-05
16750.0 4.484e-05
16770.0 4.4737e-05
16790.0 4.4631e-05
16810.0 4.4531e-05
16830.0 4.443e-05
16850.0 4.4325e-05
16870.0 4.4221e-05
16890.0 4.4121e-05
16910.0 4.4015e-05
16930.0 4.3907e-05
16950.0 4.3805e-05
16970.0 4.3702e-05
16990.0 4.3594e-05
17010.0 4.349e-05
17030.0 4.3388e-05
17050.0 4.328e-05
17070.0 4.3173e-05
17090.0 4.3069e-05
17110.0 4.2963e-05
17130.0 4.2852e-05
17150.0 4.2745e-05
17170.0 4.2641e-05
17190.0 4.2532e-05
17210.0 4.2423e-05
17230.0 4.2318e-05
17250.0 4.221e-05
17270.0 4.2098e-05
17290.0 4.199e-05
17310.0 4.1883e-05
17330.0 4.1771e-05
17350.0 4.1659e-05
17370.0 4.1552e-05
17390.0 4.1443e-05
17410.0 4.133e-05
17430.0 4.122e-05
17450.0 4.1112e-05
17470.0 4.0996e-05
17490.0 4.0883e-05
17510.0 4.0774e-05
17530.0 4.0662e-05
17550.0 4.0546e-05
17570.0 4.0435e-05
17590.0 4.0325e-05
17610.0 4.0209e-05
17630.0 4.0095e-05
17650.0 3.9984e-05
17670.0 3.987e-05
17690.0 3.975e-05
17710.0 3.9638e-05
17730.0 3.9525e-05
17750.0 3.9408e-05
17770.0 3.9292e-05
17790.0 3.918e-05
17810.0 3.9063e-05
17830.0 3.8944e-05
17850.0 3.883e-05
17870.0 3.8715e-05
17890.0 3.8595e-05
17910.0 3.8476e-05
17930.0 3.8363e-05
17950.0 3.8245e-05
17970.0 3.8125e-05
17990.0 3.801e-05
18010.0 3.7894e-05
18030.0 3.7771e-05
18050.0 3.7652e-05
18070.0 3.7536e-05
18090.0 3.7416e-05
18110.0 3.7294e-05
18130.0 3.7178e-05
18150.0 3.706e-05
18170.0 3.6938e-05
18190.0 3.6818e-05
18210.0 3.6701e-05
18230.0 3.6579e-05
18250.0 3.6455e-05
18270.0 3.6337e-05
18290.0 3.6218e-05
18310.0 3.6094e-05
18330.0 3.5974e-05
18350.0 3.5857e-05
18370.0 3.5733e-05
18390.0 3.561e-05
18410.0 3.5491e-05
18430.0 3.537e-05
18450.0 3.5243e-05
18470.0 3.5122e-05
18490.0 3.5003e-05
18510.0 3.488e-05
18530.0 3.4756e-05
18550.0 3.4637e-05
18570.0 3.4515e-05
18590.0 3.4388e-05
18610.0 3.4267e-05
18630.0 3.4146e-05
18650.0 3.4021e-05
18670.0 3.3896e-05
18690.0 3.3777e-05
18710.0 3.3654e-05
18730.0 3.3528e-05
18750.0 3.3406e-05
18770.0 3.3286e-05
18790.0 3.3158e-05
18810.0 3.3034e-05
18830.0 3.2913e-05
18850.0 3.2789e-05
18870.0 3.2663e-05
18890.0 3.2541e-05
18910.0 3.242e-05
18930.0 3.2294e-05
18950.0 3.2169e-05
18970.0 3.2048e-05
18990.0 3.1924e-05
19010.0 3.1795e-05
19030.0 3.1674e-05
19050.0 3.1552e-05
19070.0 3.1426e-05
19090.0 3.1302e-05
19110.0 3.1182e-05
19130.0 3.1056e-05
19150.0 3.0929e-05
19170.0 3.0807e-05
19190.0 3.0684e-05
19210.0 3.0557e-05
19230.0 3.0432e-05
19250.0 3.0312e-05
19270.0 3.0187e-05
19290.0 3.0062e-05
19310.0 2.994e-05
19330.0 2.9818e-05
19350.0 2.9689e-05
19370.0 2.9566e-05
19390.0 2.9444e-05
19410.0 2.9319e-05
19430.0 2.9193e-05
19450.0 2.9073e-05
19470.0 2.895e-05
19490.0 2.8824e-05
19510.0 2.8701e-05
19530.0 2.858e-05
19550.0 2.8454e-05
19570.0 2.8327e-05
19590.0 2.8207e-05
19610.0 2.8084e-05
19630.0 2.7959e-05
19650.0 2.7836e-05
19670.0 2.7716e-05
19690.0 2.7591e-05
19710.0 2.7466e-05
19730.0 2.7345e-05
19750.0 2.7223e-05
19770.0 2.7095e-05
19790.0 2.6974e-05
19810.0 2.6853e-05
19830.0 2.6728e-05
19850.0 2.6603e-05
19870.0 2.648e-05
19890.0 2.6348e-05
19910.0 2.6202e-05
19930.0 2.6047e-05
19950.0 2.5869e-05
19970.0 2.565e-05
19990.0 2.5387e-05
20010.0 2.2586e-05
20030.0 2.2259e-05
20050.0 2.1877e-05
20070.0 2.1462e-05
20090.0 2.1016e-05
20110.0 2.0512e-05
20130.0 2.0001e-05
20150.0 1.9495e-05
20170.0 1.897e-05
20190.0 1.8438e-05
20210.0 1.7936e-05
20230.0 1.7445e-05
20250.0 1.6954e-05
20270.0 1.6498e-05
20290.0 1.6082e-05
20310.0 1.5686e-05
20330.0 1.5317e-05
20350.0 1.501e-05
20370.0 1.4737e-05
20390.0 1.4498e-05
20410.0 1.4305e-05
20430.0 1.4157e-05
20450.0 1.4039e-05
20470.0 1.396e-05
20490.0 1.3918e-05
20510.0 1.3905e-05
20530.0 1.3922e-05
20550.0 1.3965e-05
20570.0 1.4028e-05
20590.0 1.4113e-05
20610.0 1.4215e-05
20630.0 1.4328e-05
20650.0 1.4454e-05
20670.0 1.4599e-05
20690.0 1.4746e-05
20710.0 1.4898e-05
20730.0 1.5062e-05
20750.0 1.5234e-05
20770.0 1.5402e-05
20790.0 1.5579e-05
20810.0 1.5767e-05
20830.0 1.5953e-05
20850.0 1.614e-05
20870.0 1.6341e-05
20890.0 1.6545e-05
20910.0 1.6742e-05
20930.0 1.6947e-05
20950.0 1.7158e-05
20970.0 1.7365e-05
20990.0 1.7569e-05
21010.0 1.7783e-05
21030.0 1.7993e-05
21050.0 1.8193e-05
21070.0 1.8392e-05
21090.0 1.8593e-05
21110.0 1.8775e-05
21130.0 1.8947e-05
21150.0 1.9113e-05
21170.0 1.9264e-05
21190.0 1.9393e-05
21210.0 1.951e-05
21230.0 1.9607e-05
21250.0 1.9676e-05
21270.0 1.9719e-05
21290.0 1.9736e-05
21310.0 1.972e-05
21330.0 1.9674e-05
21350.0 1.9592e-05
21370.0 1.9472e-05
21390.0 1.932e-05
21410.0 1.9133e-05
21430.0 1.8896e-05
21450.0 1.8631e-05
21470.0 1.8342e-05
21490.0 1.8015e-05
21510.0 1.7656e-05
21530.0 1.7292e-05
21550.0 1.691e-05
21570.0 1.6503e-05
21590.0 1.6103e-05
21610.0 1.5716e-05
21630.0 1.5329e-05
21650.0 1.495e-05
21670.0 1.4622e-05
21690.0 1.432e-05
21710.0 1.4047e-05
21730.0 1.3824e-05
21750.0 1.3652e-05
21770.0 1.3521e-05
21790.0 1.3446e-05
21810.0 1.3425e-05
21830.0 1.3454e-05
21850.0 1.3538e-05
21870.0 1.367e-05
21890.0 1.3839e-05
21910.0 1.4056e-05
21930.0 1.4311e-05
21950.0 1.4587e-05
21970.0 1.4893e-05
21990.0 1.5237e-05
22010.0 1.558e-05
22030.0 1.5928e-05
22050.0 1.6294e-05
22070.0 1.6662e-05
22090.0 1.7011e-05
22110.0 1.7362e-05
22130.0 1.7713e-05
22150.0 1.804e-05
22170.0 1.8349e-05
22190.0 1.8655e-05
22210.0 1.894e-05
22230.0 1.919e-05
22250.0 1.9426e-05
22270.0 1.9643e-05
22290.0 1.9829e-05
22310.0 1.9989e-05
22330.0 2.0129e-05
22350.0 2.0237e-05
22370.0 2.0314e-05
22390.0 2.0362e-05
22410.0 2.0377e-05
22430.0 2.0358e-05
22450.0 2.0305e-05
22470.0 2.0215e-05
22490.0 2.0087e-05
22510.0 1.9929e-05
22530.0 1.9726e-05
22550.0 1.9479e-05
22570.0 1.9205e-05
22590.0 1.8896e-05
22610.0 1.8541e-05
22630.0 1.8156e-05
