#lamb flux
1010.0 1.0139e-07
1030.0 1.1159e-07
1050.0 1.2333e-07
1070.0 1.3654e-07
1090.0 1.5155e-07
1110.0 1.6695e-07
1130.0 1.8244e-07
1150.0 1.9867e-07
1170.0 2.1541e-07
1190.0 2.3128e-07
1210.0 2.4737e-07
1230.0 2.6399e-07
1250.0 2.8028e-07
1270.0 2.9609e-07
1290.0 3.128e-07
1310.0 3.295e-07
1330.0 3.4551e-07
1350.0 3.617e-07
1370.0 3.7842e-07
1390.0 3.9471e-07
1410.0 4.1052e-07
1430.0 4.2705e-07
1450.0 4.4357e-07
1470.0 4.5953e-07
1490.0 4.7567e-07
1510.0 4.9271e-07
1530.0 5.0885e-07
1550.0 5.2477e-07
1570.0 5.4123e-07
1590.0 5.5771e-07
1610.0 5.7345e-07
1630.0 5.8966e-07
1650.0 6.063e-07
1670.0 6.2238e-07
1690.0 6.3824e-07
1710.0 6.5471e-07
1730.0 6.7125e-07
1750.0 6.8678e-07
1770.0 7.0276e-07
1790.0 7.1903e-07
1810.0 7.3474e-07
1830.0 7.5014e-07
1850.0 7.6647e-07
1870.0 7.8231e-07
1890.0 7.9755e-07
1910.0 8.1305e-07
1930.0 8.2885e-07
1950.0 8.4382e-07
1970.0 8.5851e-07
1990.0 8.7367e-07
2010.0 8.8844e-07
2030.0 9.025e-07
2050.0 9.1687e-07
2070.0 9.3145e-07
2090.0 9.4492e-07
2110.0 9.5812e-07
2130.0 9.7154e-07
2150.0 9.844e-07
2170.0 9.963e-07
2190.0 1.0085e-06
2210.0 1.0204e-06
2230.0 1.0313e-06
2250.0 1.0418e-06
2270.0 1.0525e-06
2290.0 1.0624e-06
2310.0 1.0711e-06
2330.0 1.0799e-06
2350.0 1.0883e-06
2370.0 1.0957e-06
2390.0 1.103e-06
2410.0 1.1109e-06
2430.0 1.1186e-06
2450.0 1.1266e-06
2470.0 1.1367e-06
2490.0 1.1502e-06
2510.0 1.1672e-06
2530.0 1.1932e-06
2550.0 1.2367e-06
2570.0 1.3046e-06
2590.0 1.4053e-06
2610.0 1.563e-06
2630.0 1.7794e-06
2650.0 2.0389e-06
2670.0 2.3413e-06
2690.0 2.6714e-06
2710.0 2.9808e-06
2730.0 3.2483e-06
2750.0 3.4796e-06
2770.0 3.6528e-06
2790.0 3.7696e-06
2810.0 3.8504e-06
2830.0 3.9096e-06
2850.0 3.9466e-06
2870.0 3.9753e-06
2890.0 4.0034e-06
2910.0 4.0299e-06
2930.0 4.0519e-06
2950.0 4.0764e-06
2970.0 4.1021e-06
2990.0 4.1242e-06
3010.0 4.4562e-05
3030.0 4.4807e-05
3050.0 4.5034e-05
3070.0 4.518e-05
3090.0 4.5292e-05
3110.0 4.5309e-05
3130.0 4.5157e-05
3150.0 4.4814e-05
3170.0 4.4245e-05
3190.0 4.3465e-05
3210.0 4.2579e-05
3230.0 4.1679e-05
3250.0 4.0644e-05
3270.0 4.0263e-05
3290.0 3.9828e-05
3310.0 4.0641e-05
3330.0 4.1607e-05
3350.0 4.2922e-05
3370.0 4.4653e-05
3390.0 4.6729e-05
3410.0 4.8903e-05
3430.0 5.1255e-05
3450.0 5.3845e-05
3470.0 5.6534e-05
3490.0 5.9263e-05
3510.0 6.2117e-05
3530.0 6.4978e-05
3550.0 6.8114e-05
3570.0 7.1544e-05
3590.0 7.4783e-05
3610.0 7.8807e-05
3630.0 8.1896e-05
3650.0 8.5213e-05
3670.0 8.7903e-05
3690.0 9.0321e-05
3710.0 9.2317e-05
3730.0 9.2524e-05
3750.0 9.267e-05
3770.0 8.9361e-05
3790.0 8.7423e-05
3810.0 8.505e-05
3830.0 7.7004e-05
3850.0 7.1235e-05
3870.0 7.6099e-05
3890.0 8.9993e-05
3910.0 0.00011404
3930.0 0.0001336
3950.0 0.00014324
3970.0 0.00013718
3990.0 0.00012807
4010.0 0.00013422
4030.0 0.00014485
4050.0 0.00015028
4070.0 0.00013533
4090.0 0.00011204
4110.0 0.00011971
4130.0 0.00013292
4150.0 0.00013874
4170.0 0.0001343
4190.0 0.00012857
4210.0 0.00014041
4230.0 0.00015274
4250.0 0.00015779
4270.0 0.00016261
4290.0 0.00015814
4310.0 0.00016462
4330.0 0.0001819
4350.0 0.00021265
4370.0 0.00022982
4390.0 0.00021781
4410.0 0.00018365
4430.0 0.00015531
4450.0 0.00012694
4470.0 0.00012236
4490.0 0.00013711
4510.0 0.00016723
4530.0 0.00018107
4550.0 0.0001929
4570.0 0.00022514
4590.0 0.00028284
4610.0 0.00037678
4630.0 0.00045137
4650.0 0.00045399
4670.0 0.00045759
4690.0 0.0004954
4710.0 0.00049543
4730.0 0.00040414
4750.0 0.00029902
4770.0 0.0002464
4790.0 0.00023381
4810.0 0.00021756
4830.0 0.00022185
4850.0 0.00026172
4870.0 0.00032806
4890.0 0.00034785
4910.0 0.00029961
4930.0 0.00028817
4950.0 0.00034456
4970.0 0.00045406
4990.0 0.00054397
5010.0 0.00055013
5030.0 0.00044577
5050.0 0.00030683
5070.0 0.00022584
5090.0 0.00019685
5110.0 0.00019743
5130.0 0.00021489
5150.0 0.00021603
5170.0 0.00021517
5190.0 0.00021318
5210.0 0.00020978
5230.0 0.00022093
5250.0 0.00023489
5270.0 0.00026874
5290.0 0.00031732
5310.0 0.00034399
5330.0 0.00035652
5350.0 0.00037813
5370.0 0.00041213
5390.0 0.00042267
5410.0 0.00038784
5430.0 0.00034549
5450.0 0.00034194
5470.0 0.00040996
5490.0 0.00052654
5510.0 0.00063896
5530.0 0.0006849
5550.0 0.0006626
5570.0 0.00061435
5590.0 0.00056166
5610.0 0.00053775
5630.0 0.00054022
5650.0 0.00054888
5670.0 0.00053702
5690.0 0.00051138
5710.0 0.00049126
5730.0 0.00043251
5750.0 0.00033253
5770.0 0.00029757
5790.0 0.00032882
5810.0 0.00037988
5830.0 0.00042724
5850.0 0.00045211
5870.0 0.00044809
5890.0 0.00041528
5910.0 0.00039777
5930.0 0.00040474
5950.0 0.00042799
5970.0 0.00043756
5990.0 0.00039746
6010.0 0.00032535
6030.0 0.00026518
6050.0 0.00024238
6070.0 0.00025562
6090.0 0.00028544
6110.0 0.00028971
6130.0 0.00026857
6150.0 0.00026343
6170.0 0.00029229
6190.0 0.00034954
6210.0 0.00041989
6230.0 0.0004664
6250.0 0.00045622
6270.0 0.00040453
6290.0 0.00033284
6310.0 0.00026458
6330.0 0.00022042
6350.0 0.00021116
6370.0 0.00023196
6390.0 0.00026228
6410.0 0.0003042
6430.0 0.00035875
6450.0 0.0004308
6470.0 0.00052891
6490.0 0.00062917
6510.0 0.00066307
6530.0 0.00062706
6550.0 0.00060063
6570.0 0.00059959
6590.0 0.00058142
6610.0 0.00053929
6630.0 0.00050257
6650.0 0.00047854
6670.0 0.00047971
6690.0 0.00046865
6710.0 0.00041999
6730.0 0.00036636
6750.0 0.00033311
6770.0 0.00034801
6790.0 0.00037233
6810.0 0.00039227
6830.0 0.00039869
6850.0 0.0003829
6870.0 0.0003656
6890.0 0.00035618
6910.0 0.00033805
6930.0 0.00032431
6950.0 0.00032766
6970.0 0.00033889
6990.0 0.00036872
7010.0 0.00039102
7030.0 0.00037621
7050.0 0.00034385
7070.0 0.00030054
7090.0 0.00025344
7110.0 0.00023348
7130.0 0.00024567
7150.0 0.00026058
7170.0 0.00026324
7190.0 0.00025617
7210.0 0.00025574
7230.0 0.00028887
7250.0 0.00033627
7270.0 0.00037368
7290.0 0.0003864
7310.0 0.00036014
7330.0 0.00032388
7350.0 0.00029696
7370.0 0.00029035
7390.0 0.0002984
7410.0 0.00031753
7430.0 0.00035314
7450.0 0.00039406
7470.0 0.00043792
7490.0 0.00046897
7510.0 0.00041765
7530.0 0.00039039
7550.0 0.00034161
7570.0 0.00028979
7590.0 0.0002362
7610.0 0.00022448
7630.0 0.00024201
7650.0 0.00027571
7670.0 0.00031384
7690.0 0.00034621
7710.0 0.00038515
7730.0 0.00041346
7750.0 0.00043076
7770.0 0.00043222
7790.0 0.00042992
7810.0 0.00043502
7830.0 0.00042586
7850.0 0.00040981
7870.0 0.00038788
7890.0 0.00035623
7910.0 0.00031974
7930.0 0.00028397
7950.0 0.00025604
7970.0 0.00024829
7990.0 0.00025847
8010.0 0.00027451
8030.0 0.00027753
8050.0 0.00028291
8070.0 0.00027986
8090.0 0.00027931
8110.0 0.00027031
8130.0 0.00025274
8150.0 0.00023726
8170.0 0.00023494
8190.0 0.00023872
8210.0 0.00024127
8230.0 0.00023506
8250.0 0.00022486
8270.0 0.00019825
8290.0 0.00015885
8310.0 0.00011866
8330.0 8.1197e-05
8350.0 5.8915e-05
8370.0 5.7703e-05
8390.0 6.8519e-05
8410.0 8.5082e-05
8430.0 0.00010471
8450.0 0.00011538
8470.0 0.00012209
8490.0 0.00012962
8510.0 0.00013724
8530.0 0.00015195
8550.0 0.0001783
8570.0 0.00020807
8590.0 0.00023596
8610.0 0.00027444
8630.0 0.00031838
8650.0 0.0003416
8670.0 0.00034351
8690.0 0.00033493
8710.0 0.00031968
8730.0 0.00030656
8750.0 0.00029219
8770.0 0.00028511
8790.0 0.00027421
8810.0 0.00025433
8830.0 0.00023448
8850.0 0.00020175
8870.0 0.00018052
8890.0 0.00016767
8910.0 0.00017893
8930.0 0.00017381
8950.0 0.00017791
8970.0 0.00018031
8990.0 0.0001815
9010.0 0.00018397
9030.0 0.00018013
9050.0 0.00017987
9070.0 0.00018002
9090.0 0.00018018
9110.0 0.00018033
9130.0 0.00018051
9150.0 0.00018074
9170.0 0.00018084
9190.0 0.00018074
9210.0 0.000182
9230.0 0.00018206
9250.0 0.00018227
9270.0 0.00018253
9290.0 0.00018283
9310.0 0.00018316
9330.0 0.00018352
9350.0 0.00018391
9370.0 0.00018432
9390.0 0.00018474
9410.0 0.00018519
9430.0 0.00018565
9450.0 0.00018613
9470.0 0.00018662
9490.0 0.00018713
9510.0 0.00018766
9530.0 0.0001882
9550.0 0.00018876
9570.0 0.00018933
9590.0 0.00018992
9610.0 0.00019053
9630.0 0.00019115
9650.0 0.00019178
9670.0 0.00019243
9690.0 0.00019309
9710.0 0.00019376
9730.0 0.00019445
9750.0 0.00019515
9770.0 0.00019586
9790.0 0.00019658
9810.0 0.00019731
9830.0 0.00019805
9850.0 0.0001988
9870.0 0.00019956
9890.0 0.00020032
9910.0 0.0002011
9930.0 0.00020188
9950.0 0.00020259
9970.0 0.0002034
9990.0 0.00020422
10010.0 0.0002049
10030.0 0.00020571
10050.0 0.00020646
10070.0 0.00020693
10090.0 0.00020785
10110.0 0.00020876
10130.0 0.00020963
10150.0 0.00021049
10170.0 0.00021131
10190.0 0.0002121
10210.0 0.0002129
10230.0 0.0002137
10250.0 0.00021447
10270.0 0.00021523
10290.0 0.00021601
10310.0 0.00021675
10330.0 0.00021747
10350.0 0.00021821
10370.0 0.00021893
10390.0 0.00021962
10410.0 0.0002203
10430.0 0.00022099
10450.0 0.00022165
10470.0 0.00022228
10490.0 0.00022291
10510.0 0.00022352
10530.0 0.00022409
10550.0 0.00022465
10570.0 0.00022521
10590.0 0.00022573
10610.0 0.00022622
10630.0 0.00022671
10650.0 0.00022718
10670.0 0.0002276
10690.0 0.000228
10710.0 0.0002284
10730.0 0.00022875
10750.0 0.00022906
10770.0 0.00022938
10790.0 0.00022967
10810.0 0.00022991
10830.0 0.00023012
10850.0 0.0002303
10870.0 0.00023037
10890.0 0.00023031
10910.0 0.00023007
10930.0 0.00022951
10950.0 0.00022842
10970.0 0.0002267
10990.0 0.00022431
11010.0 0.00021783
11030.0 0.00021332
11050.0 0.00020815
11070.0 0.00020223
11090.0 0.00019537
11110.0 0.00018853
11130.0 0.00018166
11150.0 0.00017457
11170.0 0.00016765
11190.0 0.00016133
11210.0 0.00015523
11230.0 0.00014946
11250.0 0.0001444
11270.0 0.00013996
11290.0 0.00013591
11310.0 0.00013242
11330.0 0.00012959
11350.0 0.00012707
11370.0 0.00012483
11390.0 0.00012286
11410.0 0.00012103
11430.0 0.00011911
11450.0 0.00011714
11470.0 0.00011509
11490.0 0.00011279
11510.0 0.0001102
11530.0 0.00010748
11550.0 0.00010458
11570.0 0.0001014
11590.0 9.8111e-05
11610.0 9.4862e-05
11630.0 9.1485e-05
11650.0 8.8079e-05
11670.0 8.4929e-05
11690.0 8.1927e-05
11710.0 7.9017e-05
11730.0 7.6355e-05
11750.0 7.4003e-05
11770.0 7.1781e-05
11790.0 6.9746e-05
11810.0 6.7958e-05
11830.0 6.6324e-05
11850.0 6.4744e-05
11870.0 6.3298e-05
11890.0 6.1946e-05
11910.0 6.0576e-05
11930.0 5.9185e-05
11950.0 5.7813e-05
11970.0 5.6389e-05
11990.0 5.4859e-05
12010.0 5.3315e-05
12030.0 5.1766e-05
12050.0 5.0154e-05
12070.0 4.8518e-05
12090.0 4.7009e-05
12110.0 4.5551e-05
12130.0 4.4166e-05
12150.0 4.2958e-05
12170.0 4.1949e-05
12190.0 4.1104e-05
12210.0 4.0516e-05
12230.0 4.0195e-05
12250.0 4.0132e-05
12270.0 4.0354e-05
12290.0 4.0833e-05
12310.0 4.1526e-05
12330.0 4.2482e-05
12350.0 4.3636e-05
12370.0 4.4896e-05
12390.0 4.6285e-05
12410.0 4.7833e-05
12430.0 4.9307e-05
12450.0 5.0736e-05
12470.0 5.2151e-05
12490.0 5.3453e-05
12510.0 5.4553e-05
12530.0 5.5531e-05
12550.0 5.6345e-05
12570.0 5.6923e-05
12590.0 5.7293e-05
12610.0 5.7476e-05
12630.0 5.7443e-05
12650.0 5.7211e-05
12670.0 5.6808e-05
12690.0 5.6234e-05
12710.0 5.5528e-05
12730.0 5.4712e-05
12750.0 5.3758e-05
12770.0 5.2732e-05
12790.0 5.1667e-05
12810.0 5.0533e-05
12830.0 4.9334e-05
12850.0 4.815e-05
12870.0 4.6947e-05
12890.0 4.5683e-05
12910.0 4.4409e-05
12930.0 4.3148e-05
12950.0 4.1819e-05
12970.0 4.0439e-05
12990.0 3.9094e-05
13010.0 3.773e-05
13030.0 3.6318e-05
13050.0 3.4929e-05
13070.0 3.3604e-05
13090.0 3.2268e-05
13110.0 3.0977e-05
13130.0 2.9801e-05
13150.0 2.8713e-05
13170.0 2.7695e-05
13190.0 2.6837e-05
13210.0 2.6135e-05
13230.0 2.5558e-05
13250.0 2.513e-05
13270.0 2.4857e-05
13290.0 2.4718e-05
13310.0 2.4716e-05
13330.0 2.4833e-05
13350.0 2.5046e-05
13370.0 2.5355e-05
13390.0 2.5743e-05
13410.0 2.6148e-05
13430.0 2.6589e-05
13450.0 2.7057e-05
13470.0 2.7506e-05
13490.0 2.7923e-05
13510.0 2.8343e-05
13530.0 2.8719e-05
13550.0 2.9036e-05
13570.0 2.9318e-05
13590.0 2.9566e-05
13610.0 2.9762e-05
13630.0 2.9914e-05
13650.0 3.0042e-05
13670.0 3.0136e-05
13690.0 3.0194e-05
13710.0 3.0229e-05
13730.0 3.0243e-05
13750.0 3.0226e-05
13770.0 3.0184e-05
13790.0 3.0117e-05
13810.0 3.0022e-05
13830.0 2.99e-05
13850.0 2.9746e-05
13870.0 2.9556e-05
13890.0 2.9337e-05
13910.0 2.9088e-05
13930.0 2.88e-05
13950.0 2.8485e-05
13970.0 2.8161e-05
13990.0 2.7814e-05
14010.0 2.7453e-05
14030.0 2.7101e-05
14050.0 2.6758e-05
14070.0 2.6413e-05
14090.0 2.6098e-05
14110.0 2.5815e-05
14130.0 2.5557e-05
14150.0 2.5329e-05
14170.0 2.5146e-05
14190.0 2.4999e-05
14210.0 2.4887e-05
14230.0 2.4817e-05
14250.0 2.4786e-05
14270.0 2.4796e-05
14290.0 2.4851e-05
14310.0 2.494e-05
14330.0 2.5066e-05
14350.0 2.5234e-05
14370.0 2.5431e-05
14390.0 2.5646e-05
14410.0 2.5894e-05
14430.0 2.6163e-05
14450.0 2.6436e-05
14470.0 2.6722e-05
14490.0 2.7034e-05
14510.0 2.7346e-05
14530.0 2.7662e-05
14550.0 2.8011e-05
14570.0 2.8392e-05
14590.0 2.8792e-05
14610.0 2.9244e-05
14630.0 2.9774e-05
14650.0 3.0353e-05
14670.0 3.099e-05
14690.0 3.1724e-05
14710.0 3.2549e-05
14730.0 3.3391e-05
14750.0 3.4312e-05
14770.0 3.5308e-05
14790.0 3.6311e-05
14810.0 3.7303e-05
14830.0 3.8354e-05
14850.0 3.9357e-05
14870.0 4.0272e-05
14890.0 4.1132e-05
14910.0 4.1921e-05
14930.0 4.2575e-05
14950.0 4.3103e-05
14970.0 4.353e-05
14990.0 4.3829e-05
15010.0 4.4009e-05
15030.0 4.4099e-05
15050.0 4.411e-05
15070.0 4.4064e-05
15090.0 4.3981e-05
15110.0 4.3873e-05
15130.0 4.3751e-05
15150.0 4.3629e-05
15170.0 4.3499e-05
15190.0 4.3366e-05
15210.0 4.3238e-05
15230.0 4.3112e-05
15250.0 4.2981e-05
15270.0 4.2852e-05
15290.0 4.273e-05
15310.0 4.2605e-05
15330.0 4.2479e-05
15350.0 4.2358e-05
15370.0 4.2238e-05
15390.0 4.2112e-05
15410.0 4.1991e-05
15430.0 4.1873e-05
15450.0 4.1753e-05
15470.0 4.163e-05
15490.0 4.1514e-05
15510.0 4.1399e-05
15530.0 4.1279e-05
15550.0 4.1162e-05
15570.0 4.1049e-05
15590.0 4.0931e-05
15610.0 4.0811e-05
15630.0 4.0699e-05
15650.0 4.0586e-05
15670.0 4.0468e-05
15690.0 4.0354e-05
15710.0 4.0244e-05
15730.0 4.0129e-05
15750.0 4.0013e-05
15770.0 3.9903e-05
15790.0 3.9791e-05
15810.0 3.9673e-05
15830.0 3.956e-05
15850.0 3.9451e-05
15870.0 3.9337e-05
15890.0 3.9223e-05
15910.0 3.9114e-05
15930.0 3.9002e-05
15950.0 3.8886e-05
15970.0 3.8774e-05
15990.0 3.8664e-05
16010.0 3.8549e-05
16030.0 3.8433e-05
16050.0 3.8325e-05
16070.0 3.8213e-05
16090.0 3.8097e-05
16110.0 3.7985e-05
16130.0 3.7876e-05
16150.0 3.7758e-05
16170.0 3.7642e-05
16190.0 3.7531e-05
16210.0 3.7418e-05
16230.0 3.73e-05
16250.0 3.7187e-05
16270.0 3.7076e-05
16290.0 3.6958e-05
16310.0 3.6842e-05
16330.0 3.6729e-05
16350.0 3.6613e-05
16370.0 3.6491e-05
16390.0 3.6377e-05
16410.0 3.6262e-05
16430.0 3.6143e-05
16450.0 3.6024e-05
16470.0 3.5911e-05
16490.0 3.5791e-05
16510.0 3.5669e-05
16530.0 3.5552e-05
16550.0 3.5434e-05
16570.0 3.5311e-05
16590.0 3.5188e-05
16610.0 3.5072e-05
16630.0 3.495e-05
16650.0 3.4826e-05
16670.0 3.4707e-05
16690.0 3.4587e-05
16710.0 3.4459e-05
16730.0 3.4335e-05
16750.0 3.4214e-05
16770.0 3.4089e-05
16790.0 3.3961e-05
16810.0 3.3839e-05
16830.0 3.3715e-05
16850.0 3.3586e-05
16870.0 3.346e-05
16890.0 3.3337e-05
16910.0 3.3207e-05
16930.0 3.3075e-05
16950.0 3.2949e-05
16970.0 3.2822e-05
16990.0 3.2689e-05
17010.0 3.256e-05
17030.0 3.2434e-05
17050.0 3.2301e-05
17070.0 3.2168e-05
17090.0 3.2039e-05
17110.0 3.1908e-05
17130.0 3.177e-05
17150.0 3.1638e-05
17170.0 3.1508e-05
17190.0 3.1373e-05
17210.0 3.1237e-05
17230.0 3.1106e-05
17250.0 3.0971e-05
17270.0 3.0832e-05
17290.0 3.0696e-05
17310.0 3.0563e-05
17330.0 3.0423e-05
17350.0 3.0283e-05
17370.0 3.015e-05
17390.0 3.0013e-05
17410.0 2.9872e-05
17430.0 2.9734e-05
17450.0 2.9599e-05
17470.0 2.9454e-05
17490.0 2.9313e-05
17510.0 2.9176e-05
17530.0 2.9035e-05
17550.0 2.8891e-05
17570.0 2.8751e-05
17590.0 2.8613e-05
17610.0 2.8468e-05
17630.0 2.8325e-05
17650.0 2.8186e-05
17670.0 2.8042e-05
17690.0 2.7893e-05
17710.0 2.7752e-05
17730.0 2.7611e-05
17750.0 2.7465e-05
17770.0 2.732e-05
17790.0 2.718e-05
17810.0 2.7033e-05
17830.0 2.6885e-05
17850.0 2.6741e-05
17870.0 2.6597e-05
17890.0 2.6448e-05
17910.0 2.63e-05
17930.0 2.6158e-05
17950.0 2.6011e-05
17970.0 2.5862e-05
17990.0 2.5718e-05
18010.0 2.5573e-05
18030.0 2.5421e-05
18050.0 2.5273e-05
18070.0 2.5128e-05
18090.0 2.498e-05
18110.0 2.4829e-05
18130.0 2.4684e-05
18150.0 2.4538e-05
18170.0 2.4386e-05
18190.0 2.4238e-05
18210.0 2.4093e-05
18230.0 2.3942e-05
18250.0 2.379e-05
18270.0 2.3644e-05
18290.0 2.3496e-05
18310.0 2.3345e-05
18330.0 2.3197e-05
18350.0 2.3052e-05
18370.0 2.29e-05
18390.0 2.2749e-05
18410.0 2.2603e-05
18430.0 2.2454e-05
18450.0 2.23e-05
18470.0 2.2152e-05
18490.0 2.2006e-05
18510.0 2.1855e-05
18530.0 2.1705e-05
18550.0 2.156e-05
18570.0 2.141e-05
18590.0 2.1257e-05
18610.0 2.1109e-05
18630.0 2.0963e-05
18650.0 2.0811e-05
18670.0 2.066e-05
18690.0 2.0516e-05
18710.0 2.0367e-05
18730.0 2.0216e-05
18750.0 2.0069e-05
18770.0 1.9924e-05
18790.0 1.9771e-05
18810.0 1.9621e-05
18830.0 1.9476e-05
18850.0 1.9328e-05
18870.0 1.9177e-05
18890.0 1.9032e-05
18910.0 1.8887e-05
18930.0 1.8736e-05
18950.0 1.8588e-05
18970.0 1.8444e-05
18990.0 1.8297e-05
19010.0 1.8144e-05
19030.0 1.8e-05
19050.0 1.7856e-05
19070.0 1.7707e-05
19090.0 1.7561e-05
19110.0 1.7419e-05
19130.0 1.7271e-05
19150.0 1.7122e-05
19170.0 1.6979e-05
19190.0 1.6835e-05
19210.0 1.6686e-05
19230.0 1.654e-05
19250.0 1.64e-05
19270.0 1.6254e-05
19290.0 1.6108e-05
19310.0 1.5967e-05
19330.0 1.5825e-05
19350.0 1.5676e-05
19370.0 1.5533e-05
19390.0 1.5392e-05
19410.0 1.5248e-05
19430.0 1.5103e-05
19450.0 1.4964e-05
19470.0 1.4823e-05
19490.0 1.4678e-05
19510.0 1.4537e-05
19530.0 1.4398e-05
19550.0 1.4254e-05
19570.0 1.411e-05
19590.0 1.3972e-05
19610.0 1.3832e-05
19630.0 1.369e-05
19650.0 1.3551e-05
19670.0 1.3414e-05
19690.0 1.3272e-05
19710.0 1.3131e-05
19730.0 1.2995e-05
19750.0 1.2856e-05
19770.0 1.2713e-05
19790.0 1.2576e-05
19810.0 1.2441e-05
19830.0 1.2301e-05
19850.0 1.2162e-05
19870.0 1.2026e-05
19890.0 1.1884e-05
19910.0 1.1732e-05
19930.0 1.1579e-05
19950.0 1.1414e-05
19970.0 1.1227e-05
19990.0 1.102e-05
20010.0 1.0802e-05
20030.0 1.0557e-05
20050.0 1.0291e-05
20070.0 1.0024e-05
20090.0 9.7552e-06
20110.0 9.4747e-06
20130.0 9.2134e-06
20150.0 8.9747e-06
20170.0 8.7477e-06
20190.0 8.5378e-06
20210.0 8.3569e-06
20230.0 8.1963e-06
20250.0 8.0509e-06
20270.0 7.93e-06
20290.0 7.8316e-06
20310.0 7.7499e-06
20330.0 7.686e-06
20350.0 7.6437e-06
20370.0 7.6172e-06
20390.0 7.607e-06
20410.0 7.613e-06
20430.0 7.633e-06
20450.0 7.6697e-06
20470.0 7.7217e-06
20490.0 7.7856e-06
20510.0 7.8632e-06
20530.0 7.9575e-06
20550.0 8.0619e-06
20570.0 8.1728e-06
20590.0 8.2981e-06
20610.0 8.4322e-06
20630.0 8.5674e-06
20650.0 8.7085e-06
20670.0 8.8597e-06
20690.0 9.0045e-06
20710.0 9.1455e-06
20730.0 9.2886e-06
20750.0 9.4287e-06
20770.0 9.5578e-06
20790.0 9.6857e-06
20810.0 9.8136e-06
20830.0 9.9349e-06
20850.0 1.0053e-05
20870.0 1.0176e-05
20890.0 1.0302e-05
20910.0 1.0423e-05
20930.0 1.0552e-05
20950.0 1.0688e-05
20970.0 1.0824e-05
20990.0 1.0961e-05
21010.0 1.1107e-05
21030.0 1.1251e-05
21050.0 1.1387e-05
21070.0 1.1521e-05
21090.0 1.1651e-05
21110.0 1.1763e-05
21130.0 1.1862e-05
21150.0 1.195e-05
21170.0 1.2019e-05
21190.0 1.2068e-05
21210.0 1.21e-05
21230.0 1.2113e-05
21250.0 1.2106e-05
21270.0 1.208e-05
21290.0 1.2034e-05
21310.0 1.1971e-05
21330.0 1.1893e-05
21350.0 1.1798e-05
21370.0 1.1686e-05
21390.0 1.1565e-05
21410.0 1.1433e-05
21430.0 1.1283e-05
21450.0 1.113e-05
21470.0 1.0976e-05
21490.0 1.0814e-05
21510.0 1.0649e-05
21530.0 1.0491e-05
21550.0 1.0335e-05
21570.0 1.0178e-05
21590.0 1.0033e-05
21610.0 9.9016e-06
21630.0 9.7778e-06
21650.0 9.6655e-06
21670.0 9.5758e-06
21690.0 9.5008e-06
21710.0 9.4422e-06
21730.0 9.4038e-06
21750.0 9.3846e-06
21770.0 9.3844e-06
21790.0 9.4049e-06
21810.0 9.4435e-06
21830.0 9.5005e-06
21850.0 9.5784e-06
21870.0 9.6713e-06
21890.0 9.776e-06
21910.0 9.8996e-06
21930.0 1.0037e-05
21950.0 1.018e-05
21970.0 1.0335e-05
21990.0 1.0507e-05
22010.0 1.0677e-05
22030.0 1.085e-05
22050.0 1.1031e-05
22070.0 1.1214e-05
22090.0 1.1388e-05
22110.0 1.1564e-05
22130.0 1.174e-05
22150.0 1.1904e-05
22170.0 1.2057e-05
22190.0 1.2206e-05
22210.0 1.2341e-05
22230.0 1.2455e-05
22250.0 1.2555e-05
22270.0 1.2638e-05
22290.0 1.2698e-05
22310.0 1.2737e-05
22330.0 1.2755e-05
22350.0 1.2747e-05
22370.0 1.2716e-05
22390.0 1.2659e-05
22410.0 1.2574e-05
22430.0 1.2467e-05
22450.0 1.2339e-05
22470.0 1.2182e-05
22490.0 1.2004e-05
22510.0 1.1813e-05
22530.0 1.1595e-05
22550.0 1.1355e-05
22570.0 1.1111e-05
22590.0 1.0855e-05
22610.0 1.0579e-05
