#lamb flux
1010.0 1.6e-07
1030.0 1.7585e-07
1050.0 1.9409e-07
1070.0 2.1463e-07
1090.0 2.3796e-07
1110.0 2.6189e-07
1130.0 2.8598e-07
1150.0 3.1123e-07
1170.0 3.3728e-07
1190.0 3.62e-07
1210.0 3.8706e-07
1230.0 4.1296e-07
1250.0 4.3836e-07
1270.0 4.6303e-07
1290.0 4.8912e-07
1310.0 5.152e-07
1330.0 5.4023e-07
1350.0 5.6556e-07
1370.0 5.9173e-07
1390.0 6.1725e-07
1410.0 6.4205e-07
1430.0 6.6798e-07
1450.0 6.9392e-07
1470.0 7.1902e-07
1490.0 7.444e-07
1510.0 7.7122e-07
1530.0 7.9665e-07
1550.0 8.2174e-07
1570.0 8.4771e-07
1590.0 8.737e-07
1610.0 8.9854e-07
1630.0 9.2414e-07
1650.0 9.5039e-07
1670.0 9.7577e-07
1690.0 1.0008e-06
1710.0 1.0268e-06
1730.0 1.0528e-06
1750.0 1.0773e-06
1770.0 1.1024e-06
1790.0 1.1279e-06
1810.0 1.1525e-06
1830.0 1.1766e-06
1850.0 1.202e-06
1870.0 1.2267e-06
1890.0 1.2503e-06
1910.0 1.2743e-06
1930.0 1.2987e-06
1950.0 1.3216e-06
1970.0 1.3441e-06
1990.0 1.3672e-06
2010.0 1.3896e-06
2030.0 1.4108e-06
2050.0 1.4325e-06
2070.0 1.4543e-06
2090.0 1.4744e-06
2110.0 1.494e-06
2130.0 1.5138e-06
2150.0 1.5327e-06
2170.0 1.5501e-06
2190.0 1.5678e-06
2210.0 1.5852e-06
2230.0 1.6009e-06
2250.0 1.616e-06
2270.0 1.6315e-06
2290.0 1.6455e-06
2310.0 1.658e-06
2330.0 1.6704e-06
2350.0 1.6823e-06
2370.0 1.6927e-06
2390.0 1.7027e-06
2410.0 1.7135e-06
2430.0 1.7237e-06
2450.0 1.7339e-06
2470.0 1.7463e-06
2490.0 1.7623e-06
2510.0 1.7823e-06
2530.0 1.8137e-06
2550.0 1.8679e-06
2570.0 1.9554e-06
2590.0 2.0883e-06
2610.0 2.3011e-06
2630.0 2.598e-06
2650.0 2.959e-06
2670.0 3.3846e-06
2690.0 3.8546e-06
2710.0 4.3e-06
2730.0 4.6901e-06
2750.0 5.0322e-06
2770.0 5.2938e-06
2790.0 5.476e-06
2810.0 5.6077e-06
2830.0 5.7097e-06
2850.0 5.7798e-06
2870.0 5.8385e-06
2890.0 5.8978e-06
2910.0 5.956e-06
2930.0 6.0089e-06
2950.0 6.0673e-06
2970.0 6.1296e-06
2990.0 6.1883e-06
3010.0 6.6861e-05
3030.0 6.7222e-05
3050.0 6.7565e-05
3070.0 6.7793e-05
3090.0 6.7952e-05
3110.0 6.7923e-05
3130.0 6.7558e-05
3150.0 6.6772e-05
3170.0 6.5402e-05
3190.0 6.346e-05
3210.0 6.1101e-05
3230.0 5.8608e-05
3250.0 5.8699e-05
3270.0 5.6795e-05
3290.0 5.9587e-05
3310.0 5.7274e-05
3330.0 5.8637e-05
3350.0 6.0943e-05
3370.0 6.3915e-05
3390.0 6.7428e-05
3410.0 7.11e-05
3430.0 7.509e-05
3450.0 7.9475e-05
3470.0 8.4013e-05
3490.0 8.8491e-05
3510.0 9.4133e-05
3530.0 0.00010081
3550.0 0.0001052
3570.0 0.00010844
3590.0 0.00011611
3610.0 0.00011799
3630.0 0.00012719
3650.0 0.00013417
3670.0 0.00014209
3690.0 0.00014454
3710.0 0.00014215
3730.0 0.00014563
3750.0 0.00014597
3770.0 0.00013876
3790.0 0.00013082
3810.0 0.0001251
3830.0 0.00012366
3850.0 0.0001222
3870.0 0.00013202
3890.0 0.00015333
3910.0 0.00018344
3930.0 0.00021208
3950.0 0.00022746
3970.0 0.00022122
3990.0 0.00020118
4010.0 0.00021032
4030.0 0.0002364
4050.0 0.00024412
4070.0 0.0002209
4090.0 0.00018273
4110.0 0.00019307
4130.0 0.00022133
4150.0 0.00022463
4170.0 0.00021695
4190.0 0.00020949
4210.0 0.00022961
4230.0 0.00023946
4250.0 0.00025465
4270.0 0.00026003
4290.0 0.00025303
4310.0 0.00027009
4330.0 0.00029703
4350.0 0.00033419
4370.0 0.00036463
4390.0 0.0003526
4410.0 0.00030006
4430.0 0.00024643
4450.0 0.00020449
4470.0 0.00020346
4490.0 0.00022078
4510.0 0.00026758
4530.0 0.00028963
4550.0 0.0003175
4570.0 0.0003778
4590.0 0.00046169
4610.0 0.00059392
4630.0 0.00072483
4650.0 0.00074766
4670.0 0.00074822
4690.0 0.00078211
4710.0 0.00078923
4730.0 0.00066544
4750.0 0.00049356
4770.0 0.00040242
4790.0 0.00037234
4810.0 0.00035975
4830.0 0.00036361
4850.0 0.00041286
4870.0 0.00049127
4890.0 0.00055186
4910.0 0.00049252
4930.0 0.00047474
4950.0 0.00055103
4970.0 0.00069379
4990.0 0.00084539
5010.0 0.0008665
5030.0 0.0007197
5050.0 0.00050466
5070.0 0.00036336
5090.0 0.00031386
5110.0 0.00031814
5130.0 0.00034206
5150.0 0.00034749
5170.0 0.00034279
5190.0 0.0003413
5210.0 0.00033858
5230.0 0.00035656
5250.0 0.00038417
5270.0 0.00042836
5290.0 0.00049428
5310.0 0.0005527
5330.0 0.00057648
5350.0 0.00058818
5370.0 0.00063471
5390.0 0.00066867
5410.0 0.00063068
5430.0 0.0005651
5450.0 0.00055707
5470.0 0.00064518
5490.0 0.00081071
5510.0 0.00098989
5530.0 0.0010655
5550.0 0.0010417
5570.0 0.00097496
5590.0 0.00089397
5610.0 0.00084478
5630.0 0.00083866
5650.0 0.00085468
5670.0 0.00083321
5690.0 0.0007785
5710.0 0.00074516
5730.0 0.0006666
5750.0 0.00052962
5770.0 0.00046804
5790.0 0.00051203
5810.0 0.00058821
5830.0 0.00065993
5850.0 0.00069166
5870.0 0.00069165
5890.0 0.00066422
5910.0 0.00063253
5930.0 0.00062779
5950.0 0.00065485
5970.0 0.00067809
5990.0 0.00061795
6010.0 0.000517
6030.0 0.00043134
6050.0 0.00038758
6070.0 0.00039357
6090.0 0.0004346
6110.0 0.00045711
6130.0 0.00043563
6150.0 0.00042358
6170.0 0.000465
6190.0 0.00054704
6210.0 0.00065023
6230.0 0.00073042
6250.0 0.00071403
6270.0 0.00063108
6290.0 0.00052712
6310.0 0.00042426
6330.0 0.00035136
6350.0 0.00033312
6370.0 0.00036512
6390.0 0.00041835
6410.0 0.00048563
6430.0 0.0005711
6450.0 0.00067176
6470.0 0.00080903
6490.0 0.0009663
6510.0 0.0010398
6530.0 0.00098646
6550.0 0.00093246
6570.0 0.00092361
6590.0 0.00089668
6610.0 0.00083788
6630.0 0.00077557
6650.0 0.000727
6670.0 0.0007271
6690.0 0.00071021
6710.0 0.00065219
6730.0 0.00058003
6750.0 0.00052
6770.0 0.00052652
6790.0 0.00056261
6810.0 0.00059509
6830.0 0.00060482
6850.0 0.00057929
6870.0 0.00056014
6890.0 0.00054596
6910.0 0.00051698
6930.0 0.00050167
6950.0 0.00050217
6970.0 0.00051471
6990.0 0.00055873
7010.0 0.00058763
7030.0 0.00055634
7050.0 0.00051081
7070.0 0.00046742
7090.0 0.00040819
7110.0 0.00037499
7130.0 0.00038494
7150.0 0.00040149
7170.0 0.00042096
7190.0 0.00041807
7210.0 0.00041645
7230.0 0.00045464
7250.0 0.00051843
7270.0 0.00058
7290.0 0.00061009
7310.0 0.00058524
7330.0 0.00052789
7350.0 0.00048118
7370.0 0.00046529
7390.0 0.00047353
7410.0 0.0005053
7430.0 0.00056475
7450.0 0.00061773
7470.0 0.00067579
7490.0 0.00072238
7510.0 0.00065376
7530.0 0.00061213
7550.0 0.00053752
7570.0 0.00045719
7590.0 0.00037853
7610.0 0.00035449
7630.0 0.00037481
7650.0 0.00042986
7670.0 0.00048508
7690.0 0.00053859
7710.0 0.00059859
7730.0 0.00063194
7750.0 0.00065338
7770.0 0.00066325
7790.0 0.00066704
7810.0 0.00067612
7830.0 0.00065321
7850.0 0.00061863
7870.0 0.0005813
7890.0 0.00054058
7910.0 0.00048586
7930.0 0.00043386
7950.0 0.00039023
7970.0 0.0003805
7990.0 0.00039203
8010.0 0.00042222
8030.0 0.00042739
8050.0 0.00043327
8070.0 0.00042401
8090.0 0.00042189
8110.0 0.00040703
8130.0 0.00038537
8150.0 0.00036264
8170.0 0.0003589
8190.0 0.00036553
8210.0 0.00036631
8230.0 0.00035981
8250.0 0.00034984
8270.0 0.00031
8290.0 0.00024416
8310.0 0.00017988
8330.0 0.00012424
8350.0 9.062e-05
8370.0 9.5465e-05
8390.0 0.00010734
8410.0 0.00013228
8430.0 0.00016237
8450.0 0.00017796
8470.0 0.00018597
8490.0 0.00019848
8510.0 0.00021058
8530.0 0.00023632
8550.0 0.00027023
8570.0 0.00031233
8590.0 0.00036269
8610.0 0.00041964
8630.0 0.00048752
8650.0 0.00053314
8670.0 0.00053128
8690.0 0.00051129
8710.0 0.00048783
8730.0 0.00046547
8750.0 0.00044401
8770.0 0.00043394
8790.0 0.00041857
8810.0 0.00038773
8830.0 0.00036061
8850.0 0.00031449
8870.0 0.00028012
8890.0 0.00025483
8910.0 0.00026736
8930.0 0.0002579
8950.0 0.00026685
8970.0 0.00027164
8990.0 0.00027642
9010.0 0.00028478
9030.0 0.00028091
9050.0 0.00028069
9070.0 0.00028094
9090.0 0.00028116
9110.0 0.00028129
9130.0 0.00028152
9150.0 0.00028186
9170.0 0.00028199
9190.0 0.00028181
9210.0 0.00028368
9230.0 0.00028376
9250.0 0.00028406
9270.0 0.00028443
9290.0 0.00028486
9310.0 0.00028535
9330.0 0.00028589
9350.0 0.00028646
9370.0 0.00028706
9390.0 0.00028771
9410.0 0.00028837
9430.0 0.00028905
9450.0 0.00028978
9470.0 0.00029054
9490.0 0.00029131
9510.0 0.00029211
9530.0 0.00029295
9550.0 0.00029381
9570.0 0.00029468
9590.0 0.00029559
9610.0 0.00029653
9630.0 0.00029748
9650.0 0.00029846
9670.0 0.00029947
9690.0 0.00030049
9710.0 0.00030154
9730.0 0.00030261
9750.0 0.0003037
9770.0 0.0003048
9790.0 0.00030592
9810.0 0.00030707
9830.0 0.00030823
9850.0 0.0003094
9870.0 0.0003106
9890.0 0.0003118
9910.0 0.00031301
9930.0 0.00031424
9950.0 0.00031537
9970.0 0.00031664
9990.0 0.00031791
10010.0 0.00031772
10030.0 0.00031898
10050.0 0.00032018
10070.0 0.00032105
10090.0 0.00032246
10110.0 0.00032383
10130.0 0.00032516
10150.0 0.00032649
10170.0 0.00032777
10190.0 0.000329
10210.0 0.00033025
10230.0 0.00033151
10250.0 0.00033271
10270.0 0.00033391
10290.0 0.00033513
10310.0 0.0003363
10330.0 0.00033742
10350.0 0.00033858
10370.0 0.00033971
10390.0 0.0003408
10410.0 0.00034186
10430.0 0.00034295
10450.0 0.00034398
10470.0 0.00034496
10490.0 0.00034595
10510.0 0.00034691
10530.0 0.0003478
10550.0 0.00034867
10570.0 0.00034955
10590.0 0.00035036
10610.0 0.00035113
10630.0 0.0003519
10650.0 0.00035262
10670.0 0.00035327
10690.0 0.0003539
10710.0 0.00035451
10730.0 0.00035505
10750.0 0.00035553
10770.0 0.00035602
10790.0 0.00035645
10810.0 0.00035681
10830.0 0.00035713
10850.0 0.0003574
10870.0 0.0003575
10890.0 0.0003574
10910.0 0.00035704
10930.0 0.0003562
10950.0 0.00035455
10970.0 0.00035198
10990.0 0.00034842
11010.0 0.0003446
11030.0 0.00033785
11050.0 0.00033005
11070.0 0.00032104
11090.0 0.00031054
11110.0 0.00029999
11130.0 0.00028929
11150.0 0.00027817
11170.0 0.00026718
11190.0 0.00025704
11210.0 0.00024712
11230.0 0.00023759
11250.0 0.00022909
11270.0 0.0002215
11290.0 0.00021443
11310.0 0.00020821
11330.0 0.00020308
11350.0 0.00019847
11370.0 0.00019432
11390.0 0.00019072
11410.0 0.00018744
11430.0 0.0001841
11450.0 0.00018082
11470.0 0.00017752
11490.0 0.00017392
11510.0 0.00016993
11530.0 0.0001658
11550.0 0.00016141
11570.0 0.00015658
11590.0 0.00015158
11610.0 0.0001466
11630.0 0.00014139
11650.0 0.00013607
11670.0 0.00013109
11690.0 0.0001263
11710.0 0.0001216
11730.0 0.00011727
11750.0 0.0001134
11770.0 0.00010973
11790.0 0.00010636
11810.0 0.0001034
11830.0 0.00010071
11850.0 9.814e-05
11870.0 9.5832e-05
11890.0 9.3718e-05
11910.0 9.1623e-05
11930.0 8.954e-05
11950.0 8.7522e-05
11970.0 8.5453e-05
11990.0 8.3248e-05
12010.0 8.1031e-05
12030.0 7.8805e-05
12050.0 7.6482e-05
12070.0 7.4108e-05
12090.0 7.1901e-05
12110.0 6.9746e-05
12130.0 6.7675e-05
12150.0 6.5837e-05
12170.0 6.4272e-05
12190.0 6.2921e-05
12210.0 6.1926e-05
12230.0 6.1315e-05
12250.0 6.1071e-05
12270.0 6.1233e-05
12290.0 6.1779e-05
12310.0 6.2649e-05
12330.0 6.3909e-05
12350.0 6.5476e-05
12370.0 6.7221e-05
12390.0 6.9178e-05
12410.0 7.1392e-05
12430.0 7.353e-05
12450.0 7.5631e-05
12470.0 7.774e-05
12490.0 7.9712e-05
12510.0 8.141e-05
12530.0 8.2953e-05
12550.0 8.4276e-05
12570.0 8.5265e-05
12590.0 8.5957e-05
12610.0 8.6388e-05
12630.0 8.6507e-05
12650.0 8.6327e-05
12670.0 8.5899e-05
12690.0 8.522e-05
12710.0 8.434e-05
12730.0 8.3291e-05
12750.0 8.2037e-05
12770.0 8.0669e-05
12790.0 7.923e-05
12810.0 7.7683e-05
12830.0 7.6032e-05
12850.0 7.4388e-05
12870.0 7.2707e-05
12890.0 7.0927e-05
12910.0 6.9124e-05
12930.0 6.733e-05
12950.0 6.5431e-05
12970.0 6.3451e-05
12990.0 6.1515e-05
13010.0 5.9545e-05
13030.0 5.7497e-05
13050.0 5.5474e-05
13070.0 5.3537e-05
13090.0 5.1571e-05
13110.0 4.9658e-05
13130.0 4.79e-05
13150.0 4.6259e-05
13170.0 4.47e-05
13190.0 4.3367e-05
13210.0 4.2255e-05
13230.0 4.1314e-05
13250.0 4.0588e-05
13270.0 4.0095e-05
13290.0 3.9802e-05
13310.0 3.9713e-05
13330.0 3.9816e-05
13350.0 4.0074e-05
13370.0 4.0488e-05
13390.0 4.1034e-05
13410.0 4.1624e-05
13430.0 4.228e-05
13450.0 4.2986e-05
13470.0 4.3673e-05
13490.0 4.4318e-05
13510.0 4.497e-05
13530.0 4.5553e-05
13550.0 4.6044e-05
13570.0 4.6475e-05
13590.0 4.6845e-05
13610.0 4.7126e-05
13630.0 4.7331e-05
13650.0 4.7486e-05
13670.0 4.7578e-05
13690.0 4.761e-05
13710.0 4.7598e-05
13730.0 4.7542e-05
13750.0 4.744e-05
13770.0 4.73e-05
13790.0 4.7119e-05
13810.0 4.6896e-05
13830.0 4.664e-05
13850.0 4.6336e-05
13870.0 4.5984e-05
13890.0 4.5595e-05
13910.0 4.5168e-05
13930.0 4.4686e-05
13950.0 4.4168e-05
13970.0 4.3644e-05
13990.0 4.3088e-05
14010.0 4.2512e-05
14030.0 4.1952e-05
14050.0 4.1407e-05
14070.0 4.0858e-05
14090.0 4.0354e-05
14110.0 3.9902e-05
14130.0 3.9488e-05
14150.0 3.9123e-05
14170.0 3.8831e-05
14190.0 3.8599e-05
14210.0 3.8427e-05
14230.0 3.8326e-05
14250.0 3.829e-05
14270.0 3.8324e-05
14290.0 3.8431e-05
14310.0 3.8595e-05
14330.0 3.882e-05
14350.0 3.9111e-05
14370.0 3.9446e-05
14390.0 3.9808e-05
14410.0 4.0223e-05
14430.0 4.0667e-05
14450.0 4.1115e-05
14470.0 4.1578e-05
14490.0 4.2081e-05
14510.0 4.2577e-05
14530.0 4.3075e-05
14550.0 4.3618e-05
14570.0 4.4201e-05
14590.0 4.4807e-05
14610.0 4.5485e-05
14630.0 4.6272e-05
14650.0 4.7126e-05
14670.0 4.806e-05
14690.0 4.9136e-05
14710.0 5.0344e-05
14730.0 5.158e-05
14750.0 5.2934e-05
14770.0 5.4407e-05
14790.0 5.5898e-05
14810.0 5.7384e-05
14830.0 5.8972e-05
14850.0 6.0506e-05
14870.0 6.1923e-05
14890.0 6.3277e-05
14910.0 6.454e-05
14930.0 6.5608e-05
14950.0 6.649e-05
14970.0 6.7226e-05
14990.0 6.776e-05
15010.0 6.8102e-05
15030.0 6.8296e-05
15050.0 6.836e-05
15070.0 6.832e-05
15090.0 6.8217e-05
15110.0 6.8068e-05
15130.0 6.7895e-05
15150.0 6.7718e-05
15170.0 6.7528e-05
15190.0 6.7333e-05
15210.0 6.7144e-05
15230.0 6.6958e-05
15250.0 6.6764e-05
15270.0 6.6573e-05
15290.0 6.6393e-05
15310.0 6.6208e-05
15330.0 6.602e-05
15350.0 6.584e-05
15370.0 6.5662e-05
15390.0 6.5473e-05
15410.0 6.5291e-05
15430.0 6.5116e-05
15450.0 6.4935e-05
15470.0 6.4752e-05
15490.0 6.4578e-05
15510.0 6.4404e-05
15530.0 6.4224e-05
15550.0 6.4048e-05
15570.0 6.3877e-05
15590.0 6.3699e-05
15610.0 6.3518e-05
15630.0 6.3348e-05
15650.0 6.3176e-05
15670.0 6.2999e-05
15690.0 6.2825e-05
15710.0 6.2658e-05
15730.0 6.2483e-05
15750.0 6.2307e-05
15770.0 6.2138e-05
15790.0 6.1967e-05
15810.0 6.1787e-05
15830.0 6.1615e-05
15850.0 6.1448e-05
15870.0 6.1273e-05
15890.0 6.1098e-05
15910.0 6.0931e-05
15930.0 6.0759e-05
15950.0 6.058e-05
15970.0 6.0408e-05
15990.0 6.0239e-05
16010.0 6.0062e-05
16030.0 5.9883e-05
16050.0 5.9715e-05
16070.0 5.9542e-05
16090.0 5.9364e-05
16110.0 5.9191e-05
16130.0 5.9021e-05
16150.0 5.8838e-05
16170.0 5.8659e-05
16190.0 5.8487e-05
16210.0 5.831e-05
16230.0 5.8127e-05
16250.0 5.7951e-05
16270.0 5.7778e-05
16290.0 5.7595e-05
16310.0 5.7414e-05
16330.0 5.7238e-05
16350.0 5.7057e-05
16370.0 5.6866e-05
16390.0 5.6688e-05
16410.0 5.6509e-05
16430.0 5.6322e-05
16450.0 5.6137e-05
16470.0 5.5959e-05
16490.0 5.5771e-05
16510.0 5.5581e-05
16530.0 5.5396e-05
16550.0 5.5212e-05
16570.0 5.5018e-05
16590.0 5.4826e-05
16610.0 5.4643e-05
16630.0 5.4452e-05
16650.0 5.4257e-05
16670.0 5.4069e-05
16690.0 5.388e-05
16710.0 5.3679e-05
16730.0 5.3484e-05
16750.0 5.3293e-05
16770.0 5.3096e-05
16790.0 5.2894e-05
16810.0 5.2702e-05
16830.0 5.2507e-05
16850.0 5.2304e-05
16870.0 5.2104e-05
16890.0 5.1909e-05
16910.0 5.1704e-05
16930.0 5.1496e-05
16950.0 5.1298e-05
16970.0 5.1096e-05
16990.0 5.0888e-05
17010.0 5.0684e-05
17030.0 5.0484e-05
17050.0 5.0274e-05
17070.0 5.0064e-05
17090.0 4.9859e-05
17110.0 4.9652e-05
17130.0 4.9435e-05
17150.0 4.9226e-05
17170.0 4.902e-05
17190.0 4.8806e-05
17210.0 4.8592e-05
17230.0 4.8384e-05
17250.0 4.8171e-05
17270.0 4.7951e-05
17290.0 4.7737e-05
17310.0 4.7525e-05
17330.0 4.7305e-05
17350.0 4.7084e-05
17370.0 4.6873e-05
17390.0 4.6655e-05
17410.0 4.6433e-05
17430.0 4.6215e-05
17450.0 4.6001e-05
17470.0 4.5773e-05
17490.0 4.555e-05
17510.0 4.5333e-05
17530.0 4.5111e-05
17550.0 4.4883e-05
17570.0 4.4663e-05
17590.0 4.4444e-05
17610.0 4.4216e-05
17630.0 4.399e-05
17650.0 4.377e-05
17670.0 4.3544e-05
17690.0 4.3309e-05
17710.0 4.3088e-05
17730.0 4.2864e-05
17750.0 4.2634e-05
17770.0 4.2406e-05
17790.0 4.2185e-05
17810.0 4.1954e-05
17830.0 4.1722e-05
17850.0 4.1496e-05
17870.0 4.1269e-05
17890.0 4.1035e-05
17910.0 4.0803e-05
17930.0 4.058e-05
17950.0 4.0349e-05
17970.0 4.0116e-05
17990.0 3.9889e-05
18010.0 3.9662e-05
18030.0 3.9424e-05
18050.0 3.9193e-05
18070.0 3.8966e-05
18090.0 3.8733e-05
18110.0 3.8498e-05
18130.0 3.8271e-05
18150.0 3.8042e-05
18170.0 3.7807e-05
18190.0 3.7576e-05
18210.0 3.7349e-05
18230.0 3.7114e-05
18250.0 3.6877e-05
18270.0 3.665e-05
18290.0 3.642e-05
18310.0 3.6184e-05
18330.0 3.5954e-05
18350.0 3.5728e-05
18370.0 3.5493e-05
18390.0 3.5259e-05
18410.0 3.5032e-05
18430.0 3.4802e-05
18450.0 3.4564e-05
18470.0 3.4335e-05
18490.0 3.4109e-05
18510.0 3.3876e-05
18530.0 3.3644e-05
18550.0 3.3419e-05
18570.0 3.3189e-05
18590.0 3.2954e-05
18610.0 3.2726e-05
18630.0 3.25e-05
18650.0 3.2267e-05
18670.0 3.2035e-05
18690.0 3.1813e-05
18710.0 3.1585e-05
18730.0 3.1353e-05
18750.0 3.1128e-05
18770.0 3.0905e-05
18790.0 3.0671e-05
18810.0 3.0443e-05
18830.0 3.0221e-05
18850.0 2.9995e-05
18870.0 2.9765e-05
18890.0 2.9543e-05
18910.0 2.9322e-05
18930.0 2.9093e-05
18950.0 2.8868e-05
18970.0 2.8649e-05
18990.0 2.8425e-05
19010.0 2.8193e-05
19030.0 2.7976e-05
19050.0 2.7756e-05
19070.0 2.7531e-05
19090.0 2.731e-05
19110.0 2.7096e-05
19130.0 2.6872e-05
19150.0 2.6648e-05
19170.0 2.6432e-05
19190.0 2.6215e-05
19210.0 2.5991e-05
19230.0 2.5772e-05
19250.0 2.556e-05
19270.0 2.5342e-05
19290.0 2.5123e-05
19310.0 2.4911e-05
19330.0 2.4698e-05
19350.0 2.4476e-05
19370.0 2.4262e-05
19390.0 2.4052e-05
19410.0 2.3836e-05
19430.0 2.3619e-05
19450.0 2.3412e-05
19470.0 2.3202e-05
19490.0 2.2987e-05
19510.0 2.2777e-05
19530.0 2.2571e-05
19550.0 2.2357e-05
19570.0 2.2143e-05
19590.0 2.1939e-05
19610.0 2.1732e-05
19630.0 2.1521e-05
19650.0 2.1316e-05
19670.0 2.1114e-05
19690.0 2.0905e-05
19710.0 2.0697e-05
19730.0 2.0496e-05
19750.0 2.0292e-05
19770.0 2.0082e-05
19790.0 1.9881e-05
19810.0 1.9682e-05
19830.0 1.9477e-05
19850.0 1.9273e-05
19870.0 1.9074e-05
19890.0 1.8865e-05
19910.0 1.8644e-05
19930.0 1.8419e-05
19950.0 1.8178e-05
19970.0 1.7903e-05
19990.0 1.7598e-05
20010.0 1.7308e-05
20030.0 1.6943e-05
20050.0 1.6544e-05
20070.0 1.6139e-05
20090.0 1.5729e-05
20110.0 1.5296e-05
20130.0 1.4887e-05
20150.0 1.4507e-05
20170.0 1.4139e-05
20190.0 1.3791e-05
20210.0 1.3484e-05
20230.0 1.3205e-05
20250.0 1.2944e-05
20270.0 1.2719e-05
20290.0 1.2528e-05
20310.0 1.2361e-05
20330.0 1.2221e-05
20350.0 1.2118e-05
20370.0 1.204e-05
20390.0 1.1989e-05
20410.0 1.1967e-05
20430.0 1.1969e-05
20450.0 1.1999e-05
20470.0 1.2056e-05
20490.0 1.2133e-05
20510.0 1.2234e-05
20530.0 1.2362e-05
20550.0 1.2506e-05
20570.0 1.2662e-05
20590.0 1.284e-05
20610.0 1.3032e-05
20630.0 1.3227e-05
20650.0 1.343e-05
20670.0 1.3649e-05
20690.0 1.3859e-05
20710.0 1.4065e-05
20730.0 1.4273e-05
20750.0 1.4478e-05
20770.0 1.4667e-05
20790.0 1.4854e-05
20810.0 1.5042e-05
20830.0 1.5219e-05
20850.0 1.539e-05
20870.0 1.5569e-05
20890.0 1.5749e-05
20910.0 1.5922e-05
20930.0 1.6102e-05
20950.0 1.6292e-05
20970.0 1.6479e-05
20990.0 1.6666e-05
21010.0 1.6865e-05
21030.0 1.706e-05
21050.0 1.7245e-05
21070.0 1.7428e-05
21090.0 1.7605e-05
21110.0 1.776e-05
21130.0 1.7898e-05
21150.0 1.8022e-05
21170.0 1.8123e-05
21190.0 1.8199e-05
21210.0 1.8255e-05
21230.0 1.8286e-05
21250.0 1.8291e-05
21270.0 1.8272e-05
21290.0 1.8228e-05
21310.0 1.8161e-05
21330.0 1.8075e-05
21350.0 1.7965e-05
21370.0 1.7832e-05
21390.0 1.7685e-05
21410.0 1.7523e-05
21430.0 1.7335e-05
21450.0 1.7138e-05
21470.0 1.6937e-05
21490.0 1.6721e-05
21510.0 1.6496e-05
21530.0 1.6276e-05
21550.0 1.6055e-05
21570.0 1.5828e-05
21590.0 1.5612e-05
21610.0 1.541e-05
21630.0 1.5215e-05
21650.0 1.503e-05
21670.0 1.4875e-05
21690.0 1.4738e-05
21710.0 1.4621e-05
21730.0 1.4532e-05
21750.0 1.4471e-05
21770.0 1.4434e-05
21790.0 1.4428e-05
21810.0 1.445e-05
21830.0 1.45e-05
21850.0 1.4582e-05
21870.0 1.4688e-05
21890.0 1.4815e-05
21910.0 1.4972e-05
21930.0 1.5151e-05
21950.0 1.5344e-05
21970.0 1.5557e-05
21990.0 1.5797e-05
22010.0 1.6039e-05
22030.0 1.6287e-05
22050.0 1.6551e-05
22070.0 1.6821e-05
22090.0 1.708e-05
22110.0 1.7344e-05
22130.0 1.761e-05
22150.0 1.786e-05
22170.0 1.8097e-05
22190.0 1.8329e-05
22210.0 1.8542e-05
22230.0 1.8724e-05
22250.0 1.8888e-05
22270.0 1.9028e-05
22290.0 1.9134e-05
22310.0 1.9209e-05
22330.0 1.9254e-05
22350.0 1.9262e-05
22370.0 1.9234e-05
22390.0 1.9169e-05
22410.0 1.9062e-05
22430.0 1.8923e-05
22450.0 1.8751e-05
22470.0 1.8538e-05
22490.0 1.8292e-05
22510.0 1.8026e-05
22530.0 1.7719e-05
22550.0 1.7379e-05
22570.0 1.7029e-05
22590.0 1.666e-05
22610.0 1.626e-05
22630.0 1.5851e-05
22650.0 1.5448e-05
