#lamb flux
1010.0 9.3491e-06
1030.0 9.9204e-06
1050.0 1.0578e-05
1070.0 1.1318e-05
1090.0 1.2158e-05
1110.0 1.3021e-05
1130.0 1.3889e-05
1150.0 1.4798e-05
1170.0 1.5736e-05
1190.0 1.6626e-05
1210.0 1.7528e-05
1230.0 1.8461e-05
1250.0 1.9375e-05
1270.0 2.0262e-05
1290.0 2.1201e-05
1310.0 2.2139e-05
1330.0 2.3039e-05
1350.0 2.3949e-05
1370.0 2.4889e-05
1390.0 2.5807e-05
1410.0 2.6697e-05
1430.0 2.7628e-05
1450.0 2.856e-05
1470.0 2.9461e-05
1490.0 3.0372e-05
1510.0 3.1335e-05
1530.0 3.2248e-05
1550.0 3.3149e-05
1570.0 3.4082e-05
1590.0 3.5016e-05
1610.0 3.591e-05
1630.0 3.6832e-05
1650.0 3.7778e-05
1670.0 3.8694e-05
1690.0 3.96e-05
1710.0 4.0541e-05
1730.0 4.1488e-05
1750.0 4.238e-05
1770.0 4.3299e-05
1790.0 4.4238e-05
1810.0 4.5148e-05
1830.0 4.6043e-05
1850.0 4.6995e-05
1870.0 4.7924e-05
1890.0 4.8824e-05
1910.0 4.9744e-05
1930.0 5.0688e-05
1950.0 5.1592e-05
1970.0 5.2489e-05
1990.0 5.3422e-05
2010.0 5.4343e-05
2030.0 5.5236e-05
2050.0 5.6159e-05
2070.0 5.711e-05
2090.0 5.8012e-05
2110.0 5.8916e-05
2130.0 5.9853e-05
2150.0 6.0778e-05
2170.0 6.1671e-05
2190.0 6.2602e-05
2210.0 6.3546e-05
2230.0 6.4461e-05
2250.0 6.538e-05
2270.0 6.6345e-05
2290.0 6.729e-05
2310.0 6.8207e-05
2330.0 6.916e-05
2350.0 7.0129e-05
2370.0 7.1069e-05
2390.0 7.2027e-05
2410.0 7.3035e-05
2430.0 7.4013e-05
2450.0 7.4958e-05
2470.0 7.5887e-05
2490.0 7.6753e-05
2510.0 7.7497e-05
2530.0 7.8229e-05
2550.0 7.9141e-05
2570.0 8.0535e-05
2590.0 8.2827e-05
2610.0 8.6893e-05
2630.0 9.3252e-05
2650.0 0.00010184
2670.0 0.00011295
2690.0 0.0001265
2710.0 0.0001409
2730.0 0.00015528
2750.0 0.00016988
2770.0 0.0001835
2790.0 0.00019566
2810.0 0.0002071
2830.0 0.00021848
2850.0 0.00022898
2870.0 0.00023936
2890.0 0.0002502
2910.0 0.00026117
2930.0 0.00027182
2950.0 0.00028294
2970.0 0.0002944
2990.0 0.00030554
3010.0 0.0006559
3030.0 0.00067988
3050.0 0.0007041
3070.0 0.00072729
3090.0 0.00075161
3110.0 0.00077691
3130.0 0.00080189
3150.0 0.00082666
3170.0 0.00085198
3190.0 0.00087388
3210.0 0.00089087
3230.0 0.0009042
3250.0 0.00079687
3270.0 0.00069028
3290.0 0.00052718
3310.0 0.00059075
3330.0 0.00063623
3350.0 0.0006795
3370.0 0.00072243
3390.0 0.00076539
3410.0 0.00080838
3430.0 0.00085127
3450.0 0.00089427
3470.0 0.00093711
3490.0 0.00097337
3510.0 0.00098558
3530.0 0.0010313
3550.0 0.00126
3570.0 0.0015973
3590.0 0.0018074
3610.0 0.0020573
3630.0 0.0019164
3650.0 0.001753
3670.0 0.0016895
3690.0 0.0020082
3710.0 0.0025484
3730.0 0.0027395
3750.0 0.002844
3770.0 0.0028721
3790.0 0.0028245
3810.0 0.0025636
3830.0 0.0019854
3850.0 0.0015856
3870.0 0.0015446
3890.0 0.002108
3910.0 0.0028662
3930.0 0.0033606
3950.0 0.003546
3970.0 0.0035278
3990.0 0.0040258
4010.0 0.0045002
4030.0 0.0042095
4050.0 0.0036825
4070.0 0.0031154
4090.0 0.0030969
4110.0 0.0035086
4130.0 0.0035608
4150.0 0.0035896
4170.0 0.0033821
4190.0 0.0032248
4210.0 0.0032646
4230.0 0.0037522
4250.0 0.0037889
4270.0 0.003764
4290.0 0.0037283
4310.0 0.0037313
4330.0 0.0041227
4350.0 0.004748
4370.0 0.004825
4390.0 0.0041755
4410.0 0.0034492
4430.0 0.0029572
4450.0 0.0025444
4470.0 0.0024652
4490.0 0.0029473
4510.0 0.0033066
4530.0 0.003625
4550.0 0.0038964
4570.0 0.0046033
4590.0 0.0065639
4610.0 0.0087928
4630.0 0.0091076
4650.0 0.008646
4670.0 0.0091888
4690.0 0.01008
4710.0 0.0089129
4730.0 0.0065632
4750.0 0.0049946
4770.0 0.0045471
4790.0 0.0045644
4810.0 0.0042788
4830.0 0.0046683
4850.0 0.0059269
4870.0 0.0073616
4890.0 0.0065794
4910.0 0.0057833
4930.0 0.0064162
4950.0 0.0084295
4970.0 0.010937
4990.0 0.011272
5010.0 0.0097113
5030.0 0.0072868
5050.0 0.0052248
5070.0 0.0043935
5090.0 0.0041674
5110.0 0.0042286
5130.0 0.0043996
5150.0 0.0043413
5170.0 0.0044246
5190.0 0.0042841
5210.0 0.0044216
5230.0 0.0047196
5250.0 0.0051909
5270.0 0.0063824
5290.0 0.0072694
5310.0 0.0072894
5330.0 0.0075718
5350.0 0.008524
5370.0 0.0090428
5390.0 0.0083684
5410.0 0.0071474
5430.0 0.0067807
5450.0 0.0078067
5470.0 0.010046
5490.0 0.012436
5510.0 0.01364
5530.0 0.013887
5550.0 0.0132
5570.0 0.012257
5590.0 0.01181
5610.0 0.011914
5630.0 0.012152
5650.0 0.012133
5670.0 0.01191
5690.0 0.011536
5710.0 0.010315
5730.0 0.0085959
5750.0 0.0071854
5770.0 0.0071984
5790.0 0.0078767
5810.0 0.0084368
5830.0 0.0086762
5850.0 0.0086298
5870.0 0.0079405
5890.0 0.0069182
5910.0 0.0067373
5930.0 0.0072716
5950.0 0.0074749
5970.0 0.0068153
5990.0 0.005837
6010.0 0.0048019
6030.0 0.0040326
6050.0 0.0039712
6070.0 0.004514
6090.0 0.0047525
6110.0 0.0043456
6130.0 0.0040221
6150.0 0.0042727
6170.0 0.0051158
6190.0 0.0061036
6210.0 0.0066368
6230.0 0.0064073
6250.0 0.0058728
6270.0 0.0050821
6290.0 0.0042131
6310.0 0.0034872
6330.0 0.0031499
6350.0 0.0032807
6370.0 0.0035566
6390.0 0.0038495
6410.0 0.0043801
6430.0 0.0053929
6450.0 0.0067917
6470.0 0.0077312
6490.0 0.0077509
6510.0 0.0075677
6530.0 0.0077112
6550.0 0.0078833
6570.0 0.0079529
6590.0 0.0079533
6610.0 0.0077372
6630.0 0.0077481
6650.0 0.0077743
6670.0 0.0074751
6690.0 0.006703
6710.0 0.0056663
6730.0 0.0054254
6750.0 0.0058306
6770.0 0.0063399
6790.0 0.0065355
6810.0 0.0064619
6830.0 0.0063735
6850.0 0.0062346
6870.0 0.0058786
6890.0 0.0055393
6910.0 0.005294
6930.0 0.0051027
6950.0 0.0054164
6970.0 0.0058953
6990.0 0.0062179
7010.0 0.0062905
7030.0 0.005945
7050.0 0.005161
7070.0 0.0041841
7090.0 0.0035548
7110.0 0.003429
7130.0 0.0036169
7150.0 0.0036617
7170.0 0.003368
7190.0 0.0033021
7210.0 0.003638
7230.0 0.0041779
7250.0 0.0047751
7270.0 0.0050285
7290.0 0.0047346
7310.0 0.004201
7330.0 0.0038447
7350.0 0.0037633
7370.0 0.0038617
7390.0 0.0040357
7410.0 0.0043242
7430.0 0.0049153
7450.0 0.005714
7470.0 0.0065239
7490.0 0.0069011
7510.0 0.0066965
7530.0 0.0058099
7550.0 0.0047446
7570.0 0.0039552
7590.0 0.0034941
7610.0 0.003603
7630.0 0.0041721
7650.0 0.0048078
7670.0 0.0054514
7690.0 0.0060017
7710.0 0.006406
7730.0 0.006749
7750.0 0.0070725
7770.0 0.0073613
7790.0 0.0074032
7810.0 0.0074961
7830.0 0.0077462
7850.0 0.0077736
7870.0 0.0075802
7890.0 0.0070525
7910.0 0.0066366
7930.0 0.0063371
7950.0 0.0063424
7970.0 0.0063115
7990.0 0.0063839
8010.0 0.0063716
8030.0 0.0064076
8050.0 0.0065894
8070.0 0.0065047
8090.0 0.0065165
8110.0 0.0062754
8130.0 0.0062484
8150.0 0.0060872
8170.0 0.0059271
8190.0 0.005856
8210.0 0.0059089
8230.0 0.0055559
8250.0 0.005218
8270.0 0.0045668
8290.0 0.00369
8310.0 0.0028677
8330.0 0.0022071
8350.0 0.0019516
8370.0 0.0022012
8390.0 0.0025489
8410.0 0.0028209
8430.0 0.003138
8450.0 0.0033137
8470.0 0.0034769
8490.0 0.0038732
8510.0 0.0043248
8530.0 0.0050348
8550.0 0.0059155
8570.0 0.0067131
8590.0 0.0073577
8610.0 0.0079099
8630.0 0.0083099
8650.0 0.0083861
8670.0 0.00842
8690.0 0.0087138
8710.0 0.0088924
8730.0 0.0090856
8750.0 0.0089151
8770.0 0.0089577
8790.0 0.0088465
8810.0 0.0082501
8830.0 0.0080404
8850.0 0.0075959
8870.0 0.0072658
8890.0 0.0069499
8910.0 0.0071362
8930.0 0.0067238
8950.0 0.0064838
8970.0 0.0063979
8990.0 0.0062578
9010.0 0.0061498
9030.0 0.0059877
9050.0 0.0059514
9070.0 0.005935
9090.0 0.0059189
9110.0 0.0059037
9130.0 0.0058869
9150.0 0.0058694
9170.0 0.0058444
9190.0 0.0058105
9210.0 0.0058394
9230.0 0.0058093
9250.0 0.0057851
9270.0 0.0057623
9290.0 0.0057405
9310.0 0.0057193
9330.0 0.0056982
9350.0 0.0056773
9370.0 0.0056563
9390.0 0.005635
9410.0 0.0056136
9430.0 0.0055917
9450.0 0.0055675
9470.0 0.0055438
9490.0 0.0055237
9510.0 0.0055022
9530.0 0.0054804
9550.0 0.0054581
9570.0 0.0054355
9590.0 0.0054127
9610.0 0.0053898
9630.0 0.0053667
9650.0 0.0053436
9670.0 0.0053204
9690.0 0.0052971
9710.0 0.0052738
9730.0 0.0052504
9750.0 0.005227
9770.0 0.0052036
9790.0 0.0051802
9810.0 0.0051567
9830.0 0.0051332
9850.0 0.0051099
9870.0 0.0050864
9890.0 0.0050629
9910.0 0.0050395
9930.0 0.0050157
9950.0 0.0049607
9970.0 0.0049467
9990.0 0.0049309
10010.0 0.0049143
10030.0 0.0048951
10050.0 0.0048734
10070.0 0.0048502
10090.0 0.0048293
10110.0 0.0048063
10130.0 0.0047845
10150.0 0.0047623
10170.0 0.0047391
10190.0 0.0047149
10210.0 0.0046923
10230.0 0.0046702
10250.0 0.0046468
10270.0 0.0046238
10290.0 0.004602
10310.0 0.0045791
10330.0 0.0045552
10350.0 0.0045329
10370.0 0.0045107
10390.0 0.0044874
10410.0 0.0044643
10430.0 0.0044427
10450.0 0.0044199
10470.0 0.0043966
10490.0 0.0043743
10510.0 0.0043522
10530.0 0.0043282
10550.0 0.0043051
10570.0 0.0042831
10590.0 0.0042601
10610.0 0.0042365
10630.0 0.0042142
10650.0 0.0041918
10670.0 0.0041677
10690.0 0.0041445
10710.0 0.004122
10730.0 0.0040983
10750.0 0.0040736
10770.0 0.004051
10790.0 0.0040279
10810.0 0.0040035
10830.0 0.0039797
10850.0 0.0039568
10870.0 0.0039314
10890.0 0.0039053
10910.0 0.0038796
10930.0 0.0038517
10950.0 0.0038196
10970.0 0.0037849
10990.0 0.0037478
11010.0 0.0033824
11030.0 0.0033375
11050.0 0.0032941
11070.0 0.0032498
11090.0 0.003202
11110.0 0.0031577
11130.0 0.0031148
11150.0 0.0030703
11170.0 0.0030262
11190.0 0.002985
11210.0 0.0029427
11230.0 0.002899
11250.0 0.0028574
11270.0 0.0028172
11290.0 0.0027752
11310.0 0.002734
11330.0 0.002697
11350.0 0.0026599
11370.0 0.0026231
11390.0 0.0025892
11410.0 0.0025573
11430.0 0.002524
11450.0 0.0024924
11470.0 0.0024626
11490.0 0.002432
11510.0 0.0023996
11530.0 0.0023683
11550.0 0.0023364
11570.0 0.0023011
11590.0 0.0022646
11610.0 0.0022279
11630.0 0.0021875
11650.0 0.0021438
11670.0 0.0021011
11690.0 0.0020571
11710.0 0.0020102
11730.0 0.0019634
11750.0 0.001919
11770.0 0.0018729
11790.0 0.0018271
11810.0 0.0017844
11830.0 0.0017435
11850.0 0.0017019
11870.0 0.0016642
11890.0 0.0016301
11910.0 0.0015969
11930.0 0.0015654
11950.0 0.0015376
11970.0 0.0015112
11990.0 0.0014853
12010.0 0.0014619
12030.0 0.0014406
12050.0 0.0014198
12070.0 0.0013997
12090.0 0.0013826
12110.0 0.0013663
12130.0 0.0013507
12150.0 0.0013371
12170.0 0.0013255
12190.0 0.0013146
12210.0 0.001306
12230.0 0.0013001
12250.0 0.0012966
12270.0 0.0012956
12290.0 0.001298
12310.0 0.0013036
12330.0 0.0013126
12350.0 0.0013253
12370.0 0.0013412
12390.0 0.0013606
12410.0 0.0013841
12430.0 0.0014096
12450.0 0.0014372
12470.0 0.0014674
12490.0 0.0014988
12510.0 0.0015298
12530.0 0.0015615
12550.0 0.0015932
12570.0 0.001623
12590.0 0.0016508
12610.0 0.0016774
12630.0 0.0017013
12650.0 0.0017216
12670.0 0.0017394
12690.0 0.0017541
12710.0 0.0017655
12730.0 0.0017738
12750.0 0.001779
12770.0 0.0017811
12790.0 0.0017806
12810.0 0.0017774
12830.0 0.0017713
12850.0 0.0017636
12870.0 0.0017541
12890.0 0.0017424
12910.0 0.0017293
12930.0 0.0017156
12950.0 0.0017001
12970.0 0.0016832
12990.0 0.0016664
13010.0 0.0016488
13030.0 0.0016297
13050.0 0.0016103
13070.0 0.0015911
13090.0 0.0015704
13110.0 0.001549
13130.0 0.0015281
13150.0 0.0015071
13170.0 0.0014852
13190.0 0.0014647
13210.0 0.001446
13230.0 0.0014281
13250.0 0.001412
13270.0 0.0013989
13290.0 0.0013883
13310.0 0.0013804
13330.0 0.0013759
13350.0 0.0013746
13370.0 0.0013761
13390.0 0.0013803
13410.0 0.0013862
13430.0 0.0013934
13450.0 0.0014011
13470.0 0.0014082
13490.0 0.001414
13510.0 0.0014179
13530.0 0.0014189
13550.0 0.0014168
13570.0 0.0014112
13590.0 0.0014017
13610.0 0.0013891
13630.0 0.001374
13650.0 0.0013556
13670.0 0.0013352
13690.0 0.0013141
13710.0 0.0012919
13730.0 0.0012684
13750.0 0.0012466
13770.0 0.0012256
13790.0 0.0012051
13810.0 0.001186
13830.0 0.0011691
13850.0 0.0011531
13870.0 0.0011384
13890.0 0.0011255
13910.0 0.0011141
13930.0 0.0011034
13950.0 0.001094
13970.0 0.0010859
13990.0 0.0010784
14010.0 0.0010716
14030.0 0.0010657
14050.0 0.0010603
14070.0 0.0010552
14090.0 0.0010506
14110.0 0.0010464
14130.0 0.0010424
14150.0 0.0010385
14170.0 0.0010348
14190.0 0.0010312
14210.0 0.0010276
14230.0 0.0010242
14250.0 0.0010209
14270.0 0.0010177
14290.0 0.0010147
14310.0 0.0010121
14330.0 0.0010097
14350.0 0.0010078
14370.0 0.0010062
14390.0 0.0010049
14410.0 0.001004
14430.0 0.0010032
14450.0 0.0010025
14470.0 0.0010018
14490.0 0.0010011
14510.0 0.0010001
14530.0 0.00099894
14550.0 0.00099757
14570.0 0.00099604
14590.0 0.0009944
14610.0 0.00099282
14630.0 0.00099151
14650.0 0.00099058
14670.0 0.00099021
14690.0 0.00099073
14710.0 0.00099236
14730.0 0.00099491
14750.0 0.00099885
14770.0 0.0010045
14790.0 0.0010115
14810.0 0.0010199
14830.0 0.0010308
14850.0 0.0010433
14870.0 0.0010568
14890.0 0.0010718
14910.0 0.0010883
14930.0 0.0011043
14950.0 0.0011193
14970.0 0.0011336
14990.0 0.0011452
15010.0 0.0011534
15030.0 0.0011588
15050.0 0.0011615
15070.0 0.0011612
15090.0 0.0011592
15110.0 0.0011559
15130.0 0.0011518
15150.0 0.0011473
15170.0 0.0011426
15190.0 0.0011377
15210.0 0.0011327
15230.0 0.0011278
15250.0 0.0011228
15270.0 0.0011178
15290.0 0.0011129
15310.0 0.0011079
15330.0 0.0011029
15350.0 0.0010979
15370.0 0.0010929
15390.0 0.0010879
15410.0 0.0010829
15430.0 0.001078
15450.0 0.001073
15470.0 0.001068
15490.0 0.001063
15510.0 0.001058
15530.0 0.001053
15550.0 0.0010481
15570.0 0.0010432
15590.0 0.0010382
15610.0 0.0010332
15630.0 0.0010283
15650.0 0.0010234
15670.0 0.0010185
15690.0 0.0010136
15710.0 0.0010087
15730.0 0.0010038
15750.0 0.00099891
15770.0 0.00099408
15790.0 0.00098924
15810.0 0.00098438
15830.0 0.00097957
15850.0 0.0009748
15870.0 0.00097
15890.0 0.00096523
15910.0 0.0009605
15930.0 0.00095577
15950.0 0.00095103
15970.0 0.00094634
15990.0 0.00094168
16010.0 0.000937
16030.0 0.00093233
16050.0 0.00092774
16070.0 0.00092314
16090.0 0.00091854
16110.0 0.00091399
16130.0 0.00090947
16150.0 0.00090492
16170.0 0.00090041
16190.0 0.00089595
16210.0 0.0008915
16230.0 0.00088704
16250.0 0.00088264
16270.0 0.00087828
16290.0 0.00087389
16310.0 0.00086954
16330.0 0.00086524
16350.0 0.00086095
16370.0 0.00085664
16390.0 0.00085241
16410.0 0.0008482
16430.0 0.00084398
16450.0 0.0008398
16470.0 0.00083568
16490.0 0.00083154
16510.0 0.00082742
16530.0 0.00082335
16550.0 0.00081931
16570.0 0.00081526
16590.0 0.00081125
16610.0 0.0008073
16630.0 0.00080335
16650.0 0.00079941
16670.0 0.00079552
16690.0 0.00079166
16710.0 0.00078778
16730.0 0.00078395
16750.0 0.00078017
16770.0 0.00077639
16790.0 0.00077262
16810.0 0.00076892
16830.0 0.00076524
16850.0 0.00076155
16870.0 0.00075791
16890.0 0.00075431
16910.0 0.0007507
16930.0 0.00074711
16950.0 0.00074358
16970.0 0.00074007
16990.0 0.00073657
17010.0 0.0007331
17030.0 0.00072968
17050.0 0.00072626
17070.0 0.00072286
17090.0 0.0007195
17110.0 0.00071617
17130.0 0.00071283
17150.0 0.00070954
17170.0 0.0007063
17190.0 0.00070305
17210.0 0.00069983
17230.0 0.00069666
17250.0 0.00069349
17270.0 0.00069033
17290.0 0.00068722
17310.0 0.00068414
17330.0 0.00068106
17350.0 0.000678
17370.0 0.00067501
17390.0 0.00067201
17410.0 0.00066903
17430.0 0.00066609
17450.0 0.00066318
17470.0 0.00066026
17490.0 0.00065737
17510.0 0.00065454
17530.0 0.00065171
17550.0 0.00064888
17570.0 0.00064611
17590.0 0.00064336
17610.0 0.00064061
17630.0 0.00063789
17650.0 0.00063521
17670.0 0.00063254
17690.0 0.00062986
17710.0 0.00062725
17730.0 0.00062465
17750.0 0.00062206
17770.0 0.00061949
17790.0 0.00061697
17810.0 0.00061444
17830.0 0.00061193
17850.0 0.00060946
17870.0 0.00060702
17890.0 0.00060456
17910.0 0.00060214
17930.0 0.00059977
17950.0 0.00059739
17970.0 0.00059503
17990.0 0.00059271
18010.0 0.0005904
18030.0 0.00058809
18050.0 0.00058581
18070.0 0.00058357
18090.0 0.00058133
18110.0 0.0005791
18130.0 0.00057692
18150.0 0.00057475
18170.0 0.00057257
18190.0 0.00057043
18210.0 0.00056833
18230.0 0.00056621
18250.0 0.00056411
18270.0 0.00056205
18290.0 0.00056001
18310.0 0.00055796
18330.0 0.00055595
18350.0 0.00055397
18370.0 0.00055198
18390.0 0.00055001
18410.0 0.00054808
18430.0 0.00054615
18450.0 0.00054422
18470.0 0.00054233
18490.0 0.00054046
18510.0 0.00053859
18530.0 0.00053674
18550.0 0.00053493
18570.0 0.00053311
18590.0 0.0005313
18610.0 0.00052952
18630.0 0.00052776
18650.0 0.000526
18670.0 0.00052425
18690.0 0.00052254
18710.0 0.00052084
18730.0 0.00051914
18750.0 0.00051747
18770.0 0.00051582
18790.0 0.00051415
18810.0 0.00051251
18830.0 0.0005109
18850.0 0.00050929
18870.0 0.00050769
18890.0 0.00050612
18910.0 0.00050456
18930.0 0.000503
18950.0 0.00050146
18970.0 0.00049995
18990.0 0.00049843
19010.0 0.00049691
19030.0 0.00049544
19050.0 0.00049397
19070.0 0.0004925
19090.0 0.00049105
19110.0 0.00048964
19130.0 0.0004882
19150.0 0.00048678
19170.0 0.00048539
19190.0 0.00048401
19210.0 0.00048261
19230.0 0.00048125
19250.0 0.00047991
19270.0 0.00047857
19290.0 0.00047723
19310.0 0.00047592
19330.0 0.00047462
19350.0 0.0004733
19370.0 0.00047202
19390.0 0.00047075
19410.0 0.00046948
19430.0 0.00046822
19450.0 0.00046699
19470.0 0.00046576
19490.0 0.00046452
19510.0 0.00046331
19530.0 0.00046212
19550.0 0.00046092
19570.0 0.00045972
19590.0 0.00045856
19610.0 0.0004574
19630.0 0.00045623
19650.0 0.00045509
19670.0 0.00045397
19690.0 0.00045283
19710.0 0.00045171
19730.0 0.00045061
19750.0 0.00044951
19770.0 0.0004484
19790.0 0.00044732
19810.0 0.00044626
19830.0 0.00044517
19850.0 0.00044408
19870.0 0.00044298
19890.0 0.00044179
19910.0 0.00044044
19930.0 0.00043887
19950.0 0.00043696
19970.0 0.00043446
19990.0 0.00043128
20010.0 0.00042752
20030.0 0.00042288
20050.0 0.0004174
20070.0 0.00041143
20090.0 0.00040503
20110.0 0.00039788
20130.0 0.00039071
20150.0 0.00038367
20170.0 0.00037647
20190.0 0.00036923
20210.0 0.00036242
20230.0 0.00035579
20250.0 0.00034914
20270.0 0.00034292
20290.0 0.00033716
20310.0 0.0003316
20330.0 0.00032627
20350.0 0.00032168
20370.0 0.00031745
20390.0 0.00031353
20410.0 0.00031014
20430.0 0.00030727
20450.0 0.00030472
20470.0 0.00030263
20490.0 0.00030103
20510.0 0.00029983
20530.0 0.00029899
20550.0 0.00029855
20570.0 0.00029843
20590.0 0.00029861
20610.0 0.00029906
20630.0 0.0002997
20650.0 0.00030054
20670.0 0.00030157
20690.0 0.00030265
20710.0 0.00030377
20730.0 0.00030494
20750.0 0.00030609
20770.0 0.00030712
20790.0 0.00030809
20810.0 0.00030896
20830.0 0.00030965
20850.0 0.00031016
20870.0 0.0003105
20890.0 0.00031062
20910.0 0.00031051
20930.0 0.00031019
20950.0 0.00030963
20970.0 0.00030886
20990.0 0.00030789
21010.0 0.00030668
21030.0 0.00030528
21050.0 0.00030376
21070.0 0.00030206
21090.0 0.00030016
21110.0 0.00029825
21130.0 0.00029629
21150.0 0.00029421
21170.0 0.00029212
21190.0 0.00029012
21210.0 0.00028807
21230.0 0.00028605
21250.0 0.00028419
21270.0 0.00028244
21290.0 0.00028076
21310.0 0.00027925
21330.0 0.00027795
21350.0 0.00027678
21370.0 0.00027579
21390.0 0.00027501
21410.0 0.00027442
21430.0 0.000274
21450.0 0.0002738
21470.0 0.00027378
21490.0 0.00027395
21510.0 0.00027432
21530.0 0.00027483
21550.0 0.0002755
21570.0 0.00027637
21590.0 0.00027737
21610.0 0.00027848
21630.0 0.00027975
21650.0 0.0002812
21670.0 0.00028265
21690.0 0.00028422
21710.0 0.00028594
21730.0 0.00028769
21750.0 0.00028944
21770.0 0.00029136
21790.0 0.0002933
21810.0 0.00029519
21830.0 0.00029711
21850.0 0.00029909
21870.0 0.00030099
21890.0 0.00030279
21910.0 0.00030463
21930.0 0.00030639
21950.0 0.00030801
21970.0 0.00030956
21990.0 0.00031107
22010.0 0.00031237
22030.0 0.00031352
22050.0 0.00031455
22070.0 0.0003154
22090.0 0.00031604
22110.0 0.00031651
22130.0 0.00031677
22150.0 0.00031681
22170.0 0.00031663
22190.0 0.0003162
22210.0 0.00031552
22230.0 0.00031464
22250.0 0.00031351
22270.0 0.0003121
22290.0 0.00031051
22310.0 0.00030872
22330.0 0.00030661
22350.0 0.00030432
22370.0 0.0003019
22390.0 0.00029924
22410.0 0.00029631
22430.0 0.00029337
22450.0 0.00029032
22470.0 0.00028703
22490.0 0.00028367
22510.0 0.00028036
22530.0 0.00027684
22550.0 0.00027322
22570.0 0.00026974
22590.0 0.00026627
22610.0 0.0002627
22630.0 0.00025923
22650.0 0.00025596
22670.0 0.00025265
22690.0 0.00024941
22710.0 0.00024639
22730.0 0.00024349
22750.0 0.00024056
22770.0 0.00023788
22790.0 0.00023541
22810.0 0.000233
22830.0 0.0002307
22850.0 0.00022864
22870.0 0.00022668
22890.0 0.00022476
22910.0 0.00022302
22930.0 0.00022142
22950.0 0.00021988
22970.0 0.0002184
22990.0 0.0002171
23010.0 0.00021585
23030.0 0.00021465
23050.0 0.00021354
23070.0 0.00021252
23090.0 0.00021149
23110.0 0.00021052
23130.0 0.00020962
23150.0 0.00020875
23170.0 0.00020787
23190.0 0.00020705
23210.0 0.00020627
23230.0 0.00020549
23250.0 0.00020474
23270.0 0.00020404
23290.0 0.00020338
