#lamb flux
1010.0 8.8554e-10
1030.0 9.7941e-10
1050.0 1.0874e-09
1070.0 1.2089e-09
1090.0 1.347e-09
1110.0 1.4886e-09
1130.0 1.6311e-09
1150.0 1.7804e-09
1170.0 1.9344e-09
1190.0 2.0804e-09
1210.0 2.2284e-09
1230.0 2.3813e-09
1250.0 2.5312e-09
1270.0 2.6767e-09
1290.0 2.8304e-09
1310.0 2.9841e-09
1330.0 3.1314e-09
1350.0 3.2804e-09
1370.0 3.4343e-09
1390.0 3.5843e-09
1410.0 3.7298e-09
1430.0 3.882e-09
1450.0 4.0341e-09
1470.0 4.1812e-09
1490.0 4.3298e-09
1510.0 4.4868e-09
1530.0 4.6356e-09
1550.0 4.7825e-09
1570.0 4.9344e-09
1590.0 5.0865e-09
1610.0 5.2319e-09
1630.0 5.3818e-09
1650.0 5.5357e-09
1670.0 5.6847e-09
1690.0 5.8319e-09
1710.0 5.9848e-09
1730.0 6.1387e-09
1750.0 6.2836e-09
1770.0 6.4329e-09
1790.0 6.5854e-09
1810.0 6.7332e-09
1830.0 6.8786e-09
1850.0 7.0332e-09
1870.0 7.184e-09
1890.0 7.33e-09
1910.0 7.4792e-09
1930.0 7.6323e-09
1950.0 7.7788e-09
1970.0 7.9238e-09
1990.0 8.0747e-09
2010.0 8.2234e-09
2030.0 8.3671e-09
2050.0 8.5156e-09
2070.0 8.6681e-09
2090.0 8.8123e-09
2110.0 8.9564e-09
2130.0 9.1051e-09
2150.0 9.2513e-09
2170.0 9.3914e-09
2190.0 9.5371e-09
2210.0 9.684e-09
2230.0 9.8252e-09
2250.0 9.9659e-09
2270.0 1.0113e-08
2290.0 1.0256e-08
2310.0 1.0393e-08
2330.0 1.0536e-08
2350.0 1.0683e-08
2370.0 1.0829e-08
2390.0 1.0987e-08
2410.0 1.1175e-08
2430.0 1.139e-08
2450.0 1.1648e-08
2470.0 1.1978e-08
2490.0 1.2395e-08
2510.0 1.2868e-08
2530.0 1.3437e-08
2550.0 1.415e-08
2570.0 1.5037e-08
2590.0 1.6191e-08
2610.0 1.7918e-08
2630.0 2.0384e-08
2650.0 2.3609e-08
2670.0 2.7778e-08
2690.0 3.2901e-08
2710.0 3.837e-08
2730.0 4.3774e-08
2750.0 4.9097e-08
2770.0 5.3726e-08
2790.0 5.7403e-08
2810.0 6.0321e-08
2830.0 6.26e-08
2850.0 6.4156e-08
2870.0 6.5298e-08
2890.0 6.6202e-08
2910.0 6.6924e-08
2930.0 6.7514e-08
2950.0 6.8077e-08
2970.0 6.8627e-08
2990.0 6.9143e-08
3010.0 1.9544e-06
3030.0 1.969e-06
3050.0 1.9831e-06
3070.0 1.9952e-06
3090.0 2.0056e-06
3110.0 2.012e-06
3130.0 2.0118e-06
3150.0 2.0028e-06
3170.0 1.9814e-06
3190.0 1.9477e-06
3210.0 1.905e-06
3230.0 1.8561e-06
3250.0 1.8078e-06
3270.0 1.7726e-06
3290.0 1.753e-06
3310.0 1.7561e-06
3330.0 1.7816e-06
3350.0 1.8258e-06
3370.0 1.889e-06
3390.0 1.9687e-06
3410.0 2.0553e-06
3430.0 2.1526e-06
3450.0 2.2646e-06
3470.0 2.387e-06
3490.0 2.5166e-06
3510.0 2.6632e-06
3530.0 2.8201e-06
3550.0 2.9789e-06
3570.0 3.1447e-06
3590.0 3.3249e-06
3610.0 3.5106e-06
3630.0 3.6958e-06
3650.0 3.8879e-06
3670.0 4.0632e-06
3690.0 4.1943e-06
3710.0 4.2695e-06
3730.0 4.2719e-06
3750.0 4.2125e-06
3770.0 4.1891e-06
3790.0 4.1642e-06
3810.0 4.0619e-06
3830.0 4.1876e-06
3850.0 4.6822e-06
3870.0 4.9538e-06
3890.0 4.9312e-06
3910.0 4.9522e-06
3930.0 5.0826e-06
3950.0 5.1628e-06
3970.0 4.7038e-06
3990.0 4.0474e-06
4010.0 1.2131e-05
4030.0 1.4698e-05
4050.0 1.685e-05
4070.0 1.462e-05
4090.0 1.3242e-05
4110.0 1.1685e-05
4130.0 1.0754e-05
4150.0 1.1439e-05
4170.0 1.1268e-05
4190.0 1.2011e-05
4210.0 1.1901e-05
4230.0 1.2588e-05
4250.0 1.4892e-05
4270.0 1.5068e-05
4290.0 1.3885e-05
4310.0 1.4427e-05
4330.0 1.5346e-05
4350.0 1.7207e-05
4370.0 1.9581e-05
4390.0 1.8375e-05
4410.0 1.3576e-05
4430.0 1.1493e-05
4450.0 1.0561e-05
4470.0 8.1058e-06
4490.0 8.7471e-06
4510.0 1.3213e-05
4530.0 1.5238e-05
4550.0 1.537e-05
4570.0 1.7296e-05
4590.0 1.9701e-05
4610.0 2.6572e-05
4630.0 3.4512e-05
4650.0 3.7428e-05
4670.0 3.4662e-05
4690.0 3.3073e-05
4710.0 3.4961e-05
4730.0 3.2993e-05
4750.0 2.4667e-05
4770.0 1.8094e-05
4790.0 1.6896e-05
4810.0 1.6105e-05
4830.0 1.4744e-05
4850.0 1.6179e-05
4870.0 2.1374e-05
4890.0 2.5206e-05
4910.0 2.2115e-05
4930.0 1.9568e-05
4950.0 2.1499e-05
4970.0 2.7571e-05
4990.0 3.7365e-05
5010.0 4.2984e-05
5030.0 3.7902e-05
5050.0 2.5643e-05
5070.0 1.69e-05
5090.0 1.3627e-05
5110.0 1.4014e-05
5130.0 1.6175e-05
5150.0 1.7524e-05
5170.0 1.7261e-05
5190.0 1.6129e-05
5210.0 1.6859e-05
5230.0 1.7722e-05
5250.0 1.91e-05
5270.0 2.0607e-05
5290.0 2.2837e-05
5310.0 2.6582e-05
5330.0 2.9417e-05
5350.0 2.9229e-05
5370.0 3.0702e-05
5390.0 3.5232e-05
5410.0 3.52e-05
5430.0 3.1129e-05
5450.0 2.8601e-05
5470.0 3.0369e-05
5490.0 3.7103e-05
5510.0 4.6391e-05
5530.0 5.3209e-05
5550.0 5.1427e-05
5570.0 4.6751e-05
5590.0 4.0651e-05
5610.0 3.7489e-05
5630.0 3.6353e-05
5650.0 3.4623e-05
5670.0 3.2808e-05
5690.0 2.933e-05
5710.0 2.8598e-05
5730.0 2.6343e-05
5750.0 1.8573e-05
5770.0 1.449e-05
5790.0 1.6421e-05
5810.0 1.8542e-05
5830.0 2.2754e-05
5850.0 2.7086e-05
5870.0 3.0052e-05
5890.0 3.0561e-05
5910.0 2.9983e-05
5930.0 2.854e-05
5950.0 2.9082e-05
5970.0 3.3151e-05
5990.0 3.117e-05
6010.0 2.613e-05
6030.0 2.2076e-05
6050.0 1.9225e-05
6070.0 1.912e-05
6090.0 2.0733e-05
6110.0 2.3183e-05
6130.0 2.3538e-05
6150.0 2.0252e-05
6170.0 1.7816e-05
6190.0 2.0049e-05
6210.0 2.6504e-05
6230.0 3.4781e-05
6250.0 3.7673e-05
6270.0 3.2921e-05
6290.0 2.7698e-05
6310.0 2.1623e-05
6330.0 1.6568e-05
6350.0 1.4778e-05
6370.0 1.554e-05
6390.0 1.7966e-05
6410.0 2.2153e-05
6430.0 2.5868e-05
6450.0 2.96e-05
6470.0 3.3892e-05
6490.0 4.094e-05
6510.0 4.5776e-05
6530.0 4.4909e-05
6550.0 4.061e-05
6570.0 3.4474e-05
6590.0 3.1086e-05
6610.0 2.6804e-05
6630.0 2.4284e-05
6650.0 2.2955e-05
6670.0 2.23e-05
6690.0 2.015e-05
6710.0 1.8316e-05
6730.0 1.3193e-05
6750.0 1.3079e-05
6770.0 1.4216e-05
6790.0 1.6341e-05
6810.0 1.4952e-05
6830.0 1.5396e-05
6850.0 1.4401e-05
6870.0 1.3155e-05
6890.0 1.2631e-05
6910.0 1.346e-05
6930.0 1.2607e-05
6950.0 1.297e-05
6970.0 1.3643e-05
6990.0 1.5485e-05
7010.0 1.5617e-05
7030.0 1.5865e-05
7050.0 1.513e-05
7070.0 1.4416e-05
7090.0 1.4459e-05
7110.0 1.4877e-05
7130.0 1.601e-05
7150.0 1.7004e-05
7170.0 1.8762e-05
7190.0 2.0625e-05
7210.0 2.0267e-05
7230.0 2.0835e-05
7250.0 2.239e-05
7270.0 2.44e-05
7290.0 2.896e-05
7310.0 3.1424e-05
7330.0 3.0374e-05
7350.0 2.7472e-05
7370.0 2.3903e-05
7390.0 2.3189e-05
7410.0 2.4642e-05
7430.0 2.7387e-05
7450.0 2.983e-05
7470.0 2.9556e-05
7490.0 2.6949e-05
7510.0 3.0526e-05
7530.0 3.0192e-05
7550.0 2.7137e-05
7570.0 2.1199e-05
7590.0 1.4574e-05
7610.0 1.2509e-05
7630.0 1.4212e-05
7650.0 1.6804e-05
7670.0 2.0914e-05
7690.0 2.3014e-05
7710.0 2.3983e-05
7730.0 2.5203e-05
7750.0 2.8294e-05
7770.0 2.8739e-05
7790.0 2.6398e-05
7810.0 2.4086e-05
7830.0 2.4838e-05
7850.0 2.4145e-05
7870.0 2.2137e-05
7890.0 1.8599e-05
7910.0 1.5119e-05
7930.0 1.4436e-05
7950.0 1.3152e-05
7970.0 1.2174e-05
7990.0 1.2105e-05
8010.0 8.9652e-07
8030.0 8.8486e-07
8050.0 8.7293e-07
8070.0 8.8436e-07
8090.0 9.5022e-07
8110.0 9.3403e-07
8130.0 7.7046e-07
8150.0 7.5033e-07
8170.0 6.463e-07
8190.0 6.1251e-07
8210.0 7.954e-07
8230.0 8.8558e-07
8250.0 7.9816e-07
8270.0 6.9469e-07
8290.0 6.7719e-07
8310.0 5.212e-07
8330.0 3.5129e-07
8350.0 2.493e-07
8370.0 1.5707e-07
8390.0 2.8712e-07
8410.0 3.3458e-07
8430.0 4.1242e-07
8450.0 4.8429e-07
8470.0 6.0194e-07
8490.0 5.977e-07
8510.0 5.8793e-07
8530.0 6.1358e-07
8550.0 8.2784e-07
8570.0 9.8005e-07
8590.0 1.0575e-06
8610.0 1.3358e-06
8630.0 1.6092e-06
8650.0 1.6834e-06
8670.0 1.7889e-06
8690.0 1.7989e-06
8710.0 1.6292e-06
8730.0 1.5154e-06
8750.0 1.3376e-06
8770.0 1.2692e-06
8790.0 1.2469e-06
8810.0 1.1948e-06
8830.0 9.5544e-07
8850.0 6.9945e-07
8870.0 5.3556e-07
8890.0 5.2359e-07
8910.0 6.0004e-07
8930.0 6.8251e-07
8950.0 6.9558e-07
8970.0 6.9887e-07
8990.0 6.233e-07
9010.0 6.5319e-06
9030.0 5.9187e-06
9050.0 5.9473e-06
9070.0 5.9942e-06
9090.0 6.0354e-06
9110.0 6.0862e-06
9130.0 6.1255e-06
9150.0 6.156e-06
9170.0 6.1885e-06
9190.0 6.2232e-06
9210.0 6.2598e-06
9230.0 6.2983e-06
9250.0 6.3375e-06
9270.0 6.3782e-06
9290.0 6.4201e-06
9310.0 6.4622e-06
9330.0 6.5052e-06
9350.0 6.5498e-06
9370.0 6.5949e-06
9390.0 6.6405e-06
9410.0 6.6873e-06
9430.0 6.7356e-06
9450.0 6.7837e-06
9470.0 6.8328e-06
9490.0 6.8834e-06
9510.0 6.9345e-06
9530.0 6.9858e-06
9550.0 7.039e-06
9570.0 7.0931e-06
9590.0 7.1473e-06
9610.0 7.2025e-06
9630.0 7.2591e-06
9650.0 7.3163e-06
9670.0 7.3735e-06
9690.0 7.4323e-06
9710.0 7.4919e-06
9730.0 7.5517e-06
9750.0 7.6124e-06
9770.0 7.6749e-06
9790.0 7.7373e-06
9810.0 7.8e-06
9830.0 7.8641e-06
9850.0 7.9289e-06
9870.0 7.9936e-06
9890.0 8.0592e-06
9910.0 8.1261e-06
9930.0 8.193e-06
9950.0 8.2602e-06
9970.0 8.3288e-06
9990.0 8.398e-06
10010.0 7.2872e-06
10030.0 7.3471e-06
10050.0 7.4081e-06
10070.0 7.4712e-06
10090.0 7.5307e-06
10110.0 7.5917e-06
10130.0 7.653e-06
10150.0 7.714e-06
10170.0 7.7757e-06
10190.0 7.8386e-06
10210.0 7.9006e-06
10230.0 7.9626e-06
10250.0 8.0255e-06
10270.0 8.0884e-06
10290.0 8.1504e-06
10310.0 8.2133e-06
10330.0 8.2768e-06
10350.0 8.3392e-06
10370.0 8.4014e-06
10390.0 8.4643e-06
10410.0 8.5269e-06
10430.0 8.5883e-06
10450.0 8.6504e-06
10470.0 8.7125e-06
10490.0 8.7737e-06
10510.0 8.8343e-06
10530.0 8.8961e-06
10550.0 8.9568e-06
10570.0 9.0162e-06
10590.0 9.0759e-06
10610.0 9.1356e-06
10630.0 9.1938e-06
10650.0 9.2515e-06
10670.0 9.3099e-06
10690.0 9.367e-06
10710.0 9.423e-06
10730.0 9.4791e-06
10750.0 9.5353e-06
10770.0 9.5891e-06
10790.0 9.6426e-06
10810.0 9.696e-06
10830.0 9.7477e-06
10850.0 9.7968e-06
10870.0 9.8444e-06
10890.0 9.8863e-06
10910.0 9.9185e-06
10930.0 9.9367e-06
10950.0 9.9324e-06
10970.0 9.8988e-06
10990.0 9.8328e-06
11010.0 9.7223e-06
11030.0 9.5677e-06
11050.0 9.3792e-06
11070.0 9.1538e-06
11090.0 8.883e-06
11110.0 8.6028e-06
11130.0 8.3106e-06
11150.0 7.996e-06
11170.0 7.6716e-06
11190.0 7.3571e-06
11210.0 7.0322e-06
11230.0 6.699e-06
11250.0 6.3807e-06
11270.0 6.075e-06
11290.0 5.7688e-06
11310.0 5.4786e-06
11330.0 5.2231e-06
11350.0 4.9818e-06
11370.0 4.7587e-06
11390.0 4.5658e-06
11410.0 4.397e-06
11430.0 4.2401e-06
11450.0 4.105e-06
11470.0 3.9881e-06
11490.0 3.8793e-06
11510.0 3.7746e-06
11530.0 3.6773e-06
11550.0 3.5807e-06
11570.0 3.4777e-06
11590.0 3.371e-06
11610.0 3.2624e-06
11630.0 3.1441e-06
11650.0 3.0176e-06
11670.0 2.8928e-06
11690.0 2.7663e-06
11710.0 2.6358e-06
11730.0 2.5094e-06
11750.0 2.3924e-06
11770.0 2.2776e-06
11790.0 2.17e-06
11810.0 2.0754e-06
11830.0 1.9907e-06
11850.0 1.9127e-06
11870.0 1.8474e-06
11890.0 1.7932e-06
11910.0 1.7455e-06
11930.0 1.7046e-06
11950.0 1.6705e-06
11970.0 1.64e-06
11990.0 1.6112e-06
12010.0 1.5845e-06
12030.0 1.5589e-06
12050.0 1.5323e-06
12070.0 1.5047e-06
12090.0 1.4781e-06
12110.0 1.451e-06
12130.0 1.424e-06
12150.0 1.399e-06
12170.0 1.3772e-06
12190.0 1.3583e-06
12210.0 1.3452e-06
12230.0 1.3388e-06
12250.0 1.3399e-06
12270.0 1.35e-06
12290.0 1.3691e-06
12310.0 1.3965e-06
12330.0 1.4348e-06
12350.0 1.4826e-06
12370.0 1.5371e-06
12390.0 1.5999e-06
12410.0 1.6735e-06
12430.0 1.7482e-06
12450.0 1.8257e-06
12470.0 1.908e-06
12490.0 1.9907e-06
12510.0 2.0683e-06
12530.0 2.1455e-06
12550.0 2.22e-06
12570.0 2.2857e-06
12590.0 2.3434e-06
12610.0 2.3948e-06
12630.0 2.4358e-06
12650.0 2.4641e-06
12670.0 2.4827e-06
12690.0 2.4902e-06
12710.0 2.4861e-06
12730.0 2.4717e-06
12750.0 2.4459e-06
12770.0 2.4107e-06
12790.0 2.3679e-06
12810.0 2.3168e-06
12830.0 2.2577e-06
12850.0 2.1959e-06
12870.0 2.1305e-06
12890.0 2.0598e-06
12910.0 1.9879e-06
12930.0 1.917e-06
12950.0 1.8431e-06
12970.0 1.7678e-06
12990.0 1.6966e-06
13010.0 1.6263e-06
13030.0 1.5552e-06
13050.0 1.4869e-06
13070.0 1.4229e-06
13090.0 1.3587e-06
13110.0 1.2966e-06
13130.0 1.2393e-06
13150.0 1.1851e-06
13170.0 1.132e-06
13190.0 1.0847e-06
13210.0 1.0431e-06
13230.0 1.0051e-06
13250.0 9.7237e-07
13270.0 9.4654e-07
13290.0 9.2646e-07
13310.0 9.1263e-07
13330.0 9.0633e-07
13350.0 9.0706e-07
13370.0 9.1519e-07
13390.0 9.3117e-07
13410.0 9.5277e-07
13430.0 9.8085e-07
13450.0 1.0155e-06
13470.0 1.054e-06
13490.0 1.0948e-06
13510.0 1.1408e-06
13530.0 1.1874e-06
13550.0 1.232e-06
13570.0 1.276e-06
13590.0 1.3189e-06
13610.0 1.3571e-06
13630.0 1.3904e-06
13650.0 1.4208e-06
13670.0 1.446e-06
13690.0 1.4655e-06
13710.0 1.4806e-06
13730.0 1.4914e-06
13750.0 1.4968e-06
13770.0 1.498e-06
13790.0 1.4953e-06
13810.0 1.4887e-06
13830.0 1.479e-06
13850.0 1.4657e-06
13870.0 1.4491e-06
13890.0 1.43e-06
13910.0 1.4085e-06
13930.0 1.3837e-06
13950.0 1.3565e-06
13970.0 1.3288e-06
13990.0 1.2985e-06
14010.0 1.2664e-06
14030.0 1.2343e-06
14050.0 1.202e-06
14070.0 1.1679e-06
14090.0 1.1352e-06
14110.0 1.1045e-06
14130.0 1.0747e-06
14150.0 1.0467e-06
14170.0 1.0228e-06
14190.0 1.0021e-06
14210.0 9.8457e-07
14230.0 9.7158e-07
14250.0 9.6318e-07
14270.0 9.5911e-07
14290.0 9.5998e-07
14310.0 9.6533e-07
14330.0 9.7493e-07
14350.0 9.8908e-07
14370.0 1.0067e-06
14390.0 1.0267e-06
14410.0 1.0503e-06
14430.0 1.0761e-06
14450.0 1.1026e-06
14470.0 1.13e-06
14490.0 1.1591e-06
14510.0 1.187e-06
14530.0 1.2135e-06
14550.0 1.24e-06
14570.0 1.2654e-06
14590.0 1.2885e-06
14610.0 1.3109e-06
14630.0 1.333e-06
14650.0 1.3536e-06
14670.0 1.3736e-06
14690.0 1.3943e-06
14710.0 1.4162e-06
14730.0 1.438e-06
14750.0 1.4622e-06
14770.0 1.4896e-06
14790.0 1.5193e-06
14810.0 1.5516e-06
14830.0 1.5897e-06
14850.0 1.6312e-06
14870.0 1.6745e-06
14890.0 1.7213e-06
14910.0 1.7709e-06
14930.0 1.8186e-06
14950.0 1.8631e-06
14970.0 1.9053e-06
14990.0 1.9407e-06
15010.0 1.9678e-06
15030.0 1.9878e-06
15050.0 2.0011e-06
15070.0 2.0076e-06
15090.0 2.0098e-06
15110.0 2.0092e-06
15130.0 2.0066e-06
15150.0 2.0032e-06
15170.0 1.9992e-06
15190.0 1.9949e-06
15210.0 1.9907e-06
15230.0 1.9865e-06
15250.0 1.9821e-06
15270.0 1.9777e-06
15290.0 1.9736e-06
15310.0 1.9694e-06
15330.0 1.9651e-06
15350.0 1.961e-06
15370.0 1.957e-06
15390.0 1.9527e-06
15410.0 1.9486e-06
15430.0 1.9446e-06
15450.0 1.9405e-06
15470.0 1.9363e-06
15490.0 1.9324e-06
15510.0 1.9285e-06
15530.0 1.9244e-06
15550.0 1.9204e-06
15570.0 1.9166e-06
15590.0 1.9125e-06
15610.0 1.9085e-06
15630.0 1.9046e-06
15650.0 1.9008e-06
15670.0 1.8968e-06
15690.0 1.8929e-06
15710.0 1.8892e-06
15730.0 1.8853e-06
15750.0 1.8813e-06
15770.0 1.8776e-06
15790.0 1.8738e-06
15810.0 1.8698e-06
15830.0 1.866e-06
15850.0 1.8623e-06
15870.0 1.8585e-06
15890.0 1.8547e-06
15910.0 1.851e-06
15930.0 1.8472e-06
15950.0 1.8434e-06
15970.0 1.8396e-06
15990.0 1.8359e-06
16010.0 1.8321e-06
16030.0 1.8283e-06
16050.0 1.8246e-06
16070.0 1.8209e-06
16090.0 1.8171e-06
16110.0 1.8134e-06
16130.0 1.8098e-06
16150.0 1.8059e-06
16170.0 1.8021e-06
16190.0 1.7985e-06
16210.0 1.7948e-06
16230.0 1.7909e-06
16250.0 1.7872e-06
16270.0 1.7836e-06
16290.0 1.7798e-06
16310.0 1.776e-06
16330.0 1.7724e-06
16350.0 1.7686e-06
16370.0 1.7647e-06
16390.0 1.761e-06
16410.0 1.7574e-06
16430.0 1.7535e-06
16450.0 1.7497e-06
16470.0 1.7461e-06
16490.0 1.7423e-06
16510.0 1.7384e-06
16530.0 1.7347e-06
16550.0 1.731e-06
16570.0 1.7271e-06
16590.0 1.7232e-06
16610.0 1.7196e-06
16630.0 1.7157e-06
16650.0 1.7119e-06
16670.0 1.7081e-06
16690.0 1.7044e-06
16710.0 1.7004e-06
16730.0 1.6965e-06
16750.0 1.6928e-06
16770.0 1.6889e-06
16790.0 1.6849e-06
16810.0 1.6811e-06
16830.0 1.6773e-06
16850.0 1.6733e-06
16870.0 1.6694e-06
16890.0 1.6656e-06
16910.0 1.6616e-06
16930.0 1.6575e-06
16950.0 1.6537e-06
16970.0 1.6498e-06
16990.0 1.6457e-06
17010.0 1.6418e-06
17030.0 1.6379e-06
17050.0 1.6339e-06
17070.0 1.6298e-06
17090.0 1.6259e-06
17110.0 1.6219e-06
17130.0 1.6177e-06
17150.0 1.6137e-06
17170.0 1.6097e-06
17190.0 1.6056e-06
17210.0 1.6015e-06
17230.0 1.5976e-06
17250.0 1.5935e-06
17270.0 1.5892e-06
17290.0 1.5852e-06
17310.0 1.5811e-06
17330.0 1.5769e-06
17350.0 1.5727e-06
17370.0 1.5686e-06
17390.0 1.5645e-06
17410.0 1.5602e-06
17430.0 1.5561e-06
17450.0 1.552e-06
17470.0 1.5477e-06
17490.0 1.5434e-06
17510.0 1.5393e-06
17530.0 1.535e-06
17550.0 1.5307e-06
17570.0 1.5265e-06
17590.0 1.5223e-06
17610.0 1.5179e-06
17630.0 1.5136e-06
17650.0 1.5094e-06
17670.0 1.5051e-06
17690.0 1.5006e-06
17710.0 1.4964e-06
17730.0 1.4921e-06
17750.0 1.4877e-06
17770.0 1.4833e-06
17790.0 1.4791e-06
17810.0 1.4747e-06
17830.0 1.4702e-06
17850.0 1.4659e-06
17870.0 1.4615e-06
17890.0 1.457e-06
17910.0 1.4525e-06
17930.0 1.4482e-06
17950.0 1.4438e-06
17970.0 1.4393e-06
17990.0 1.4349e-06
18010.0 1.4305e-06
18030.0 1.4259e-06
18050.0 1.4214e-06
18070.0 1.417e-06
18090.0 1.4125e-06
18110.0 1.4079e-06
18130.0 1.4035e-06
18150.0 1.3991e-06
18170.0 1.3944e-06
18190.0 1.3899e-06
18210.0 1.3855e-06
18230.0 1.3809e-06
18250.0 1.3762e-06
18270.0 1.3718e-06
18290.0 1.3673e-06
18310.0 1.3626e-06
18330.0 1.3581e-06
18350.0 1.3536e-06
18370.0 1.349e-06
18390.0 1.3443e-06
18410.0 1.3398e-06
18430.0 1.3352e-06
18450.0 1.3305e-06
18470.0 1.3259e-06
18490.0 1.3214e-06
18510.0 1.3167e-06
18530.0 1.3121e-06
18550.0 1.3076e-06
18570.0 1.303e-06
18590.0 1.2982e-06
18610.0 1.2936e-06
18630.0 1.289e-06
18650.0 1.2843e-06
18670.0 1.2796e-06
18690.0 1.2751e-06
18710.0 1.2705e-06
18730.0 1.2657e-06
18750.0 1.2611e-06
18770.0 1.2566e-06
18790.0 1.2518e-06
18810.0 1.2471e-06
18830.0 1.2425e-06
18850.0 1.2378e-06
18870.0 1.2331e-06
18890.0 1.2285e-06
18910.0 1.2239e-06
18930.0 1.2191e-06
18950.0 1.2144e-06
18970.0 1.2099e-06
18990.0 1.2052e-06
19010.0 1.2003e-06
19030.0 1.1957e-06
19050.0 1.1911e-06
19070.0 1.1864e-06
19090.0 1.1817e-06
19110.0 1.1771e-06
19130.0 1.1724e-06
19150.0 1.1676e-06
19170.0 1.163e-06
19190.0 1.1584e-06
19210.0 1.1536e-06
19230.0 1.1488e-06
19250.0 1.1443e-06
19270.0 1.1396e-06
19290.0 1.1349e-06
19310.0 1.1303e-06
19330.0 1.1257e-06
19350.0 1.1208e-06
19370.0 1.1161e-06
19390.0 1.1116e-06
19410.0 1.1068e-06
19430.0 1.1021e-06
19450.0 1.0975e-06
19470.0 1.0929e-06
19490.0 1.0881e-06
19510.0 1.0835e-06
19530.0 1.0789e-06
19550.0 1.0742e-06
19570.0 1.0694e-06
19590.0 1.0648e-06
19610.0 1.0602e-06
19630.0 1.0555e-06
19650.0 1.0508e-06
19670.0 1.0463e-06
19690.0 1.0416e-06
19710.0 1.0369e-06
19730.0 1.0323e-06
19750.0 1.0277e-06
19770.0 1.0229e-06
19790.0 1.0183e-06
19810.0 1.0137e-06
19830.0 1.009e-06
19850.0 1.0043e-06
19870.0 9.9964e-07
19890.0 9.9465e-07
19910.0 9.8917e-07
19930.0 9.833e-07
19950.0 9.7658e-07
19970.0 9.6832e-07
19990.0 9.5837e-07
20010.0 8.5265e-07
20030.0 8.4031e-07
20050.0 8.2587e-07
20070.0 8.1022e-07
20090.0 7.9339e-07
20110.0 7.7434e-07
20130.0 7.5507e-07
20150.0 7.3596e-07
20170.0 7.1616e-07
20190.0 6.9607e-07
20210.0 6.7709e-07
20230.0 6.5858e-07
20250.0 6.4004e-07
20270.0 6.2282e-07
20290.0 6.0711e-07
20310.0 5.9217e-07
20330.0 5.7822e-07
20350.0 5.6663e-07
20370.0 5.5635e-07
20390.0 5.4733e-07
20410.0 5.4005e-07
20430.0 5.3443e-07
20450.0 5.2998e-07
20470.0 5.27e-07
20490.0 5.254e-07
20510.0 5.2494e-07
20530.0 5.2559e-07
20550.0 5.2721e-07
20570.0 5.2957e-07
20590.0 5.3277e-07
20610.0 5.3664e-07
20630.0 5.409e-07
20650.0 5.4567e-07
20670.0 5.5112e-07
20690.0 5.5668e-07
20710.0 5.6243e-07
20730.0 5.6862e-07
20750.0 5.751e-07
20770.0 5.8146e-07
20790.0 5.8814e-07
20810.0 5.9521e-07
20830.0 6.0224e-07
20850.0 6.0931e-07
20870.0 6.1688e-07
20890.0 6.2459e-07
20910.0 6.3203e-07
20930.0 6.3975e-07
20950.0 6.4775e-07
20970.0 6.5555e-07
20990.0 6.6325e-07
21010.0 6.7134e-07
21030.0 6.7925e-07
21050.0 6.868e-07
21070.0 6.9433e-07
21090.0 7.019e-07
21110.0 7.0879e-07
21130.0 7.1527e-07
21150.0 7.2154e-07
21170.0 7.2723e-07
21190.0 7.3212e-07
21210.0 7.3651e-07
21230.0 7.4017e-07
21250.0 7.4278e-07
21270.0 7.4443e-07
21290.0 7.4505e-07
21310.0 7.4445e-07
21330.0 7.427e-07
21350.0 7.3962e-07
21370.0 7.3509e-07
21390.0 7.2933e-07
21410.0 7.2228e-07
21430.0 7.1336e-07
21450.0 7.0334e-07
21470.0 6.9242e-07
21490.0 6.8008e-07
21510.0 6.6654e-07
21530.0 6.5279e-07
21550.0 6.3838e-07
21570.0 6.2301e-07
21590.0 6.0789e-07
21610.0 5.9329e-07
21630.0 5.7867e-07
21650.0 5.6438e-07
21670.0 5.52e-07
21690.0 5.4058e-07
21710.0 5.303e-07
21730.0 5.2188e-07
21750.0 5.1538e-07
21770.0 5.1043e-07
21790.0 5.0758e-07
21810.0 5.0679e-07
21830.0 5.0792e-07
21850.0 5.1109e-07
21870.0 5.1604e-07
21890.0 5.2244e-07
21910.0 5.3064e-07
21930.0 5.4026e-07
21950.0 5.5069e-07
21970.0 5.6223e-07
21990.0 5.752e-07
22010.0 5.8815e-07
22030.0 6.013e-07
22050.0 6.1512e-07
22070.0 6.2901e-07
22090.0 6.4217e-07
22110.0 6.5543e-07
22130.0 6.6867e-07
22150.0 6.8103e-07
22170.0 6.9269e-07
22190.0 7.0424e-07
22210.0 7.1499e-07
22230.0 7.2445e-07
22250.0 7.3336e-07
22270.0 7.4156e-07
22290.0 7.4857e-07
22310.0 7.5459e-07
22330.0 7.5989e-07
22350.0 7.6399e-07
22370.0 7.6687e-07
22390.0 7.6868e-07
22410.0 7.6925e-07
22430.0 7.6852e-07
22450.0 7.6654e-07
22470.0 7.6312e-07
22490.0 7.5831e-07
22510.0 7.5232e-07
22530.0 7.4466e-07
22550.0 7.3534e-07
22570.0 7.25e-07
22590.0 7.1334e-07
22610.0 6.9993e-07
22630.0 6.854e-07
22650.0 6.704e-07
