#lamb flux
1010.0 0.00045281
1030.0 0.00058992
1050.0 0.00076271
1070.0 0.00097676
1090.0 0.0012434
1110.0 0.0015514
1130.0 0.0018999
1150.0 0.0023022
1170.0 0.0027562
1190.0 0.003235
1210.0 0.0037433
1230.0 0.0042884
1250.0 0.0048433
1270.0 0.0053912
1290.0 0.005949
1310.0 0.0064821
1330.0 0.0069586
1350.0 0.0073845
1370.0 0.0077562
1390.0 0.0080411
1410.0 0.0082324
1430.0 0.0083559
1450.0 0.0083958
1470.0 0.0083456
1490.0 0.0082298
1510.0 0.0080527
1530.0 0.0078009
1550.0 0.0075095
1570.0 0.0072083
1590.0 0.006893
1610.0 0.006565
1630.0 0.0062498
1650.0 0.005952
1670.0 0.0056663
1690.0 0.0054016
1710.0 0.005168
1730.0 0.0049615
1750.0 0.004774
1770.0 0.0046179
1790.0 0.0044911
1810.0 0.0043869
1830.0 0.0043064
1850.0 0.004256
1870.0 0.0042257
1890.0 0.0042142
1910.0 0.0042253
1930.0 0.0042583
1950.0 0.0043062
1970.0 0.0043712
1990.0 0.004457
2010.0 0.0045581
2030.0 0.0046723
2050.0 0.0048048
2070.0 0.0049545
2090.0 0.0051135
2110.0 0.0052859
2130.0 0.0054742
2150.0 0.0056732
2170.0 0.0058796
2190.0 0.0061003
2210.0 0.0063316
2230.0 0.0065679
2250.0 0.0068117
2270.0 0.0070672
2290.0 0.0073254
2310.0 0.0075839
2330.0 0.0078494
2350.0 0.0081182
2370.0 0.0083832
2390.0 0.0086488
2410.0 0.008918
2430.0 0.0091809
2450.0 0.0094388
2470.0 0.0097005
2490.0 0.0099715
2510.0 0.010251
2530.0 0.010569
2550.0 0.010961
2570.0 0.011457
2590.0 0.012095
2610.0 0.012999
2630.0 0.014211
2650.0 0.015722
2670.0 0.017625
2690.0 0.019981
2710.0 0.022609
2730.0 0.025403
2750.0 0.028448
2770.0 0.031454
2790.0 0.034177
2810.0 0.036639
2830.0 0.038827
2850.0 0.040467
2870.0 0.041731
2890.0 0.04275
2910.0 0.043532
2930.0 0.044101
2950.0 0.044602
2970.0 0.045048
2990.0 0.045401
3010.0 0.045701
3030.0 0.046006
3050.0 0.046281
3070.0 0.046471
3090.0 0.046667
3110.0 0.046875
3130.0 0.047099
3150.0 0.046891
3170.0 0.047131
3190.0 0.047755
3210.0 0.048989
3230.0 0.051293
3250.0 0.055638
3270.0 0.061329
3290.0 0.06778
3310.0 0.075783
3330.0 0.077813
3350.0 0.078306
3370.0 0.078779
3390.0 0.079199
3410.0 0.079326
3430.0 0.079214
3450.0 0.078978
3470.0 0.078719
3490.0 0.078032
3510.0 0.075612
3530.0 0.069366
3550.0 0.06471
3570.0 0.069316
3590.0 0.079099
3610.0 0.087154
3630.0 0.097774
3650.0 0.095581
3670.0 0.083325
3690.0 0.072172
3710.0 0.068048
3730.0 0.069924
3750.0 0.071354
3770.0 0.073485
3790.0 0.075897
3810.0 0.077983
3830.0 0.072224
3850.0 0.064908
3870.0 0.061244
3890.0 0.064128
3910.0 0.065879
3930.0 0.066191
3950.0 0.070035
3970.0 0.074534
3990.0 0.075577
4010.0 0.076391
4030.0 0.073869
4050.0 0.072085
4070.0 0.071001
4090.0 0.07157
4110.0 0.072404
4130.0 0.070713
4150.0 0.068144
4170.0 0.067367
4190.0 0.066385
4210.0 0.061895
4230.0 0.057188
4250.0 0.051838
4270.0 0.047289
4290.0 0.045729
4310.0 0.045285
4330.0 0.046765
4350.0 0.051227
4370.0 0.05358
4390.0 0.058961
4410.0 0.063347
4430.0 0.064804
4450.0 0.06018
4470.0 0.055284
4490.0 0.053925
4510.0 0.053095
4530.0 0.053225
4550.0 0.053273
4570.0 0.054229
4590.0 0.056353
4610.0 0.057999
4630.0 0.05947
4650.0 0.060237
4670.0 0.059919
4690.0 0.056623
4710.0 0.053431
4730.0 0.050947
4750.0 0.049682
4770.0 0.048486
4790.0 0.048779
4810.0 0.047915
4830.0 0.044906
4850.0 0.048587
4870.0 0.04592
4890.0 0.047092
4910.0 0.047918
4930.0 0.045421
4950.0 0.039123
4970.0 0.036769
4990.0 0.034618
5010.0 0.03256
5030.0 0.032693
5050.0 0.035032
5070.0 0.035696
5090.0 0.037433
5110.0 0.037712
5130.0 0.037305
5150.0 0.037859
5170.0 0.036401
5190.0 0.036176
5210.0 0.036796
5230.0 0.035257
5250.0 0.035889
5270.0 0.037459
5290.0 0.03682
5310.0 0.034865
5330.0 0.033832
5350.0 0.03184
5370.0 0.031241
5390.0 0.030985
5410.0 0.029948
5430.0 0.030507
5450.0 0.029451
5470.0 0.029576
5490.0 0.032394
5510.0 0.03283
5530.0 0.032984
5550.0 0.032816
5570.0 0.033291
5590.0 0.033319
5610.0 0.033006
5630.0 0.032731
5650.0 0.032368
5670.0 0.031556
5690.0 0.030975
5710.0 0.030187
5730.0 0.030825
5750.0 0.029686
5770.0 0.028091
5790.0 0.02699
5810.0 0.024743
5830.0 0.026028
5850.0 0.027403
5870.0 0.027497
5890.0 0.027737
5910.0 0.02884
5930.0 0.028717
5950.0 0.02883
5970.0 0.028773
5990.0 0.02903
6010.0 0.02829
6030.0 0.02785
6050.0 0.027649
6070.0 0.027177
6090.0 0.027455
6110.0 0.027156
6130.0 0.026307
6150.0 0.025697
6170.0 0.025154
6190.0 0.023382
6210.0 0.022971
6230.0 0.023231
6250.0 0.023016
6270.0 0.022807
6290.0 0.023319
6310.0 0.023984
6330.0 0.023858
6350.0 0.023289
6370.0 0.023307
6390.0 0.022561
6410.0 0.022401
6430.0 0.021763
6450.0 0.021683
6470.0 0.021616
6490.0 0.021586
6510.0 0.020891
6530.0 0.02067
6550.0 0.020366
6570.0 0.0199
6590.0 0.020294
6610.0 0.020312
6630.0 0.019838
6650.0 0.01912
6670.0 0.018831
6690.0 0.018534
6710.0 0.018038
6730.0 0.017796
6750.0 0.017936
6770.0 0.018534
6790.0 0.018989
6810.0 0.018636
6830.0 0.017395
6850.0 0.016418
6870.0 0.016161
6890.0 0.016077
6910.0 0.016013
6930.0 0.015872
6950.0 0.015963
6970.0 0.015479
6990.0 0.015263
7010.0 0.015372
7030.0 0.015539
7050.0 0.015236
7070.0 0.014445
7090.0 0.013945
7110.0 0.013965
7130.0 0.014099
7150.0 0.014144
7170.0 0.014068
7190.0 0.013801
7210.0 0.014305
7230.0 0.014761
7250.0 0.014728
7270.0 0.014789
7290.0 0.015027
7310.0 0.014741
7330.0 0.014362
7350.0 0.013833
7370.0 0.013849
7390.0 0.014077
7410.0 0.013338
7430.0 0.013414
7450.0 0.013315
7470.0 0.013725
7490.0 0.013629
7510.0 0.013063
7530.0 0.013269
7550.0 0.01239
7570.0 0.01194
7590.0 0.011885
7610.0 0.012185
7630.0 0.012336
7650.0 0.012738
7670.0 0.011945
7690.0 0.011659
7710.0 0.01224
7730.0 0.012828
7750.0 0.012756
7770.0 0.013109
7790.0 0.013029
7810.0 0.01315
7830.0 0.013878
7850.0 0.013466
7870.0 0.014078
7890.0 0.013721
7910.0 0.013519
7930.0 0.013047
7950.0 0.013012
7970.0 0.013252
7990.0 0.012731
8010.0 0.012295
8030.0 0.012167
8050.0 0.011925
8070.0 0.011688
8090.0 0.01078
8110.0 0.010819
8130.0 0.01153
8150.0 0.011955
8170.0 0.012046
8190.0 0.012394
8210.0 0.012162
8230.0 0.011912
8250.0 0.011884
8270.0 0.011657
8290.0 0.011419
8310.0 0.010867
8330.0 0.01088
8350.0 0.011025
8370.0 0.011095
8390.0 0.011077
8410.0 0.010922
8430.0 0.010777
8450.0 0.01077
8470.0 0.011151
8490.0 0.011278
8510.0 0.010856
8530.0 0.01046
8550.0 0.010431
8570.0 0.010181
8590.0 0.0099795
8610.0 0.010166
8630.0 0.010148
8650.0 0.010051
8670.0 0.0099807
8690.0 0.0098712
8710.0 0.0094301
8730.0 0.0094555
8750.0 0.0092239
8770.0 0.0092539
8790.0 0.0091251
8810.0 0.0088975
8830.0 0.0089348
8850.0 0.0089323
8870.0 0.0085134
8890.0 0.0082205
8910.0 0.0079229
8930.0 0.0075191
8950.0 0.0073506
8970.0 0.0070387
8990.0 0.0069333
9010.0 0.0067126
9030.0 0.0066405
9050.0 0.0065988
9070.0 0.0065583
9090.0 0.0065175
9110.0 0.0064756
9130.0 0.0064339
9150.0 0.0063928
9170.0 0.0063513
9190.0 0.0063096
9210.0 0.0062674
9230.0 0.0062251
9250.0 0.0061827
9270.0 0.00614
9290.0 0.0060973
9310.0 0.0060551
9330.0 0.0060136
9350.0 0.0059721
9370.0 0.0059306
9390.0 0.005889
9410.0 0.0058475
9430.0 0.0058059
9450.0 0.0057645
9470.0 0.0057269
9490.0 0.0056873
9510.0 0.005644
9530.0 0.0056012
9550.0 0.0055594
9570.0 0.0055181
9590.0 0.005477
9610.0 0.0054369
9630.0 0.0053973
9650.0 0.0053578
9670.0 0.0053183
9690.0 0.0052793
9710.0 0.0052406
9730.0 0.0052018
9750.0 0.0051634
9770.0 0.0051256
9790.0 0.0050877
9810.0 0.0050501
9830.0 0.0050128
9850.0 0.0049724
9870.0 0.004932
9890.0 0.0048988
9910.0 0.0048649
9930.0 0.0048242
9950.0 0.0047888
9970.0 0.0047567
9990.0 0.0047237
10010.0 0.004691
10030.0 0.0046578
10050.0 0.0046243
10070.0 0.0045913
10090.0 0.0045588
10110.0 0.0045261
10130.0 0.0044938
10150.0 0.0044624
10170.0 0.0044311
10190.0 0.0043999
10210.0 0.0043695
10230.0 0.0043396
10250.0 0.0043097
10270.0 0.0042802
10290.0 0.0042515
10310.0 0.0042229
10330.0 0.0041944
10350.0 0.0041667
10370.0 0.0041394
10390.0 0.004112
10410.0 0.0040834
10430.0 0.0040549
10450.0 0.0040311
10470.0 0.0040063
10490.0 0.003982
10510.0 0.0039579
10530.0 0.0039333
10550.0 0.0039092
10570.0 0.003886
10590.0 0.0038627
10610.0 0.0038396
10630.0 0.0038173
10650.0 0.0037954
10670.0 0.0037731
10690.0 0.0037516
10710.0 0.0037308
10730.0 0.0037098
10750.0 0.0036888
10770.0 0.0036691
10790.0 0.0036495
10810.0 0.0036297
10830.0 0.0036106
10850.0 0.0035922
10870.0 0.0035734
10890.0 0.0035548
10910.0 0.0035371
10930.0 0.0035195
10950.0 0.0035017
10970.0 0.0034843
10990.0 0.0034675
11010.0 0.0038752
11030.0 0.0038543
11050.0 0.0038319
11070.0 0.0038077
11090.0 0.0037809
11110.0 0.0037542
11130.0 0.003727
11150.0 0.0036987
11170.0 0.0036699
11190.0 0.0036419
11210.0 0.0036134
11230.0 0.0035842
11250.0 0.003556
11270.0 0.0035286
11290.0 0.0035008
11310.0 0.0034739
11330.0 0.0034493
11350.0 0.0034253
11370.0 0.003402
11390.0 0.0033808
11410.0 0.0033611
11430.0 0.0033415
11450.0 0.0033235
11470.0 0.0033068
11490.0 0.0032905
11510.0 0.0032743
11530.0 0.0032592
11550.0 0.0032443
11570.0 0.0032289
11590.0 0.0032135
11610.0 0.0031984
11630.0 0.0031824
11650.0 0.0031656
11670.0 0.0031492
11690.0 0.0031324
11710.0 0.0031146
11730.0 0.0030966
11750.0 0.0030791
11770.0 0.0030606
11790.0 0.0030416
11810.0 0.0030232
11830.0 0.003005
11850.0 0.0029858
11870.0 0.0029675
11890.0 0.0029504
11910.0 0.0029332
11930.0 0.0029165
11950.0 0.0029015
11970.0 0.0028872
11990.0 0.0028733
12010.0 0.002861
12030.0 0.0028503
12050.0 0.0028403
12070.0 0.0028315
12090.0 0.0028245
12110.0 0.0028186
12130.0 0.0028135
12150.0 0.0028097
12170.0 0.0028069
12190.0 0.0028045
12210.0 0.0028028
12230.0 0.0028015
12250.0 0.0028002
12270.0 0.0027986
12290.0 0.0027967
12310.0 0.0027944
12330.0 0.0027909
12350.0 0.0027864
12370.0 0.002781
12390.0 0.0027741
12410.0 0.0027653
12430.0 0.0027555
12450.0 0.0027445
12470.0 0.0027315
12490.0 0.0027171
12510.0 0.0027022
12530.0 0.0026855
12550.0 0.0026671
12570.0 0.0026483
12590.0 0.0026289
12610.0 0.0026077
12630.0 0.0025858
12650.0 0.0025648
12670.0 0.0025427
12690.0 0.0025199
12710.0 0.0024979
12730.0 0.0024763
12750.0 0.0024537
12770.0 0.002432
12790.0 0.0024115
12810.0 0.0023911
12830.0 0.0023709
12850.0 0.0023526
12870.0 0.0023353
12890.0 0.0023183
12910.0 0.0023027
12930.0 0.0022887
12950.0 0.0022755
12970.0 0.0022635
12990.0 0.0022534
13010.0 0.0022448
13030.0 0.0022373
13050.0 0.0022315
13070.0 0.0022271
13090.0 0.0022238
13110.0 0.0022215
13130.0 0.0022201
13150.0 0.0022193
13170.0 0.0022188
13190.0 0.0022184
13210.0 0.0022178
13230.0 0.0022168
13250.0 0.002215
13270.0 0.0022125
13290.0 0.002209
13310.0 0.0022043
13330.0 0.0021985
13350.0 0.0021916
13370.0 0.0021833
13390.0 0.0021735
13410.0 0.0021631
13430.0 0.0021513
13450.0 0.0021379
13470.0 0.0021237
13490.0 0.0021089
13510.0 0.0020922
13530.0 0.0020747
13550.0 0.002057
13570.0 0.0020384
13590.0 0.0020186
13610.0 0.0019989
13630.0 0.0019793
13650.0 0.0019585
13670.0 0.0019375
13690.0 0.0019169
13710.0 0.0018959
13730.0 0.0018737
13750.0 0.0018527
13770.0 0.0018318
13790.0 0.0018104
13810.0 0.0017891
13830.0 0.0017689
13850.0 0.0017483
13870.0 0.0017277
13890.0 0.001708
13910.0 0.0016889
13930.0 0.0016696
13950.0 0.0016508
13970.0 0.0016334
13990.0 0.001616
14010.0 0.001599
14030.0 0.001583
14050.0 0.0015678
14070.0 0.0015523
14090.0 0.0015379
14110.0 0.0015245
14130.0 0.0015113
14150.0 0.0014984
14170.0 0.0014866
14190.0 0.0014752
14210.0 0.0014639
14230.0 0.0014532
14250.0 0.001443
14270.0 0.0014327
14290.0 0.0014226
14310.0 0.0014131
14330.0 0.0014038
14350.0 0.0013944
14370.0 0.0013853
14390.0 0.0013767
14410.0 0.001368
14430.0 0.0013594
14450.0 0.0013512
14470.0 0.0013432
14490.0 0.001335
14510.0 0.0013271
14530.0 0.0013195
14550.0 0.0013118
14570.0 0.0013041
14590.0 0.0012966
14610.0 0.001289
14630.0 0.0012812
14650.0 0.0012735
14670.0 0.0012658
14690.0 0.001258
14710.0 0.0012499
14730.0 0.0012422
14750.0 0.0012342
14770.0 0.001226
14790.0 0.0012178
14810.0 0.0012097
14830.0 0.0012011
14850.0 0.0011924
14870.0 0.0011839
14890.0 0.0011752
14910.0 0.0011664
14930.0 0.0011579
14950.0 0.0011498
14970.0 0.0011418
14990.0 0.0011344
15010.0 0.0011277
15030.0 0.0011215
15050.0 0.0011157
15070.0 0.0011105
15090.0 0.0011057
15110.0 0.0011009
15130.0 0.0010964
15150.0 0.001092
15170.0 0.0010876
15190.0 0.0010831
15210.0 0.0010788
15230.0 0.0010745
15250.0 0.00107
15270.0 0.0010657
15290.0 0.0010614
15310.0 0.0010571
15330.0 0.0010527
15350.0 0.0010485
15370.0 0.0010442
15390.0 0.0010398
15410.0 0.0010355
15430.0 0.0010313
15450.0 0.0010271
15470.0 0.0010227
15490.0 0.0010186
15510.0 0.0010144
15530.0 0.0010101
15550.0 0.0010059
15570.0 0.0010017
15590.0 0.00099751
15610.0 0.00099325
15630.0 0.00098912
15650.0 0.00098499
15670.0 0.00098078
15690.0 0.00097663
15710.0 0.00097258
15730.0 0.00096841
15750.0 0.00096426
15770.0 0.0009602
15790.0 0.00095613
15810.0 0.00095194
15830.0 0.00094787
15850.0 0.00094387
15870.0 0.0009398
15890.0 0.00093572
15910.0 0.00093176
15930.0 0.00092775
15950.0 0.00092366
15970.0 0.00091967
15990.0 0.00091573
16010.0 0.00091171
16030.0 0.00090768
16050.0 0.0009038
16070.0 0.00089988
16090.0 0.0008959
16110.0 0.000892
16130.0 0.00088816
16150.0 0.00088418
16170.0 0.00088027
16190.0 0.00087645
16210.0 0.0008726
16230.0 0.00086869
16250.0 0.00086489
16270.0 0.00086113
16290.0 0.00085728
16310.0 0.00085347
16330.0 0.00084974
16350.0 0.00084598
16370.0 0.00084212
16390.0 0.00083843
16410.0 0.00083475
16430.0 0.000831
16450.0 0.00082729
16470.0 0.00082369
16490.0 0.00082
16510.0 0.00081629
16530.0 0.00081268
16550.0 0.0008091
16570.0 0.00080543
16590.0 0.0008018
16610.0 0.0007983
16630.0 0.00079473
16650.0 0.00079115
16670.0 0.00078767
16690.0 0.0007842
16710.0 0.00078061
16730.0 0.00077712
16750.0 0.00077371
16770.0 0.00077024
16790.0 0.00076675
16810.0 0.00076339
16830.0 0.00076002
16850.0 0.00075659
16870.0 0.00075323
16890.0 0.00074994
16910.0 0.00074657
16930.0 0.00074319
16950.0 0.00073994
16970.0 0.00073668
16990.0 0.00073337
17010.0 0.00073013
17030.0 0.00072697
17050.0 0.00072372
17070.0 0.00072049
17090.0 0.00071736
17110.0 0.00071421
17130.0 0.00071099
17150.0 0.00070787
17170.0 0.00070482
17190.0 0.00070171
17210.0 0.00069861
17230.0 0.00069562
17250.0 0.00069259
17270.0 0.0006895
17290.0 0.00068651
17310.0 0.00068357
17330.0 0.00068057
17350.0 0.00067757
17370.0 0.00067471
17390.0 0.0006718
17410.0 0.00066886
17430.0 0.00066601
17450.0 0.00066321
17470.0 0.00066028
17490.0 0.00065743
17510.0 0.00065467
17530.0 0.00065188
17550.0 0.00064905
17570.0 0.00064632
17590.0 0.00064363
17610.0 0.00064086
17630.0 0.00063814
17650.0 0.0006355
17670.0 0.00063282
17690.0 0.00063007
17710.0 0.00062747
17730.0 0.00062489
17750.0 0.00062224
17770.0 0.00061964
17790.0 0.00061714
17810.0 0.00061455
17830.0 0.00061196
17850.0 0.00060946
17870.0 0.00060697
17890.0 0.00060442
17910.0 0.00060191
17930.0 0.00059952
17950.0 0.00059705
17970.0 0.00059458
17990.0 0.00059221
18010.0 0.00058984
18030.0 0.00058736
18050.0 0.00058498
18070.0 0.00058267
18090.0 0.0005803
18110.0 0.00057792
18130.0 0.00057565
18150.0 0.00057337
18170.0 0.00057103
18190.0 0.00056876
18210.0 0.00056655
18230.0 0.00056425
18250.0 0.00056195
18270.0 0.00055978
18290.0 0.00055758
18310.0 0.00055533
18330.0 0.00055316
18350.0 0.00055105
18370.0 0.00054884
18390.0 0.00054666
18410.0 0.00054456
18430.0 0.00054244
18450.0 0.00054024
18470.0 0.00053815
18490.0 0.00053611
18510.0 0.000534
18530.0 0.0005319
18550.0 0.00052991
18570.0 0.00052785
18590.0 0.00052574
18610.0 0.00052372
18630.0 0.00052174
18650.0 0.00051968
18670.0 0.00051764
18690.0 0.00051571
18710.0 0.00051373
18730.0 0.00051171
18750.0 0.00050977
18770.0 0.00050787
18790.0 0.00050583
18810.0 0.00050386
18830.0 0.00050198
18850.0 0.00050005
18870.0 0.00049808
18890.0 0.0004962
18910.0 0.00049434
18930.0 0.0004924
18950.0 0.00049049
18970.0 0.00048866
18990.0 0.00048677
19010.0 0.0004848
19030.0 0.00048299
19050.0 0.00048116
19070.0 0.00047926
19090.0 0.00047741
19110.0 0.00047564
19130.0 0.00047376
19150.0 0.00047188
19170.0 0.00047009
19190.0 0.00046828
19210.0 0.0004664
19230.0 0.00046456
19250.0 0.00046282
19270.0 0.000461
19290.0 0.00045916
19310.0 0.0004574
19330.0 0.00045563
19350.0 0.00045375
19370.0 0.00045196
19390.0 0.00045021
19410.0 0.0004484
19430.0 0.00044656
19450.0 0.00044484
19470.0 0.00044308
19490.0 0.00044124
19510.0 0.00043947
19530.0 0.00043775
19550.0 0.00043592
19570.0 0.00043408
19590.0 0.00043236
19610.0 0.00043059
19630.0 0.00042877
19650.0 0.00042701
19670.0 0.0004253
19690.0 0.00042347
19710.0 0.00042166
19730.0 0.00041993
19750.0 0.00041815
19770.0 0.00041628
19790.0 0.00041452
19810.0 0.0004128
19830.0 0.00041098
19850.0 0.00040918
19870.0 0.00040748
19890.0 0.00040571
19910.0 0.00040393
19930.0 0.00040231
19950.0 0.00040081
19970.0 0.00039938
19990.0 0.00039816
20010.0 0.00039723
20030.0 0.00039649
20050.0 0.00039595
20070.0 0.00039566
20090.0 0.00039554
20110.0 0.00039551
20130.0 0.0003956
20150.0 0.00039577
20170.0 0.00039596
20190.0 0.00039618
20210.0 0.00039643
20230.0 0.00039668
20250.0 0.00039691
20270.0 0.00039714
20290.0 0.00039736
20310.0 0.00039754
20330.0 0.00039769
20350.0 0.00039783
20370.0 0.00039793
20390.0 0.00039798
20410.0 0.00039801
20430.0 0.00039803
20450.0 0.00039798
20470.0 0.00039791
20490.0 0.00039785
20510.0 0.00039777
20530.0 0.00039766
20550.0 0.00039757
20570.0 0.00039752
20590.0 0.00039744
20610.0 0.00039738
20630.0 0.00039736
20650.0 0.00039734
20670.0 0.0003973
20690.0 0.00039728
20710.0 0.00039727
20730.0 0.00039723
20750.0 0.00039715
20770.0 0.00039707
20790.0 0.00039692
20810.0 0.00039669
20830.0 0.00039641
20850.0 0.00039607
20870.0 0.00039561
20890.0 0.00039505
20910.0 0.00039447
20930.0 0.00039378
20950.0 0.00039298
20970.0 0.00039215
20990.0 0.00039128
21010.0 0.00039028
21030.0 0.00038927
21050.0 0.00038827
21070.0 0.00038721
21090.0 0.00038609
21110.0 0.00038504
21130.0 0.00038399
21150.0 0.00038289
21170.0 0.0003818
21190.0 0.00038075
21210.0 0.00037965
21230.0 0.00037849
21250.0 0.00037738
21270.0 0.00037624
21290.0 0.00037502
21310.0 0.00037376
21330.0 0.00037252
21350.0 0.00037118
21370.0 0.00036974
21390.0 0.0003683
21410.0 0.00036681
21430.0 0.00036514
21450.0 0.00036347
21470.0 0.00036179
21490.0 0.00035999
21510.0 0.0003581
21530.0 0.00035624
21550.0 0.00035432
21570.0 0.00035226
21590.0 0.00035021
21610.0 0.00034818
21630.0 0.00034604
21650.0 0.00034381
21670.0 0.0003417
21690.0 0.00033953
21710.0 0.00033727
21730.0 0.00033504
21750.0 0.00033285
21770.0 0.00033052
21790.0 0.00032818
21810.0 0.00032589
21830.0 0.00032356
21850.0 0.00032112
21870.0 0.00031873
21890.0 0.00031638
21910.0 0.00031392
21930.0 0.00031144
21950.0 0.00030903
21970.0 0.00030659
21990.0 0.00030404
22010.0 0.0003016
22030.0 0.00029921
22050.0 0.00029678
22070.0 0.00029439
22090.0 0.00029212
22110.0 0.00028985
22130.0 0.00028759
22150.0 0.00028544
22170.0 0.00028336
22190.0 0.00028128
22210.0 0.00027927
22230.0 0.00027738
22250.0 0.0002755
22270.0 0.00027364
22290.0 0.00027187
22310.0 0.00027013
22330.0 0.00026836
22350.0 0.00026662
22370.0 0.00026493
22390.0 0.00026321
22410.0 0.00026145
22430.0 0.00025972
22450.0 0.00025798
22470.0 0.00025619
22490.0 0.00025438
22510.0 0.00025258
22530.0 0.00025071
22550.0 0.0002488
22570.0 0.00024691
22590.0 0.00024499
22610.0 0.00024301
22630.0 0.00024104
22650.0 0.00023908
22670.0 0.00023708
22690.0 0.00023506
22710.0 0.00023307
22730.0 0.00023107
22750.0 0.00022905
22770.0 0.00022705
22790.0 0.00022507
22810.0 0.00022309
22830.0 0.00022111
22850.0 0.00021915
22870.0 0.00021719
22890.0 0.00021522
22910.0 0.00021326
22930.0 0.0002113
22950.0 0.00020932
22970.0 0.00020732
22990.0 0.00020531
23010.0 0.00020327
23030.0 0.0002012
23050.0 0.00019911
23070.0 0.00019698
23090.0 0.0001948
23110.0 0.0001926
23130.0 0.00019037
23150.0 0.0001881
23170.0 0.00018581
23190.0 0.00018349
23210.0 0.00018114
23230.0 0.00017877
23250.0 0.00017639
23270.0 0.00017398
23290.0 0.00017155
23310.0 0.0001691
23330.0 0.00016662
23350.0 0.00016409
23370.0 0.00016154
23390.0 0.00015893
23410.0 0.00015625
23430.0 0.0001535
23450.0 0.00015069
23470.0 0.00014778
23490.0 0.00014477
23510.0 0.00014168
23530.0 0.00013846
23550.0 0.00013512
23570.0 0.00013166
23590.0 0.00012808
23610.0 0.00012436
23630.0 0.00012052
23650.0 0.00011654
23670.0 0.00011243
23690.0 0.00010819
23710.0 0.00010381
