#lamb flux
1010.0 2.2105e-07
1030.0 2.4383e-07
1050.0 2.66e-07
1070.0 2.9099e-07
1090.0 3.2058e-07
1110.0 3.5074e-07
1130.0 3.8102e-07
1150.0 4.1274e-07
1170.0 4.4562e-07
1190.0 4.7718e-07
1210.0 5.097e-07
1230.0 5.44e-07
1250.0 5.7829e-07
1270.0 6.127e-07
1290.0 6.5009e-07
1310.0 6.887e-07
1330.0 7.2716e-07
1350.0 7.6713e-07
1370.0 8.092e-07
1390.0 8.5123e-07
1410.0 8.9284e-07
1430.0 9.3632e-07
1450.0 9.7991e-07
1470.0 1.0221e-06
1490.0 1.0643e-06
1510.0 1.1079e-06
1530.0 1.1486e-06
1550.0 1.1877e-06
1570.0 1.2268e-06
1590.0 1.2645e-06
1610.0 1.299e-06
1630.0 1.3323e-06
1650.0 1.3649e-06
1670.0 1.3943e-06
1690.0 1.4213e-06
1710.0 1.4479e-06
1730.0 1.4728e-06
1750.0 1.4938e-06
1770.0 1.5143e-06
1790.0 1.5342e-06
1810.0 1.5519e-06
1830.0 1.5684e-06
1850.0 1.5864e-06
1870.0 1.6036e-06
1890.0 1.62e-06
1910.0 1.6379e-06
1930.0 1.6576e-06
1950.0 1.6773e-06
1970.0 1.6984e-06
1990.0 1.7224e-06
2010.0 1.748e-06
2030.0 1.7744e-06
2050.0 1.8037e-06
2070.0 1.8355e-06
2090.0 1.8671e-06
2110.0 1.8997e-06
2130.0 1.934e-06
2150.0 1.9681e-06
2170.0 2.0009e-06
2190.0 2.0343e-06
2210.0 2.0669e-06
2230.0 2.097e-06
2250.0 2.1253e-06
2270.0 2.1529e-06
2290.0 2.1772e-06
2310.0 2.1978e-06
2330.0 2.2166e-06
2350.0 2.2329e-06
2370.0 2.2451e-06
2390.0 2.2546e-06
2410.0 2.2624e-06
2430.0 2.2662e-06
2450.0 2.2662e-06
2470.0 2.2637e-06
2490.0 2.2585e-06
2510.0 2.2505e-06
2530.0 2.2453e-06
2550.0 2.2514e-06
2570.0 2.2786e-06
2590.0 2.3385e-06
2610.0 2.4585e-06
2630.0 2.6474e-06
2650.0 2.8943e-06
2670.0 3.2023e-06
2690.0 3.5572e-06
2710.0 3.9006e-06
2730.0 4.1971e-06
2750.0 4.4352e-06
2770.0 4.5661e-06
2790.0 4.5756e-06
2810.0 4.4698e-06
2830.0 4.2441e-06
2850.0 3.933e-06
2870.0 3.5579e-06
2890.0 3.1223e-06
2910.0 2.6525e-06
2930.0 2.1782e-06
2950.0 1.675e-06
2970.0 1.151e-06
2990.0 6.3241e-07
3010.0 2.7214e-07
3030.0 2.7214e-07
3050.0 2.7214e-07
3070.0 2.7214e-07
3090.0 2.7214e-07
3110.0 2.7214e-07
3130.0 2.7214e-07
3150.0 2.7214e-07
3170.0 2.7214e-07
3190.0 2.7214e-07
3210.0 4.6908e-06
3230.0 1.9827e-05
3250.0 2.9087e-05
3270.0 2.5684e-05
3290.0 2.0013e-05
3310.0 1.5345e-05
3330.0 1.4368e-05
3350.0 1.539e-05
3370.0 1.7057e-05
3390.0 1.8816e-05
3410.0 2.0687e-05
3430.0 2.3154e-05
3450.0 2.5471e-05
3470.0 2.7852e-05
3490.0 2.8154e-05
3510.0 2.3686e-05
3530.0 2.1385e-05
3550.0 2.667e-05
3570.0 3.2976e-05
3590.0 3.6662e-05
3610.0 3.7573e-05
3630.0 4.1643e-05
3650.0 4.2524e-05
3670.0 4.4099e-05
3690.0 4.9628e-05
3710.0 5.456e-05
3730.0 5.8349e-05
3750.0 6.0029e-05
3770.0 6.0707e-05
3790.0 5.895e-05
3810.0 5.4933e-05
3830.0 4.9289e-05
3850.0 3.5167e-05
3870.0 3.2581e-05
3890.0 3.6977e-05
3910.0 4.9839e-05
3930.0 6.3832e-05
3950.0 6.9358e-05
3970.0 7.2499e-05
3990.0 8.1091e-05
4010.0 8.1681e-05
4030.0 7.3415e-05
4050.0 5.3507e-05
4070.0 4.544e-05
4090.0 5.5221e-05
4110.0 6.0419e-05
4130.0 6.5313e-05
4150.0 6.4713e-05
4170.0 6.1547e-05
4190.0 5.7382e-05
4210.0 6.4998e-05
4230.0 7.0056e-05
4250.0 7.5209e-05
4270.0 7.4207e-05
4290.0 7.1422e-05
4310.0 7.2799e-05
4330.0 8.2554e-05
4350.0 9.1188e-05
4370.0 9.279e-05
4390.0 8.6454e-05
4410.0 7.7689e-05
4430.0 6.1554e-05
4450.0 4.9638e-05
4470.0 5.0232e-05
4490.0 5.6767e-05
4510.0 6.0773e-05
4530.0 6.1694e-05
4550.0 6.336e-05
4570.0 8.5974e-05
4590.0 0.00012456
4610.0 0.00014789
4630.0 0.00015451
4650.0 0.0001702
4670.0 0.00019632
4690.0 0.00020582
4710.0 0.00017637
4730.0 0.00013611
4750.0 0.00010555
4770.0 8.8512e-05
4790.0 7.9561e-05
4810.0 7.5851e-05
4830.0 8.3434e-05
4850.0 0.00010033
4870.0 0.00011207
4890.0 0.00011535
4910.0 0.00011353
4930.0 0.00012552
4950.0 0.00014836
4970.0 0.00016529
4990.0 0.00016702
5010.0 0.00015163
5030.0 0.00012514
5050.0 9.9177e-05
5070.0 8.2376e-05
5090.0 7.616e-05
5110.0 7.6004e-05
5130.0 7.7181e-05
5150.0 7.6166e-05
5170.0 7.1334e-05
5190.0 6.7907e-05
5210.0 6.9358e-05
5230.0 7.9348e-05
5250.0 9.6671e-05
5270.0 0.00011541
5290.0 0.00012861
5310.0 0.00013893
5330.0 0.00015492
5350.0 0.00017017
5370.0 0.00017167
5390.0 0.0001572
5410.0 0.00014301
5430.0 0.00014407
5450.0 0.00016741
5470.0 0.00020099
5490.0 0.00022787
5510.0 0.0002394
5530.0 0.00023743
5550.0 0.00022917
5570.0 0.00022109
5590.0 0.00021301
5610.0 0.00020857
5630.0 0.00020923
5650.0 0.00021045
5670.0 0.00020253
5690.0 0.00018227
5710.0 0.000159
5730.0 0.00014523
5750.0 0.00014175
5770.0 0.00014666
5790.0 0.00015209
5810.0 0.00015618
5830.0 0.00015802
5850.0 0.00015354
5870.0 0.00014802
5890.0 0.00014781
5910.0 0.00015363
5930.0 0.00015716
5950.0 0.00014865
5970.0 0.00013123
5990.0 0.00010868
6010.0 9.0177e-05
6030.0 8.5198e-05
6050.0 9.2451e-05
6070.0 9.7383e-05
6090.0 9.1411e-05
6110.0 8.2188e-05
6130.0 8.4809e-05
6150.0 9.7008e-05
6170.0 0.00010855
6190.0 0.00011602
6210.0 0.00011829
6230.0 0.00011664
6250.0 0.00010607
6270.0 8.8509e-05
6290.0 7.3571e-05
6310.0 6.6751e-05
6330.0 6.6506e-05
6350.0 6.8007e-05
6370.0 7.0795e-05
6390.0 8.1459e-05
6410.0 0.00010031
6430.0 0.00011847
6450.0 0.00012815
6470.0 0.0001316
6490.0 0.00013274
6510.0 0.00013435
6530.0 0.00013631
6550.0 0.00013719
6570.0 0.00014154
6590.0 0.00014542
6610.0 0.00014626
6630.0 0.00014097
6650.0 0.0001303
6670.0 0.00011943
6690.0 0.00011141
6710.0 0.00010643
6730.0 0.00010281
6750.0 0.00010204
6770.0 0.00010484
6790.0 0.00010886
6810.0 0.0001111
6830.0 0.00010929
6850.0 0.0001036
6870.0 9.741e-05
6890.0 9.5077e-05
6910.0 9.4306e-05
6930.0 9.7189e-05
6950.0 0.0001009
6970.0 0.00010327
6990.0 0.00010424
7010.0 0.00010084
7030.0 9.2786e-05
7050.0 8.2669e-05
7070.0 7.5587e-05
7090.0 7.3349e-05
7110.0 7.3504e-05
7130.0 6.9998e-05
7150.0 6.2298e-05
7170.0 6.0108e-05
7190.0 6.681e-05
7210.0 7.7659e-05
7230.0 8.7686e-05
7250.0 9.1379e-05
7270.0 8.9395e-05
7290.0 8.3298e-05
7310.0 7.8039e-05
7330.0 7.6463e-05
7350.0 7.734e-05
7370.0 7.8629e-05
7390.0 8.2589e-05
7410.0 9.1479e-05
7430.0 0.0001036
7450.0 0.00011422
7470.0 0.00011829
7490.0 0.00011342
7510.0 0.00010465
7530.0 9.5614e-05
7550.0 8.8538e-05
7570.0 8.0896e-05
7590.0 7.6901e-05
7610.0 7.7447e-05
7630.0 8.1596e-05
7650.0 8.8535e-05
7670.0 9.6519e-05
7690.0 0.00010299
7710.0 0.00010838
7730.0 0.00011325
7750.0 0.00011712
7770.0 0.00011684
7790.0 0.00011762
7810.0 0.00011799
7830.0 0.00011496
7850.0 0.00011064
7870.0 0.00010788
7890.0 0.00010878
7910.0 0.00010775
7930.0 0.00010525
7950.0 0.00010033
7970.0 9.6584e-05
7990.0 9.2663e-05
8010.0 9.06e-05
8030.0 9.0883e-05
8050.0 9.0844e-05
8070.0 8.9442e-05
8090.0 8.8469e-05
8110.0 8.5982e-05
8130.0 8.5806e-05
8150.0 8.4804e-05
8170.0 8.2746e-05
8190.0 8.0491e-05
8210.0 7.8951e-05
8230.0 7.6874e-05
8250.0 7.5834e-05
8270.0 7.0028e-05
8290.0 5.8593e-05
8310.0 4.5767e-05
8330.0 3.7005e-05
8350.0 3.5076e-05
8370.0 4.0646e-05
8390.0 4.8047e-05
8410.0 5.1328e-05
8430.0 5.2522e-05
8450.0 5.555e-05
8470.0 5.9895e-05
8490.0 6.6738e-05
8510.0 7.5263e-05
8530.0 8.4697e-05
8550.0 9.2628e-05
8570.0 9.8679e-05
8590.0 0.00010317
8610.0 0.00010541
8630.0 0.00010483
8650.0 0.00010315
8670.0 0.00010308
8690.0 0.00010853
8710.0 0.00011599
8730.0 0.00012015
8750.0 0.0001195
8770.0 0.000121
8790.0 0.00012074
8810.0 0.00011412
8830.0 0.00010637
8850.0 9.6471e-05
8870.0 8.8688e-05
8890.0 8.6301e-05
8910.0 8.5645e-05
8930.0 8.0472e-05
8950.0 7.4456e-05
8970.0 7.1879e-05
8990.0 7.1579e-05
9010.0 6.9369e-05
9030.0 6.7903e-05
9050.0 6.7276e-05
9070.0 6.6975e-05
9090.0 6.6718e-05
9110.0 6.6469e-05
9130.0 6.6221e-05
9150.0 6.5979e-05
9170.0 6.572e-05
9190.0 6.5532e-05
9210.0 6.5509e-05
9230.0 6.5179e-05
9250.0 6.4896e-05
9270.0 6.4641e-05
9290.0 6.4405e-05
9310.0 6.4175e-05
9330.0 6.3954e-05
9350.0 6.3748e-05
9370.0 6.3543e-05
9390.0 6.3336e-05
9410.0 6.3137e-05
9430.0 6.2929e-05
9450.0 6.2632e-05
9470.0 6.2368e-05
9490.0 6.2271e-05
9510.0 6.2127e-05
9530.0 6.1971e-05
9550.0 6.1807e-05
9570.0 6.1637e-05
9590.0 6.1465e-05
9610.0 6.1294e-05
9630.0 6.1121e-05
9650.0 6.095e-05
9670.0 6.0782e-05
9690.0 6.0613e-05
9710.0 6.0446e-05
9730.0 6.0281e-05
9750.0 6.0117e-05
9770.0 5.9951e-05
9790.0 5.9788e-05
9810.0 5.9626e-05
9830.0 5.9462e-05
9850.0 5.9299e-05
9870.0 5.9138e-05
9890.0 5.8975e-05
9910.0 5.8811e-05
9930.0 5.8642e-05
9950.0 5.8127e-05
9970.0 5.8064e-05
9990.0 5.798e-05
10010.0 5.7888e-05
10030.0 5.7763e-05
10050.0 5.7611e-05
10070.0 5.7456e-05
10090.0 5.7301e-05
10110.0 5.7113e-05
10130.0 5.691e-05
10150.0 5.674e-05
10170.0 5.6564e-05
10190.0 5.6365e-05
10210.0 5.6182e-05
10230.0 5.6001e-05
10250.0 5.5796e-05
10270.0 5.5591e-05
10290.0 5.54e-05
10310.0 5.5187e-05
10330.0 5.4956e-05
10350.0 5.4743e-05
10370.0 5.4527e-05
10390.0 5.4288e-05
10410.0 5.4048e-05
10430.0 5.3826e-05
10450.0 5.358e-05
10470.0 5.332e-05
10490.0 5.3072e-05
10510.0 5.282e-05
10530.0 5.2533e-05
10550.0 5.2254e-05
10570.0 5.1988e-05
10590.0 5.1699e-05
10610.0 5.1395e-05
10630.0 5.1107e-05
10650.0 5.0809e-05
10670.0 5.048e-05
10690.0 5.0158e-05
10710.0 4.9842e-05
10730.0 4.9502e-05
10750.0 4.9138e-05
10770.0 4.8803e-05
10790.0 4.8453e-05
10810.0 4.8077e-05
10830.0 4.7705e-05
10850.0 4.7344e-05
10870.0 4.694e-05
10890.0 4.6529e-05
10910.0 4.6131e-05
10930.0 4.5716e-05
10950.0 4.5268e-05
10970.0 4.482e-05
10990.0 4.4381e-05
11010.0 4.8003e-05
11030.0 4.7497e-05
11050.0 4.7006e-05
11070.0 4.6504e-05
11090.0 4.5964e-05
11110.0 4.5461e-05
11130.0 4.4971e-05
11150.0 4.4464e-05
11170.0 4.3959e-05
11190.0 4.3486e-05
11210.0 4.3001e-05
11230.0 4.2503e-05
11250.0 4.2027e-05
11270.0 4.1563e-05
11290.0 4.108e-05
11310.0 4.0601e-05
11330.0 4.0155e-05
11350.0 3.9696e-05
11370.0 3.9226e-05
11390.0 3.8767e-05
11410.0 3.8308e-05
11430.0 3.7806e-05
11450.0 3.7296e-05
11470.0 3.6781e-05
11490.0 3.6228e-05
11510.0 3.5626e-05
11530.0 3.5022e-05
11550.0 3.4394e-05
11570.0 3.3712e-05
11590.0 3.3012e-05
11610.0 3.2314e-05
11630.0 3.1576e-05
11650.0 3.0809e-05
11670.0 3.0071e-05
11690.0 2.9335e-05
11710.0 2.8581e-05
11730.0 2.7845e-05
11750.0 2.715e-05
11770.0 2.6446e-05
11790.0 2.5751e-05
11810.0 2.5095e-05
11830.0 2.4458e-05
11850.0 2.381e-05
11870.0 2.3197e-05
11890.0 2.262e-05
11910.0 2.2043e-05
11930.0 2.1478e-05
11950.0 2.0949e-05
11970.0 2.0434e-05
11990.0 1.9918e-05
12010.0 1.9435e-05
12030.0 1.8981e-05
12050.0 1.8539e-05
12070.0 1.8114e-05
12090.0 1.7738e-05
12110.0 1.7385e-05
12130.0 1.7056e-05
12150.0 1.6766e-05
12170.0 1.6516e-05
12190.0 1.6292e-05
12210.0 1.6111e-05
12230.0 1.5972e-05
12250.0 1.5871e-05
12270.0 1.581e-05
12290.0 1.5787e-05
12310.0 1.5797e-05
12330.0 1.5844e-05
12350.0 1.5925e-05
12370.0 1.6027e-05
12390.0 1.6155e-05
12410.0 1.6317e-05
12430.0 1.6483e-05
12450.0 1.6659e-05
12470.0 1.6852e-05
12490.0 1.7051e-05
12510.0 1.7236e-05
12530.0 1.7427e-05
12550.0 1.7615e-05
12570.0 1.7782e-05
12590.0 1.7928e-05
12610.0 1.8061e-05
12630.0 1.8165e-05
12650.0 1.8228e-05
12670.0 1.8261e-05
12690.0 1.8259e-05
12710.0 1.8215e-05
12730.0 1.8132e-05
12750.0 1.801e-05
12770.0 1.785e-05
12790.0 1.7656e-05
12810.0 1.743e-05
12830.0 1.7173e-05
12850.0 1.6901e-05
12870.0 1.6614e-05
12890.0 1.6309e-05
12910.0 1.6001e-05
12930.0 1.5697e-05
12950.0 1.5388e-05
12970.0 1.508e-05
12990.0 1.4789e-05
13010.0 1.4507e-05
13030.0 1.4228e-05
13050.0 1.3963e-05
13070.0 1.3713e-05
13090.0 1.3465e-05
13110.0 1.3223e-05
13130.0 1.2995e-05
13150.0 1.2773e-05
13170.0 1.2549e-05
13190.0 1.2336e-05
13210.0 1.2133e-05
13230.0 1.1931e-05
13250.0 1.1734e-05
13270.0 1.1549e-05
13290.0 1.1369e-05
13310.0 1.1193e-05
13330.0 1.103e-05
13350.0 1.0879e-05
13370.0 1.0736e-05
13390.0 1.0605e-05
13410.0 1.049e-05
13430.0 1.0385e-05
13450.0 1.029e-05
13470.0 1.0206e-05
13490.0 1.0131e-05
13510.0 1.006e-05
13530.0 9.9928e-06
13550.0 9.928e-06
13570.0 9.8619e-06
13590.0 9.7918e-06
13610.0 9.7179e-06
13630.0 9.6397e-06
13650.0 9.5537e-06
13670.0 9.4619e-06
13690.0 9.367e-06
13710.0 9.2671e-06
13730.0 9.1608e-06
13750.0 9.0578e-06
13770.0 8.9561e-06
13790.0 8.8542e-06
13810.0 8.7565e-06
13830.0 8.6664e-06
13850.0 8.5797e-06
13870.0 8.4979e-06
13890.0 8.4242e-06
13910.0 8.3564e-06
13930.0 8.2921e-06
13950.0 8.2325e-06
13970.0 8.1781e-06
13990.0 8.1248e-06
14010.0 8.0718e-06
14030.0 8.0199e-06
14050.0 7.9671e-06
14070.0 7.9099e-06
14090.0 7.8507e-06
14110.0 7.7894e-06
14130.0 7.7232e-06
14150.0 7.6518e-06
14170.0 7.5801e-06
14190.0 7.5059e-06
14210.0 7.4276e-06
14230.0 7.3499e-06
14250.0 7.2751e-06
14270.0 7.1996e-06
14290.0 7.1266e-06
14310.0 7.0619e-06
14330.0 7.0026e-06
14350.0 6.9486e-06
14370.0 6.9032e-06
14390.0 6.8667e-06
14410.0 6.8362e-06
14430.0 6.8131e-06
14450.0 6.7973e-06
14470.0 6.7871e-06
14490.0 6.7815e-06
14510.0 6.7804e-06
14530.0 6.7828e-06
14550.0 6.7883e-06
14570.0 6.7969e-06
14590.0 6.8087e-06
14610.0 6.8246e-06
14630.0 6.8459e-06
14650.0 6.873e-06
14670.0 6.9068e-06
14690.0 6.9501e-06
14710.0 7.0042e-06
14730.0 7.0663e-06
14750.0 7.1407e-06
14770.0 7.2297e-06
14790.0 7.33e-06
14810.0 7.4413e-06
14830.0 7.574e-06
14850.0 7.7204e-06
14870.0 7.8761e-06
14890.0 8.0468e-06
14910.0 8.2321e-06
14930.0 8.4164e-06
14950.0 8.5954e-06
14970.0 8.772e-06
14990.0 8.9299e-06
15010.0 9.0622e-06
15030.0 9.1728e-06
15050.0 9.2619e-06
15070.0 9.3271e-06
15090.0 9.378e-06
15110.0 9.4192e-06
15130.0 9.4541e-06
15150.0 9.4857e-06
15170.0 9.5161e-06
15190.0 9.5461e-06
15210.0 9.5764e-06
15230.0 9.6072e-06
15250.0 9.6385e-06
15270.0 9.6704e-06
15290.0 9.7031e-06
15310.0 9.7362e-06
15330.0 9.7699e-06
15350.0 9.8043e-06
15370.0 9.8392e-06
15390.0 9.8745e-06
15410.0 9.9105e-06
15430.0 9.9471e-06
15450.0 9.9841e-06
15470.0 1.0022e-05
15490.0 1.006e-05
15510.0 1.0098e-05
15530.0 1.0137e-05
15550.0 1.0177e-05
15570.0 1.0217e-05
15590.0 1.0257e-05
15610.0 1.0298e-05
15630.0 1.0339e-05
15650.0 1.0381e-05
15670.0 1.0423e-05
15690.0 1.0465e-05
15710.0 1.0508e-05
15730.0 1.0552e-05
15750.0 1.0595e-05
15770.0 1.0639e-05
15790.0 1.0683e-05
15810.0 1.0728e-05
15830.0 1.0772e-05
15850.0 1.0818e-05
15870.0 1.0863e-05
15890.0 1.0908e-05
15910.0 1.0954e-05
15930.0 1.1e-05
15950.0 1.1047e-05
15970.0 1.1093e-05
15990.0 1.114e-05
16010.0 1.1186e-05
16030.0 1.1233e-05
16050.0 1.128e-05
16070.0 1.1327e-05
16090.0 1.1375e-05
16110.0 1.1422e-05
16130.0 1.1469e-05
16150.0 1.1517e-05
16170.0 1.1564e-05
16190.0 1.1612e-05
16210.0 1.1659e-05
16230.0 1.1706e-05
16250.0 1.1754e-05
16270.0 1.1801e-05
16290.0 1.1848e-05
16310.0 1.1895e-05
16330.0 1.1942e-05
16350.0 1.1989e-05
16370.0 1.2035e-05
16390.0 1.2082e-05
16410.0 1.2128e-05
16430.0 1.2174e-05
16450.0 1.222e-05
16470.0 1.2265e-05
16490.0 1.2311e-05
16510.0 1.2355e-05
16530.0 1.24e-05
16550.0 1.2444e-05
16570.0 1.2488e-05
16590.0 1.2532e-05
16610.0 1.2575e-05
16630.0 1.2618e-05
16650.0 1.266e-05
16670.0 1.2702e-05
16690.0 1.2744e-05
16710.0 1.2784e-05
16730.0 1.2825e-05
16750.0 1.2865e-05
16770.0 1.2904e-05
16790.0 1.2943e-05
16810.0 1.2981e-05
16830.0 1.3019e-05
16850.0 1.3055e-05
16870.0 1.3092e-05
16890.0 1.3128e-05
16910.0 1.3162e-05
16930.0 1.3197e-05
16950.0 1.323e-05
16970.0 1.3263e-05
16990.0 1.3295e-05
17010.0 1.3327e-05
17030.0 1.3357e-05
17050.0 1.3387e-05
17070.0 1.3416e-05
17090.0 1.3444e-05
17110.0 1.3472e-05
17130.0 1.3498e-05
17150.0 1.3524e-05
17170.0 1.3549e-05
17190.0 1.3572e-05
17210.0 1.3595e-05
17230.0 1.3618e-05
17250.0 1.3639e-05
17270.0 1.3659e-05
17290.0 1.3678e-05
17310.0 1.3696e-05
17330.0 1.3714e-05
17350.0 1.373e-05
17370.0 1.3745e-05
17390.0 1.376e-05
17410.0 1.3773e-05
17430.0 1.3785e-05
17450.0 1.3797e-05
17470.0 1.3807e-05
17490.0 1.3816e-05
17510.0 1.3824e-05
17530.0 1.3831e-05
17550.0 1.3837e-05
17570.0 1.3842e-05
17590.0 1.3846e-05
17610.0 1.3849e-05
17630.0 1.3851e-05
17650.0 1.3851e-05
17670.0 1.3851e-05
17690.0 1.3849e-05
17710.0 1.3847e-05
17730.0 1.3843e-05
17750.0 1.3838e-05
17770.0 1.3833e-05
17790.0 1.3826e-05
17810.0 1.3818e-05
17830.0 1.3809e-05
17850.0 1.3798e-05
17870.0 1.3787e-05
17890.0 1.3775e-05
17910.0 1.3762e-05
17930.0 1.3747e-05
17950.0 1.3732e-05
17970.0 1.3715e-05
17990.0 1.3698e-05
18010.0 1.3679e-05
18030.0 1.3659e-05
18050.0 1.3639e-05
18070.0 1.3617e-05
18090.0 1.3594e-05
18110.0 1.357e-05
18130.0 1.3546e-05
18150.0 1.352e-05
18170.0 1.3493e-05
18190.0 1.3466e-05
18210.0 1.3437e-05
18230.0 1.3407e-05
18250.0 1.3377e-05
18270.0 1.3346e-05
18290.0 1.3313e-05
18310.0 1.328e-05
18330.0 1.3246e-05
18350.0 1.3211e-05
18370.0 1.3175e-05
18390.0 1.3138e-05
18410.0 1.3101e-05
18430.0 1.3062e-05
18450.0 1.3023e-05
18470.0 1.2983e-05
18490.0 1.2943e-05
18510.0 1.2901e-05
18530.0 1.2859e-05
18550.0 1.2816e-05
18570.0 1.2772e-05
18590.0 1.2728e-05
18610.0 1.2683e-05
18630.0 1.2637e-05
18650.0 1.259e-05
18670.0 1.2543e-05
18690.0 1.2496e-05
18710.0 1.2447e-05
18730.0 1.2398e-05
18750.0 1.2349e-05
18770.0 1.2299e-05
18790.0 1.2248e-05
18810.0 1.2197e-05
18830.0 1.2146e-05
18850.0 1.2093e-05
18870.0 1.2041e-05
18890.0 1.1988e-05
18910.0 1.1934e-05
18930.0 1.188e-05
18950.0 1.1826e-05
18970.0 1.1771e-05
18990.0 1.1716e-05
19010.0 1.1661e-05
19030.0 1.1605e-05
19050.0 1.1549e-05
19070.0 1.1492e-05
19090.0 1.1436e-05
19110.0 1.1379e-05
19130.0 1.1321e-05
19150.0 1.1264e-05
19170.0 1.1206e-05
19190.0 1.1148e-05
19210.0 1.109e-05
19230.0 1.1031e-05
19250.0 1.0973e-05
19270.0 1.0914e-05
19290.0 1.0855e-05
19310.0 1.0796e-05
19330.0 1.0737e-05
19350.0 1.0678e-05
19370.0 1.0618e-05
19390.0 1.0559e-05
19410.0 1.0499e-05
19430.0 1.044e-05
19450.0 1.038e-05
19470.0 1.0321e-05
19490.0 1.0261e-05
19510.0 1.0202e-05
19530.0 1.0142e-05
19550.0 1.0082e-05
19570.0 1.0023e-05
19590.0 9.9635e-06
19610.0 9.9042e-06
19630.0 9.8448e-06
19650.0 9.7856e-06
19670.0 9.7265e-06
19690.0 9.6674e-06
19710.0 9.6085e-06
19730.0 9.5497e-06
19750.0 9.4911e-06
19770.0 9.4325e-06
19790.0 9.3741e-06
19810.0 9.3159e-06
19830.0 9.2576e-06
19850.0 9.199e-06
19870.0 9.1399e-06
19890.0 9.0791e-06
19910.0 9.0148e-06
19930.0 8.9455e-06
19950.0 8.8685e-06
19970.0 8.7792e-06
19990.0 8.6754e-06
20010.0 8.5591e-06
20030.0 8.4251e-06
20050.0 8.2745e-06
20070.0 8.1152e-06
20090.0 7.9488e-06
20110.0 7.7697e-06
20130.0 7.5925e-06
20150.0 7.4204e-06
20170.0 7.2475e-06
20190.0 7.0765e-06
20210.0 6.9157e-06
20230.0 6.7601e-06
20250.0 6.6061e-06
20270.0 6.4612e-06
20290.0 6.3255e-06
20310.0 6.194e-06
20330.0 6.0669e-06
20350.0 5.9526e-06
20370.0 5.844e-06
20390.0 5.7401e-06
20410.0 5.6441e-06
20430.0 5.5563e-06
20450.0 5.4718e-06
20470.0 5.3935e-06
20490.0 5.3225e-06
20510.0 5.2563e-06
20530.0 5.1942e-06
20550.0 5.1376e-06
20570.0 5.086e-06
20590.0 5.0375e-06
20610.0 4.9927e-06
20630.0 4.9514e-06
20650.0 4.9128e-06
20670.0 4.8763e-06
20690.0 4.8422e-06
20710.0 4.8096e-06
20730.0 4.7781e-06
20750.0 4.7475e-06
20770.0 4.7174e-06
20790.0 4.6873e-06
20810.0 4.6571e-06
20830.0 4.6264e-06
20850.0 4.5951e-06
20870.0 4.5627e-06
20890.0 4.5292e-06
20910.0 4.4949e-06
20930.0 4.4592e-06
20950.0 4.422e-06
20970.0 4.3838e-06
20990.0 4.3447e-06
21010.0 4.3037e-06
21030.0 4.2618e-06
21050.0 4.2194e-06
21070.0 4.1759e-06
21090.0 4.1309e-06
21110.0 4.0862e-06
21130.0 4.0414e-06
21150.0 3.9955e-06
21170.0 3.9496e-06
21190.0 3.9045e-06
21210.0 3.8586e-06
21230.0 3.8125e-06
21250.0 3.7677e-06
21270.0 3.7234e-06
21290.0 3.6788e-06
21310.0 3.6352e-06
21330.0 3.5935e-06
21350.0 3.5518e-06
21370.0 3.5109e-06
21390.0 3.4719e-06
21410.0 3.4342e-06
21430.0 3.3968e-06
21450.0 3.3616e-06
21470.0 3.3284e-06
21490.0 3.2965e-06
21510.0 3.2662e-06
21530.0 3.2381e-06
21550.0 3.2117e-06
21570.0 3.1868e-06
21590.0 3.164e-06
21610.0 3.1429e-06
21630.0 3.1235e-06
21650.0 3.1057e-06
21670.0 3.0895e-06
21690.0 3.0747e-06
21710.0 3.0613e-06
21730.0 3.049e-06
21750.0 3.0377e-06
21770.0 3.0275e-06
21790.0 3.0182e-06
21810.0 3.0093e-06
21830.0 3.0009e-06
21850.0 2.9931e-06
21870.0 2.9854e-06
21890.0 2.9774e-06
21910.0 2.9698e-06
21930.0 2.9619e-06
21950.0 2.9536e-06
21970.0 2.9449e-06
21990.0 2.9361e-06
22010.0 2.9265e-06
22030.0 2.9163e-06
22050.0 2.9056e-06
22070.0 2.8943e-06
22090.0 2.8823e-06
22110.0 2.8698e-06
22130.0 2.8568e-06
22150.0 2.8432e-06
22170.0 2.8292e-06
22190.0 2.8147e-06
22210.0 2.7997e-06
22230.0 2.7845e-06
22250.0 2.7687e-06
22270.0 2.7525e-06
22290.0 2.7359e-06
22310.0 2.7188e-06
22330.0 2.7008e-06
22350.0 2.6822e-06
22370.0 2.6629e-06
22390.0 2.6425e-06
22410.0 2.6206e-06
22430.0 2.5981e-06
22450.0 2.5743e-06
22470.0 2.5486e-06
22490.0 2.5215e-06
22510.0 2.4936e-06
22530.0 2.4635e-06
22550.0 2.4315e-06
22570.0 2.3991e-06
22590.0 2.3656e-06
22610.0 2.3301e-06
