#lamb flux
1010.0 6.2855e-09
1030.0 6.9519e-09
1050.0 7.7182e-09
1070.0 8.5809e-09
1090.0 9.5609e-09
1110.0 1.0566e-08
1130.0 1.1578e-08
1150.0 1.2637e-08
1170.0 1.373e-08
1190.0 1.4767e-08
1210.0 1.5817e-08
1230.0 1.6903e-08
1250.0 1.7966e-08
1270.0 1.8999e-08
1290.0 2.009e-08
1310.0 2.1181e-08
1330.0 2.2227e-08
1350.0 2.3284e-08
1370.0 2.4376e-08
1390.0 2.5441e-08
1410.0 2.6474e-08
1430.0 2.7554e-08
1450.0 2.8634e-08
1470.0 2.9678e-08
1490.0 3.0733e-08
1510.0 3.1847e-08
1530.0 3.2904e-08
1550.0 3.3946e-08
1570.0 3.5024e-08
1590.0 3.6104e-08
1610.0 3.7136e-08
1630.0 3.82e-08
1650.0 3.9293e-08
1670.0 4.035e-08
1690.0 4.1395e-08
1710.0 4.248e-08
1730.0 4.3573e-08
1750.0 4.4601e-08
1770.0 4.5661e-08
1790.0 4.6743e-08
1810.0 4.7792e-08
1830.0 4.8824e-08
1850.0 4.9921e-08
1870.0 5.0992e-08
1890.0 5.2028e-08
1910.0 5.3087e-08
1930.0 5.4174e-08
1950.0 5.5214e-08
1970.0 5.6243e-08
1990.0 5.7314e-08
2010.0 5.8369e-08
2030.0 5.9389e-08
2050.0 6.0443e-08
2070.0 6.1526e-08
2090.0 6.2549e-08
2110.0 6.3572e-08
2130.0 6.4628e-08
2150.0 6.5665e-08
2170.0 6.666e-08
2190.0 6.7694e-08
2210.0 6.8737e-08
2230.0 6.9739e-08
2250.0 7.0738e-08
2270.0 7.1783e-08
2290.0 7.2797e-08
2310.0 7.3772e-08
2330.0 7.4786e-08
2350.0 7.5827e-08
2370.0 7.6864e-08
2390.0 7.7988e-08
2410.0 7.9318e-08
2430.0 8.0849e-08
2450.0 8.2678e-08
2470.0 8.5023e-08
2490.0 8.7977e-08
2510.0 9.1336e-08
2530.0 9.5379e-08
2550.0 1.0044e-07
2570.0 1.0673e-07
2590.0 1.1492e-07
2610.0 1.2718e-07
2630.0 1.4469e-07
2650.0 1.6758e-07
2670.0 1.9717e-07
2690.0 2.3353e-07
2710.0 2.7235e-07
2730.0 3.1071e-07
2750.0 3.4849e-07
2770.0 3.8135e-07
2790.0 4.0744e-07
2810.0 4.2815e-07
2830.0 4.4433e-07
2850.0 4.5538e-07
2870.0 4.6348e-07
2890.0 4.699e-07
2910.0 4.7502e-07
2930.0 4.7921e-07
2950.0 4.8321e-07
2970.0 4.8711e-07
2990.0 4.9078e-07
3010.0 1.3872e-05
3030.0 1.3976e-05
3050.0 1.4076e-05
3070.0 1.4162e-05
3090.0 1.4236e-05
3110.0 1.4281e-05
3130.0 1.428e-05
3150.0 1.4216e-05
3170.0 1.4064e-05
3190.0 1.3825e-05
3210.0 1.3522e-05
3230.0 1.3174e-05
3250.0 1.2832e-05
3270.0 1.2582e-05
3290.0 1.2443e-05
3310.0 1.2465e-05
3330.0 1.2645e-05
3350.0 1.296e-05
3370.0 1.3408e-05
3390.0 1.3973e-05
3410.0 1.4589e-05
3430.0 1.5279e-05
3450.0 1.6074e-05
3470.0 1.6943e-05
3490.0 1.7863e-05
3510.0 1.8903e-05
3530.0 2.0017e-05
3550.0 2.1144e-05
3570.0 2.2321e-05
3590.0 2.36e-05
3610.0 2.4918e-05
3630.0 2.6233e-05
3650.0 2.7596e-05
3670.0 2.8841e-05
3690.0 2.9771e-05
3710.0 3.0304e-05
3730.0 3.0322e-05
3750.0 2.99e-05
3770.0 2.9734e-05
3790.0 2.9558e-05
3810.0 2.8831e-05
3830.0 2.9724e-05
3850.0 3.3234e-05
3870.0 3.5162e-05
3890.0 3.5001e-05
3910.0 3.515e-05
3930.0 3.6076e-05
3950.0 3.6645e-05
3970.0 3.3387e-05
3990.0 2.8728e-05
4010.0 8.6103e-05
4030.0 0.00010433
4050.0 0.0001196
4070.0 0.00010378
4090.0 9.3989e-05
4110.0 8.2936e-05
4130.0 7.6335e-05
4150.0 8.1197e-05
4170.0 7.9982e-05
4190.0 8.5255e-05
4210.0 8.4476e-05
4230.0 8.9353e-05
4250.0 0.00010571
4270.0 0.00010695
4290.0 9.8552e-05
4310.0 0.0001024
4330.0 0.00010893
4350.0 0.00012213
4370.0 0.00013899
4390.0 0.00013043
4410.0 9.6363e-05
4430.0 8.1577e-05
4450.0 7.496e-05
4470.0 5.7535e-05
4490.0 6.2087e-05
4510.0 9.3783e-05
4530.0 0.00010816
4550.0 0.0001091
4570.0 0.00012276
4590.0 0.00013984
4610.0 0.00018861
4630.0 0.00024497
4650.0 0.00026566
4670.0 0.00024603
4690.0 0.00023475
4710.0 0.00024815
4730.0 0.00023419
4750.0 0.00017508
4770.0 0.00012843
4790.0 0.00011993
4810.0 0.00011431
4830.0 0.00010465
4850.0 0.00011484
4870.0 0.00015171
4890.0 0.00017891
4910.0 0.00015697
4930.0 0.0001389
4950.0 0.0001526
4970.0 0.0001957
4990.0 0.00026522
5010.0 0.0003051
5030.0 0.00026902
5050.0 0.00018201
5070.0 0.00011995
5090.0 9.6725e-05
5110.0 9.9472e-05
5130.0 0.00011481
5150.0 0.00012438
5170.0 0.00012252
5190.0 0.00011449
5210.0 0.00011966
5230.0 0.00012579
5250.0 0.00013557
5270.0 0.00014627
5290.0 0.0001621
5310.0 0.00018868
5330.0 0.0002088
5350.0 0.00020747
5370.0 0.00021792
5390.0 0.00025007
5410.0 0.00024985
5430.0 0.00022096
5450.0 0.00020301
5470.0 0.00021556
5490.0 0.00026335
5510.0 0.00032929
5530.0 0.00037768
5550.0 0.00036503
5570.0 0.00033184
5590.0 0.00028854
5610.0 0.0002661
5630.0 0.00025803
5650.0 0.00024575
5670.0 0.00023287
5690.0 0.00020819
5710.0 0.00020299
5730.0 0.00018698
5750.0 0.00013183
5770.0 0.00010285
5790.0 0.00011655
5810.0 0.00013161
5830.0 0.0001615
5850.0 0.00019225
5870.0 0.00021331
5890.0 0.00021692
5910.0 0.00021282
5930.0 0.00020258
5950.0 0.00020642
5970.0 0.0002353
5990.0 0.00022125
6010.0 0.00018547
6030.0 0.0001567
6050.0 0.00013646
6070.0 0.00013572
6090.0 0.00014716
6110.0 0.00016455
6130.0 0.00016707
6150.0 0.00014375
6170.0 0.00012646
6190.0 0.00014231
6210.0 0.00018813
6230.0 0.00024688
6250.0 0.0002674
6270.0 0.00023367
6290.0 0.0001966
6310.0 0.00015348
6330.0 0.0001176
6350.0 0.00010489
6370.0 0.00011031
6390.0 0.00012752
6410.0 0.00015724
6430.0 0.00018361
6450.0 0.0002101
6470.0 0.00024057
6490.0 0.00029059
6510.0 0.00032492
6530.0 0.00031876
6550.0 0.00028825
6570.0 0.0002447
6590.0 0.00022065
6610.0 0.00019026
6630.0 0.00017236
6650.0 0.00016293
6670.0 0.00015829
6690.0 0.00014302
6710.0 0.00013001
6730.0 9.3643e-05
6750.0 9.2838e-05
6770.0 0.00010091
6790.0 0.00011599
6810.0 0.00010613
6830.0 0.00010928
6850.0 0.00010222
6870.0 9.3374e-05
6890.0 8.9653e-05
6910.0 9.5537e-05
6930.0 8.9484e-05
6950.0 9.2064e-05
6970.0 9.6834e-05
6990.0 0.00010991
7010.0 0.00011085
7030.0 0.00011261
7050.0 0.00010739
7070.0 0.00010233
7090.0 0.00010263
7110.0 0.0001056
7130.0 0.00011364
7150.0 0.00012069
7170.0 0.00013317
7190.0 0.0001464
7210.0 0.00014385
7230.0 0.00014788
7250.0 0.00015892
7270.0 0.00017319
7290.0 0.00020556
7310.0 0.00022305
7330.0 0.0002156
7350.0 0.00019499
7370.0 0.00016966
7390.0 0.00016459
7410.0 0.00017491
7430.0 0.00019439
7450.0 0.00021173
7470.0 0.00020978
7490.0 0.00019128
7510.0 0.00021668
7530.0 0.0002143
7550.0 0.00019262
7570.0 0.00015047
7590.0 0.00010344
7610.0 8.8786e-05
7630.0 0.00010088
7650.0 0.00011927
7670.0 0.00014845
7690.0 0.00016335
7710.0 0.00017023
7730.0 0.00017889
7750.0 0.00020083
7770.0 0.00020399
7790.0 0.00018737
7810.0 0.00017096
7830.0 0.0001763
7850.0 0.00017138
7870.0 0.00015713
7890.0 0.00013202
7910.0 0.00010731
7930.0 0.00010247
7950.0 9.3351e-05
7970.0 8.6413e-05
7990.0 8.592e-05
8010.0 6.3635e-06
8030.0 6.2807e-06
8050.0 6.196e-06
8070.0 6.2771e-06
8090.0 6.7446e-06
8110.0 6.6297e-06
8130.0 5.4687e-06
8150.0 5.3258e-06
8170.0 4.5874e-06
8190.0 4.3476e-06
8210.0 5.6458e-06
8230.0 6.2858e-06
8250.0 5.6653e-06
8270.0 4.9309e-06
8290.0 4.8067e-06
8310.0 3.6994e-06
8330.0 2.4934e-06
8350.0 1.7696e-06
8370.0 1.1149e-06
8390.0 2.038e-06
8410.0 2.3748e-06
8430.0 2.9273e-06
8450.0 3.4375e-06
8470.0 4.2726e-06
8490.0 4.2424e-06
8510.0 4.1731e-06
8530.0 4.3552e-06
8550.0 5.876e-06
8570.0 6.9563e-06
8590.0 7.5058e-06
8610.0 9.4814e-06
8630.0 1.1422e-05
8650.0 1.1948e-05
8670.0 1.2698e-05
8690.0 1.2769e-05
8710.0 1.1564e-05
8730.0 1.0756e-05
8750.0 9.4943e-06
8770.0 9.0087e-06
8790.0 8.8505e-06
8810.0 8.4807e-06
8830.0 6.7817e-06
8850.0 4.9647e-06
8870.0 3.8014e-06
8890.0 3.7164e-06
8910.0 4.2591e-06
8930.0 4.8444e-06
8950.0 4.9372e-06
8970.0 4.9605e-06
8990.0 4.4242e-06
9010.0 4.6363e-05
9030.0 4.2011e-05
9050.0 4.2214e-05
9070.0 4.2547e-05
9090.0 4.2839e-05
9110.0 4.32e-05
9130.0 4.3478e-05
9150.0 4.3695e-05
9170.0 4.3926e-05
9190.0 4.4172e-05
9210.0 4.4432e-05
9230.0 4.4705e-05
9250.0 4.4984e-05
9270.0 4.5272e-05
9290.0 4.5569e-05
9310.0 4.5869e-05
9330.0 4.6174e-05
9350.0 4.649e-05
9370.0 4.6811e-05
9390.0 4.7134e-05
9410.0 4.7467e-05
9430.0 4.7809e-05
9450.0 4.8151e-05
9470.0 4.8499e-05
9490.0 4.8858e-05
9510.0 4.9221e-05
9530.0 4.9585e-05
9550.0 4.9963e-05
9570.0 5.0347e-05
9590.0 5.0731e-05
9610.0 5.1123e-05
9630.0 5.1525e-05
9650.0 5.1931e-05
9670.0 5.2337e-05
9690.0 5.2754e-05
9710.0 5.3178e-05
9730.0 5.3602e-05
9750.0 5.4033e-05
9770.0 5.4477e-05
9790.0 5.4919e-05
9810.0 5.5364e-05
9830.0 5.5819e-05
9850.0 5.6279e-05
9870.0 5.6738e-05
9890.0 5.7204e-05
9910.0 5.7679e-05
9930.0 5.8154e-05
9950.0 5.8631e-05
9970.0 5.9117e-05
9990.0 5.9609e-05
10010.0 5.1725e-05
10030.0 5.2149e-05
10050.0 5.2583e-05
10070.0 5.3031e-05
10090.0 5.3453e-05
10110.0 5.3886e-05
10130.0 5.4321e-05
10150.0 5.4754e-05
10170.0 5.5192e-05
10190.0 5.5638e-05
10210.0 5.6079e-05
10230.0 5.6518e-05
10250.0 5.6965e-05
10270.0 5.7411e-05
10290.0 5.7852e-05
10310.0 5.8298e-05
10330.0 5.8748e-05
10350.0 5.9191e-05
10370.0 5.9633e-05
10390.0 6.008e-05
10410.0 6.0524e-05
10430.0 6.096e-05
10450.0 6.14e-05
10470.0 6.1841e-05
10490.0 6.2275e-05
10510.0 6.2706e-05
10530.0 6.3144e-05
10550.0 6.3575e-05
10570.0 6.3997e-05
10590.0 6.4421e-05
10610.0 6.4844e-05
10630.0 6.5257e-05
10650.0 6.5667e-05
10670.0 6.6081e-05
10690.0 6.6487e-05
10710.0 6.6884e-05
10730.0 6.7282e-05
10750.0 6.7681e-05
10770.0 6.8064e-05
10790.0 6.8443e-05
10810.0 6.8822e-05
10830.0 6.9189e-05
10850.0 6.9538e-05
10870.0 6.9875e-05
10890.0 7.0172e-05
10910.0 7.0401e-05
10930.0 7.0531e-05
10950.0 7.05e-05
10970.0 7.0261e-05
10990.0 6.9793e-05
11010.0 6.9009e-05
11030.0 6.7911e-05
11050.0 6.6573e-05
11070.0 6.4973e-05
11090.0 6.3051e-05
11110.0 6.1062e-05
11130.0 5.8988e-05
11150.0 5.6755e-05
11170.0 5.4453e-05
11190.0 5.222e-05
11210.0 4.9914e-05
11230.0 4.755e-05
11250.0 4.529e-05
11270.0 4.312e-05
11290.0 4.0946e-05
11310.0 3.8887e-05
11330.0 3.7074e-05
11350.0 3.5361e-05
11370.0 3.3777e-05
11390.0 3.2408e-05
11410.0 3.121e-05
11430.0 3.0096e-05
11450.0 2.9137e-05
11470.0 2.8307e-05
11490.0 2.7535e-05
11510.0 2.6792e-05
11530.0 2.6102e-05
11550.0 2.5416e-05
11570.0 2.4685e-05
11590.0 2.3927e-05
11610.0 2.3156e-05
11630.0 2.2317e-05
11650.0 2.1419e-05
11670.0 2.0533e-05
11690.0 1.9635e-05
11710.0 1.8709e-05
11730.0 1.7812e-05
11750.0 1.6981e-05
11770.0 1.6166e-05
11790.0 1.5403e-05
11810.0 1.4731e-05
11830.0 1.413e-05
11850.0 1.3576e-05
11870.0 1.3113e-05
11890.0 1.2728e-05
11910.0 1.239e-05
11930.0 1.2099e-05
11950.0 1.1857e-05
11970.0 1.1641e-05
11990.0 1.1436e-05
12010.0 1.1247e-05
12030.0 1.1065e-05
12050.0 1.0876e-05
12070.0 1.068e-05
12090.0 1.0491e-05
12110.0 1.0299e-05
12130.0 1.0107e-05
12150.0 9.93e-06
12170.0 9.7753e-06
12190.0 9.6415e-06
12210.0 9.5481e-06
12230.0 9.503e-06
12250.0 9.5103e-06
12270.0 9.582e-06
12290.0 9.7175e-06
12310.0 9.912e-06
12330.0 1.0184e-05
12350.0 1.0524e-05
12370.0 1.091e-05
12390.0 1.1356e-05
12410.0 1.1878e-05
12430.0 1.2409e-05
12450.0 1.2959e-05
12470.0 1.3543e-05
12490.0 1.413e-05
12510.0 1.4681e-05
12530.0 1.5229e-05
12550.0 1.5757e-05
12570.0 1.6224e-05
12590.0 1.6634e-05
12610.0 1.6999e-05
12630.0 1.729e-05
12650.0 1.749e-05
12670.0 1.7622e-05
12690.0 1.7675e-05
12710.0 1.7646e-05
12730.0 1.7544e-05
12750.0 1.7361e-05
12770.0 1.7111e-05
12790.0 1.6807e-05
12810.0 1.6445e-05
12830.0 1.6025e-05
12850.0 1.5586e-05
12870.0 1.5122e-05
12890.0 1.462e-05
12910.0 1.411e-05
12930.0 1.3607e-05
12950.0 1.3082e-05
12970.0 1.2548e-05
12990.0 1.2042e-05
13010.0 1.1543e-05
13030.0 1.1038e-05
13050.0 1.0554e-05
13070.0 1.01e-05
13090.0 9.6439e-06
13110.0 9.203e-06
13130.0 8.7965e-06
13150.0 8.4115e-06
13170.0 8.0346e-06
13190.0 7.6992e-06
13210.0 7.404e-06
13230.0 7.1342e-06
13250.0 6.9018e-06
13270.0 6.7185e-06
13290.0 6.576e-06
13310.0 6.4778e-06
13330.0 6.4331e-06
13350.0 6.4383e-06
13370.0 6.496e-06
13390.0 6.6095e-06
13410.0 6.7628e-06
13430.0 6.962e-06
13450.0 7.2082e-06
13470.0 7.4815e-06
13490.0 7.7709e-06
13510.0 8.0973e-06
13530.0 8.4282e-06
13550.0 8.745e-06
13570.0 9.0573e-06
13590.0 9.3617e-06
13610.0 9.6325e-06
13630.0 9.8688e-06
13650.0 1.0085e-05
13670.0 1.0264e-05
13690.0 1.0402e-05
13710.0 1.0509e-05
13730.0 1.0586e-05
13750.0 1.0624e-05
13770.0 1.0633e-05
13790.0 1.0614e-05
13810.0 1.0567e-05
13830.0 1.0498e-05
13850.0 1.0404e-05
13870.0 1.0285e-05
13890.0 1.015e-05
13910.0 9.9978e-06
13930.0 9.8213e-06
13950.0 9.6286e-06
13970.0 9.4316e-06
13990.0 9.217e-06
14010.0 8.9889e-06
14030.0 8.7613e-06
14050.0 8.532e-06
14070.0 8.2899e-06
14090.0 8.0579e-06
14110.0 7.8398e-06
14130.0 7.6285e-06
14150.0 7.4296e-06
14170.0 7.2598e-06
14190.0 7.113e-06
14210.0 6.9885e-06
14230.0 6.8962e-06
14250.0 6.8366e-06
14270.0 6.8078e-06
14290.0 6.8139e-06
14310.0 6.8519e-06
14330.0 6.9201e-06
14350.0 7.0204e-06
14370.0 7.1455e-06
14390.0 7.2875e-06
14410.0 7.4547e-06
14430.0 7.6384e-06
14450.0 7.826e-06
14470.0 8.0206e-06
14490.0 8.2275e-06
14510.0 8.4254e-06
14530.0 8.6134e-06
14550.0 8.8013e-06
14570.0 8.9817e-06
14590.0 9.1458e-06
14610.0 9.3046e-06
14630.0 9.4618e-06
14650.0 9.6082e-06
14670.0 9.7495e-06
14690.0 9.8969e-06
14710.0 1.0052e-05
14730.0 1.0207e-05
14750.0 1.0378e-05
14770.0 1.0573e-05
14790.0 1.0784e-05
14810.0 1.1013e-05
14830.0 1.1284e-05
14850.0 1.1579e-05
14870.0 1.1886e-05
14890.0 1.2217e-05
14910.0 1.257e-05
14930.0 1.2908e-05
14950.0 1.3224e-05
14970.0 1.3524e-05
14990.0 1.3775e-05
15010.0 1.3967e-05
15030.0 1.411e-05
15050.0 1.4204e-05
15070.0 1.425e-05
15090.0 1.4266e-05
15110.0 1.4261e-05
15130.0 1.4243e-05
15150.0 1.4219e-05
15170.0 1.4191e-05
15190.0 1.416e-05
15210.0 1.413e-05
15230.0 1.41e-05
15250.0 1.4069e-05
15270.0 1.4038e-05
15290.0 1.4009e-05
15310.0 1.3979e-05
15330.0 1.3949e-05
15350.0 1.3919e-05
15370.0 1.3891e-05
15390.0 1.386e-05
15410.0 1.3831e-05
15430.0 1.3803e-05
15450.0 1.3774e-05
15470.0 1.3744e-05
15490.0 1.3716e-05
15510.0 1.3688e-05
15530.0 1.3659e-05
15550.0 1.3631e-05
15570.0 1.3604e-05
15590.0 1.3575e-05
15610.0 1.3546e-05
15630.0 1.3519e-05
15650.0 1.3492e-05
15670.0 1.3463e-05
15690.0 1.3436e-05
15710.0 1.3409e-05
15730.0 1.3382e-05
15750.0 1.3354e-05
15770.0 1.3327e-05
15790.0 1.33e-05
15810.0 1.3272e-05
15830.0 1.3245e-05
15850.0 1.3219e-05
15870.0 1.3192e-05
15890.0 1.3164e-05
15910.0 1.3138e-05
15930.0 1.3112e-05
15950.0 1.3084e-05
15970.0 1.3057e-05
15990.0 1.3031e-05
16010.0 1.3004e-05
16030.0 1.2977e-05
16050.0 1.2951e-05
16070.0 1.2925e-05
16090.0 1.2898e-05
16110.0 1.2872e-05
16130.0 1.2846e-05
16150.0 1.2818e-05
16170.0 1.2791e-05
16190.0 1.2766e-05
16210.0 1.2739e-05
16230.0 1.2712e-05
16250.0 1.2686e-05
16270.0 1.266e-05
16290.0 1.2633e-05
16310.0 1.2606e-05
16330.0 1.258e-05
16350.0 1.2554e-05
16370.0 1.2526e-05
16390.0 1.25e-05
16410.0 1.2474e-05
16430.0 1.2447e-05
16450.0 1.242e-05
16470.0 1.2394e-05
16490.0 1.2367e-05
16510.0 1.2339e-05
16530.0 1.2313e-05
16550.0 1.2287e-05
16570.0 1.2259e-05
16590.0 1.2231e-05
16610.0 1.2205e-05
16630.0 1.2178e-05
16650.0 1.2151e-05
16670.0 1.2124e-05
16690.0 1.2098e-05
16710.0 1.2069e-05
16730.0 1.2042e-05
16750.0 1.2015e-05
16770.0 1.1987e-05
16790.0 1.1959e-05
16810.0 1.1932e-05
16830.0 1.1905e-05
16850.0 1.1877e-05
16870.0 1.1849e-05
16890.0 1.1822e-05
16910.0 1.1794e-05
16930.0 1.1765e-05
16950.0 1.1738e-05
16970.0 1.171e-05
16990.0 1.1681e-05
17010.0 1.1653e-05
17030.0 1.1626e-05
17050.0 1.1597e-05
17070.0 1.1568e-05
17090.0 1.154e-05
17110.0 1.1512e-05
17130.0 1.1482e-05
17150.0 1.1454e-05
17170.0 1.1426e-05
17190.0 1.1397e-05
17210.0 1.1367e-05
17230.0 1.1339e-05
17250.0 1.131e-05
17270.0 1.128e-05
17290.0 1.1251e-05
17310.0 1.1223e-05
17330.0 1.1193e-05
17350.0 1.1163e-05
17370.0 1.1134e-05
17390.0 1.1105e-05
17410.0 1.1075e-05
17430.0 1.1045e-05
17450.0 1.1016e-05
17470.0 1.0985e-05
17490.0 1.0955e-05
17510.0 1.0926e-05
17530.0 1.0896e-05
17550.0 1.0865e-05
17570.0 1.0835e-05
17590.0 1.0805e-05
17610.0 1.0774e-05
17630.0 1.0744e-05
17650.0 1.0714e-05
17670.0 1.0683e-05
17690.0 1.0651e-05
17710.0 1.0621e-05
17730.0 1.0591e-05
17750.0 1.056e-05
17770.0 1.0529e-05
17790.0 1.0499e-05
17810.0 1.0467e-05
17830.0 1.0435e-05
17850.0 1.0405e-05
17870.0 1.0374e-05
17890.0 1.0342e-05
17910.0 1.031e-05
17930.0 1.028e-05
17950.0 1.0248e-05
17970.0 1.0216e-05
17990.0 1.0185e-05
18010.0 1.0154e-05
18030.0 1.0121e-05
18050.0 1.0089e-05
18070.0 1.0058e-05
18090.0 1.0026e-05
18110.0 9.9932e-06
18130.0 9.962e-06
18150.0 9.9304e-06
18170.0 9.8977e-06
18190.0 9.8657e-06
18210.0 9.8343e-06
18230.0 9.8015e-06
18250.0 9.7684e-06
18270.0 9.7368e-06
18290.0 9.7047e-06
18310.0 9.6717e-06
18330.0 9.6395e-06
18350.0 9.608e-06
18370.0 9.5749e-06
18390.0 9.5419e-06
18410.0 9.51e-06
18430.0 9.4775e-06
18450.0 9.4437e-06
18470.0 9.4113e-06
18490.0 9.3793e-06
18510.0 9.3462e-06
18530.0 9.3132e-06
18550.0 9.2813e-06
18570.0 9.2484e-06
18590.0 9.2146e-06
18610.0 9.182e-06
18630.0 9.1496e-06
18650.0 9.1161e-06
18670.0 9.0826e-06
18690.0 9.0506e-06
18710.0 9.0177e-06
18730.0 8.9841e-06
18750.0 8.9515e-06
18770.0 8.9192e-06
18790.0 8.8849e-06
18810.0 8.8515e-06
18830.0 8.8192e-06
18850.0 8.786e-06
18870.0 8.7522e-06
18890.0 8.7196e-06
18910.0 8.6871e-06
18930.0 8.6533e-06
18950.0 8.62e-06
18970.0 8.5875e-06
18990.0 8.5542e-06
19010.0 8.5196e-06
19030.0 8.4872e-06
19050.0 8.4545e-06
19070.0 8.4207e-06
19090.0 8.3874e-06
19110.0 8.3553e-06
19130.0 8.3216e-06
19150.0 8.2877e-06
19170.0 8.2549e-06
19190.0 8.2221e-06
19210.0 8.188e-06
19230.0 8.1545e-06
19250.0 8.1223e-06
19270.0 8.0889e-06
19290.0 8.0552e-06
19310.0 8.0227e-06
19330.0 7.9899e-06
19350.0 7.9555e-06
19370.0 7.9223e-06
19390.0 7.8898e-06
19410.0 7.8563e-06
19430.0 7.8225e-06
19450.0 7.7902e-06
19470.0 7.7574e-06
19490.0 7.7235e-06
19510.0 7.6906e-06
19530.0 7.6582e-06
19550.0 7.6244e-06
19570.0 7.5905e-06
19590.0 7.5582e-06
19610.0 7.5253e-06
19630.0 7.4916e-06
19650.0 7.4589e-06
19670.0 7.4268e-06
19690.0 7.3931e-06
19710.0 7.3597e-06
19730.0 7.3273e-06
19750.0 7.2945e-06
19770.0 7.2604e-06
19790.0 7.2278e-06
19810.0 7.1955e-06
19830.0 7.162e-06
19850.0 7.1284e-06
19870.0 7.0954e-06
19890.0 7.06e-06
19910.0 7.0211e-06
19930.0 6.9794e-06
19950.0 6.9317e-06
19970.0 6.8731e-06
19990.0 6.8025e-06
20010.0 6.0521e-06
20030.0 5.9645e-06
20050.0 5.862e-06
20070.0 5.7509e-06
20090.0 5.6314e-06
20110.0 5.4963e-06
20130.0 5.3594e-06
20150.0 5.2239e-06
20170.0 5.0833e-06
20190.0 4.9407e-06
20210.0 4.806e-06
20230.0 4.6746e-06
20250.0 4.543e-06
20270.0 4.4208e-06
20290.0 4.3092e-06
20310.0 4.2032e-06
20330.0 4.1042e-06
20350.0 4.0219e-06
20370.0 3.9489e-06
20390.0 3.8849e-06
20410.0 3.8332e-06
20430.0 3.7934e-06
20450.0 3.7618e-06
20470.0 3.7406e-06
20490.0 3.7293e-06
20510.0 3.726e-06
20530.0 3.7306e-06
20550.0 3.7421e-06
20570.0 3.7589e-06
20590.0 3.7816e-06
20610.0 3.809e-06
20630.0 3.8393e-06
20650.0 3.8732e-06
20670.0 3.9118e-06
20690.0 3.9513e-06
20710.0 3.9921e-06
20730.0 4.0361e-06
20750.0 4.082e-06
20770.0 4.1272e-06
20790.0 4.1746e-06
20810.0 4.2248e-06
20830.0 4.2747e-06
20850.0 4.3249e-06
20870.0 4.3786e-06
20890.0 4.4333e-06
20910.0 4.4861e-06
20930.0 4.5409e-06
20950.0 4.5977e-06
20970.0 4.6531e-06
20990.0 4.7077e-06
21010.0 4.7651e-06
21030.0 4.8213e-06
21050.0 4.8749e-06
21070.0 4.9284e-06
21090.0 4.982e-06
21110.0 5.031e-06
21130.0 5.077e-06
21150.0 5.1215e-06
21170.0 5.1618e-06
21190.0 5.1965e-06
21210.0 5.2278e-06
21230.0 5.2537e-06
21250.0 5.2722e-06
21270.0 5.284e-06
21290.0 5.2883e-06
21310.0 5.2841e-06
21330.0 5.2717e-06
21350.0 5.2498e-06
21370.0 5.2176e-06
21390.0 5.1768e-06
21410.0 5.1268e-06
21430.0 5.0634e-06
21450.0 4.9923e-06
21470.0 4.9148e-06
21490.0 4.8272e-06
21510.0 4.7311e-06
21530.0 4.6335e-06
21550.0 4.5312e-06
21570.0 4.4221e-06
21590.0 4.3148e-06
21610.0 4.2112e-06
21630.0 4.1074e-06
21650.0 4.006e-06
21670.0 3.9181e-06
21690.0 3.8371e-06
21710.0 3.7641e-06
21730.0 3.7043e-06
21750.0 3.6582e-06
21770.0 3.623e-06
21790.0 3.6028e-06
21810.0 3.5972e-06
21830.0 3.6052e-06
21850.0 3.6277e-06
21870.0 3.6629e-06
21890.0 3.7083e-06
21910.0 3.7665e-06
21930.0 3.8348e-06
21950.0 3.9088e-06
21970.0 3.9907e-06
21990.0 4.0827e-06
22010.0 4.1747e-06
22030.0 4.268e-06
22050.0 4.3661e-06
22070.0 4.4647e-06
22090.0 4.5581e-06
22110.0 4.6522e-06
22130.0 4.7462e-06
22150.0 4.8339e-06
22170.0 4.9167e-06
22190.0 4.9987e-06
22210.0 5.075e-06
22230.0 5.1421e-06
22250.0 5.2054e-06
22270.0 5.2636e-06
22290.0 5.3134e-06
22310.0 5.3561e-06
22330.0 5.3937e-06
22350.0 5.4228e-06
22370.0 5.4433e-06
22390.0 5.4561e-06
22410.0 5.4601e-06
22430.0 5.4549e-06
22450.0 5.4409e-06
22470.0 5.4166e-06
22490.0 5.3825e-06
22510.0 5.34e-06
22530.0 5.2856e-06
22550.0 5.2194e-06
22570.0 5.146e-06
22590.0 5.0633e-06
22610.0 4.9681e-06
22630.0 4.865e-06
