#lamb flux
1010.0 7.9936e-08
1030.0 8.841e-08
1050.0 9.8156e-08
1070.0 1.0913e-07
1090.0 1.2159e-07
1110.0 1.3437e-07
1130.0 1.4724e-07
1150.0 1.6071e-07
1170.0 1.7461e-07
1190.0 1.8779e-07
1210.0 2.0115e-07
1230.0 2.1496e-07
1250.0 2.2848e-07
1270.0 2.4162e-07
1290.0 2.555e-07
1310.0 2.6937e-07
1330.0 2.8267e-07
1350.0 2.9612e-07
1370.0 3.1e-07
1390.0 3.2354e-07
1410.0 3.3668e-07
1430.0 3.5042e-07
1450.0 3.6415e-07
1470.0 3.7742e-07
1490.0 3.9084e-07
1510.0 4.0502e-07
1530.0 4.1845e-07
1550.0 4.317e-07
1570.0 4.4542e-07
1590.0 4.5915e-07
1610.0 4.7227e-07
1630.0 4.858e-07
1650.0 4.997e-07
1670.0 5.1315e-07
1690.0 5.2643e-07
1710.0 5.4024e-07
1730.0 5.5413e-07
1750.0 5.6721e-07
1770.0 5.8069e-07
1790.0 5.9445e-07
1810.0 6.0779e-07
1830.0 6.2092e-07
1850.0 6.3487e-07
1870.0 6.4848e-07
1890.0 6.6166e-07
1910.0 6.7513e-07
1930.0 6.8895e-07
1950.0 7.0217e-07
1970.0 7.1527e-07
1990.0 7.2889e-07
2010.0 7.4231e-07
2030.0 7.5528e-07
2050.0 7.6868e-07
2070.0 7.8245e-07
2090.0 7.9546e-07
2110.0 8.0847e-07
2130.0 8.219e-07
2150.0 8.3509e-07
2170.0 8.4775e-07
2190.0 8.609e-07
2210.0 8.7415e-07
2230.0 8.869e-07
2250.0 8.996e-07
2270.0 9.1289e-07
2290.0 9.2579e-07
2310.0 9.3818e-07
2330.0 9.5108e-07
2350.0 9.6433e-07
2370.0 9.7751e-07
2390.0 9.918e-07
2410.0 1.0087e-06
2430.0 1.0282e-06
2450.0 1.0515e-06
2470.0 1.0813e-06
2490.0 1.1188e-06
2510.0 1.1616e-06
2530.0 1.213e-06
2550.0 1.2773e-06
2570.0 1.3574e-06
2590.0 1.4615e-06
2610.0 1.6174e-06
2630.0 1.8401e-06
2650.0 2.1311e-06
2670.0 2.5075e-06
2690.0 2.9699e-06
2710.0 3.4636e-06
2730.0 3.9514e-06
2750.0 4.4319e-06
2770.0 4.8498e-06
2790.0 5.1816e-06
2810.0 5.445e-06
2830.0 5.6508e-06
2850.0 5.7912e-06
2870.0 5.8943e-06
2890.0 5.9759e-06
2910.0 6.0411e-06
2930.0 6.0943e-06
2950.0 6.1451e-06
2970.0 6.1948e-06
2990.0 6.2414e-06
3010.0 0.00017642
3030.0 0.00017774
3050.0 0.00017901
3070.0 0.0001801
3090.0 0.00018104
3110.0 0.00018162
3130.0 0.0001816
3150.0 0.00018079
3170.0 0.00017886
3190.0 0.00017582
3210.0 0.00017196
3230.0 0.00016755
3250.0 0.00016319
3270.0 0.00016
3290.0 0.00015824
3310.0 0.00015852
3330.0 0.00016082
3350.0 0.00016481
3370.0 0.00017052
3390.0 0.00017771
3410.0 0.00018553
3430.0 0.00019431
3450.0 0.00020442
3470.0 0.00021547
3490.0 0.00022717
3510.0 0.0002404
3530.0 0.00025456
3550.0 0.0002689
3570.0 0.00028386
3590.0 0.00030013
3610.0 0.0003169
3630.0 0.00033361
3650.0 0.00035095
3670.0 0.00036678
3690.0 0.00037861
3710.0 0.00038539
3730.0 0.00038562
3750.0 0.00038025
3770.0 0.00037814
3790.0 0.0003759
3810.0 0.00036666
3830.0 0.00037801
3850.0 0.00042266
3870.0 0.00044717
3890.0 0.00044513
3910.0 0.00044702
3930.0 0.00045879
3950.0 0.00046604
3970.0 0.0004246
3990.0 0.00036535
4010.0 0.001095
4030.0 0.0013268
4050.0 0.001521
4070.0 0.0013198
4090.0 0.0011953
4110.0 0.0010547
4130.0 0.00097078
4150.0 0.0010326
4170.0 0.0010172
4190.0 0.0010842
4210.0 0.0010743
4230.0 0.0011363
4250.0 0.0013443
4270.0 0.0013601
4290.0 0.0012533
4310.0 0.0013023
4330.0 0.0013853
4350.0 0.0015532
4370.0 0.0017676
4390.0 0.0016587
4410.0 0.0012255
4430.0 0.0010374
4450.0 0.0009533
4470.0 0.00073169
4490.0 0.00078958
4510.0 0.0011927
4530.0 0.0013755
4550.0 0.0013874
4570.0 0.0015612
4590.0 0.0017784
4610.0 0.0023986
4630.0 0.0031153
4650.0 0.0033785
4670.0 0.0031288
4690.0 0.0029855
4710.0 0.0031558
4730.0 0.0029782
4750.0 0.0022266
4770.0 0.0016333
4790.0 0.0015252
4810.0 0.0014537
4830.0 0.0013309
4850.0 0.0014604
4870.0 0.0019294
4890.0 0.0022753
4910.0 0.0019963
4930.0 0.0017664
4950.0 0.0019406
4970.0 0.0024888
4990.0 0.0033729
5010.0 0.00388
5030.0 0.0034213
5050.0 0.0023147
5070.0 0.0015255
5090.0 0.0012301
5110.0 0.001265
5130.0 0.00146
5150.0 0.0015818
5170.0 0.0015581
5190.0 0.001456
5210.0 0.0015218
5230.0 0.0015998
5250.0 0.0017241
5270.0 0.0018602
5290.0 0.0020615
5310.0 0.0023995
5330.0 0.0026554
5350.0 0.0026384
5370.0 0.0027714
5390.0 0.0031803
5410.0 0.0031774
5430.0 0.00281
5450.0 0.0025817
5470.0 0.0027414
5490.0 0.0033492
5510.0 0.0041877
5530.0 0.004803
5550.0 0.0046422
5570.0 0.0042201
5590.0 0.0036695
5610.0 0.0033841
5630.0 0.0032815
5650.0 0.0031253
5670.0 0.0029615
5690.0 0.0026476
5710.0 0.0025815
5730.0 0.0023779
5750.0 0.0016766
5770.0 0.001308
5790.0 0.0014823
5810.0 0.0016737
5830.0 0.0020539
5850.0 0.002445
5870.0 0.0027127
5890.0 0.0027587
5910.0 0.0027065
5930.0 0.0025763
5950.0 0.0026252
5970.0 0.0029924
5990.0 0.0028137
6010.0 0.0023587
6030.0 0.0019928
6050.0 0.0017354
6070.0 0.0017259
6090.0 0.0018715
6110.0 0.0020927
6130.0 0.0021247
6150.0 0.0018281
6170.0 0.0016082
6190.0 0.0018098
6210.0 0.0023925
6230.0 0.0031396
6250.0 0.0034007
6270.0 0.0029717
6290.0 0.0025003
6310.0 0.0019519
6330.0 0.0014955
6350.0 0.001334
6370.0 0.0014028
6390.0 0.0016217
6410.0 0.0019997
6430.0 0.0023351
6450.0 0.0026719
6470.0 0.0030594
6490.0 0.0036955
6510.0 0.0041321
6530.0 0.0040538
6550.0 0.0036658
6570.0 0.0031119
6590.0 0.0028061
6610.0 0.0024196
6630.0 0.002192
6650.0 0.0020721
6670.0 0.002013
6690.0 0.0018189
6710.0 0.0016534
6730.0 0.0011909
6750.0 0.0011806
6770.0 0.0012833
6790.0 0.001475
6810.0 0.0013497
6830.0 0.0013898
6850.0 0.0012999
6870.0 0.0011875
6890.0 0.0011402
6910.0 0.001215
6930.0 0.001138
6950.0 0.0011708
6970.0 0.0012315
6990.0 0.0013978
7010.0 0.0014097
7030.0 0.0014321
7050.0 0.0013658
7070.0 0.0013013
7090.0 0.0013051
7110.0 0.0013429
7130.0 0.0014452
7150.0 0.0015349
7170.0 0.0016936
7190.0 0.0018618
7210.0 0.0018294
7230.0 0.0018807
7250.0 0.0020211
7270.0 0.0022025
7290.0 0.0026142
7310.0 0.0028366
7330.0 0.0027418
7350.0 0.0024798
7370.0 0.0021577
7390.0 0.0020932
7410.0 0.0022244
7430.0 0.0024722
7450.0 0.0026926
7470.0 0.0026679
7490.0 0.0024326
7510.0 0.0027556
7530.0 0.0027254
7550.0 0.0024496
7570.0 0.0019136
7590.0 0.0013155
7610.0 0.0011291
7630.0 0.0012829
7650.0 0.0015169
7670.0 0.0018878
7690.0 0.0020774
7710.0 0.0021649
7730.0 0.0022751
7750.0 0.002554
7770.0 0.0025942
7790.0 0.0023829
7810.0 0.0021742
7830.0 0.0022421
7850.0 0.0021795
7870.0 0.0019983
7890.0 0.0016789
7910.0 0.0013647
7930.0 0.0013031
7950.0 0.0011872
7970.0 0.0010989
7990.0 0.0010927
8010.0 8.0926e-05
8030.0 7.9874e-05
8050.0 7.8797e-05
8070.0 7.9829e-05
8090.0 8.5774e-05
8110.0 8.4313e-05
8130.0 6.9547e-05
8150.0 6.7731e-05
8170.0 5.834e-05
8190.0 5.529e-05
8210.0 7.1799e-05
8230.0 7.9939e-05
8250.0 7.2048e-05
8270.0 6.2708e-05
8290.0 6.1129e-05
8310.0 4.7047e-05
8330.0 3.171e-05
8350.0 2.2504e-05
8370.0 1.4179e-05
8390.0 2.5918e-05
8410.0 3.0202e-05
8430.0 3.7228e-05
8450.0 4.3716e-05
8470.0 5.4336e-05
8490.0 5.3953e-05
8510.0 5.3071e-05
8530.0 5.5387e-05
8550.0 7.4727e-05
8570.0 8.8467e-05
8590.0 9.5455e-05
8610.0 0.00012058
8630.0 0.00014526
8650.0 0.00015195
8670.0 0.00016148
8690.0 0.00016238
8710.0 0.00014706
8730.0 0.00013679
8750.0 0.00012074
8770.0 0.00011457
8790.0 0.00011256
8810.0 0.00010785
8830.0 8.6245e-05
8850.0 6.3138e-05
8870.0 4.8344e-05
8890.0 4.7264e-05
8910.0 5.4165e-05
8930.0 6.1609e-05
8950.0 6.2788e-05
8970.0 6.3085e-05
8990.0 5.6264e-05
9010.0 0.00058962
9030.0 0.00053427
9050.0 0.00053685
9070.0 0.00054109
9090.0 0.0005448
9110.0 0.00054939
9130.0 0.00055293
9150.0 0.00055569
9170.0 0.00055862
9190.0 0.00056175
9210.0 0.00056505
9230.0 0.00056854
9250.0 0.00057207
9270.0 0.00057574
9290.0 0.00057953
9310.0 0.00058333
9330.0 0.00058721
9350.0 0.00059124
9370.0 0.00059531
9390.0 0.00059942
9410.0 0.00060365
9430.0 0.00060801
9450.0 0.00061235
9470.0 0.00061679
9490.0 0.00062135
9510.0 0.00062596
9530.0 0.0006306
9550.0 0.0006354
9570.0 0.00064028
9590.0 0.00064517
9610.0 0.00065015
9630.0 0.00065527
9650.0 0.00066042
9670.0 0.00066559
9690.0 0.0006709
9710.0 0.00067628
9730.0 0.00068168
9750.0 0.00068716
9770.0 0.0006928
9790.0 0.00069843
9810.0 0.00070409
9830.0 0.00070987
9850.0 0.00071573
9870.0 0.00072156
9890.0 0.00072749
9910.0 0.00073353
9930.0 0.00073957
9950.0 0.00074564
9970.0 0.00075182
9990.0 0.00075807
10010.0 0.0006578
10030.0 0.0006632
10050.0 0.00066872
10070.0 0.00067441
10090.0 0.00067978
10110.0 0.00068529
10130.0 0.00069082
10150.0 0.00069632
10170.0 0.0007019
10190.0 0.00070757
10210.0 0.00071317
10230.0 0.00071877
10250.0 0.00072445
10270.0 0.00073012
10290.0 0.00073572
10310.0 0.00074139
10330.0 0.00074713
10350.0 0.00075276
10370.0 0.00075838
10390.0 0.00076406
10410.0 0.00076971
10430.0 0.00077525
10450.0 0.00078085
10470.0 0.00078646
10490.0 0.00079198
10510.0 0.00079746
10530.0 0.00080303
10550.0 0.00080851
10570.0 0.00081387
10590.0 0.00081926
10610.0 0.00082465
10630.0 0.0008299
10650.0 0.00083512
10670.0 0.00084038
10690.0 0.00084554
10710.0 0.00085059
10730.0 0.00085566
10750.0 0.00086073
10770.0 0.00086559
10790.0 0.00087042
10810.0 0.00087524
10830.0 0.0008799
10850.0 0.00088434
10870.0 0.00088863
10890.0 0.00089241
10910.0 0.00089532
10930.0 0.00089697
10950.0 0.00089658
10970.0 0.00089354
10990.0 0.00088758
11010.0 0.00087761
11030.0 0.00086365
11050.0 0.00084664
11070.0 0.00082629
11090.0 0.00080185
11110.0 0.00077656
11130.0 0.00075018
11150.0 0.00072178
11170.0 0.0006925
11190.0 0.00066411
11210.0 0.00063478
11230.0 0.00060471
11250.0 0.00057597
11270.0 0.00054838
11290.0 0.00052073
11310.0 0.00049455
11330.0 0.00047148
11350.0 0.00044969
11370.0 0.00042956
11390.0 0.00041214
11410.0 0.0003969
11430.0 0.00038275
11450.0 0.00037055
11470.0 0.00035999
11490.0 0.00035018
11510.0 0.00034072
11530.0 0.00033195
11550.0 0.00032323
11570.0 0.00031392
11590.0 0.00030429
11610.0 0.00029449
11630.0 0.00028382
11650.0 0.00027239
11670.0 0.00026113
11690.0 0.00024971
11710.0 0.00023793
11730.0 0.00022652
11750.0 0.00021595
11770.0 0.00020559
11790.0 0.00019588
11810.0 0.00018734
11830.0 0.00017969
11850.0 0.00017265
11870.0 0.00016676
11890.0 0.00016187
11910.0 0.00015757
11930.0 0.00015387
11950.0 0.00015079
11970.0 0.00014804
11990.0 0.00014544
12010.0 0.00014303
12030.0 0.00014071
12050.0 0.00013832
12070.0 0.00013582
12090.0 0.00013342
12110.0 0.00013098
12130.0 0.00012854
12150.0 0.00012628
12170.0 0.00012432
12190.0 0.00012261
12210.0 0.00012143
12230.0 0.00012085
12250.0 0.00012095
12270.0 0.00012186
12290.0 0.00012358
12310.0 0.00012605
12330.0 0.00012951
12350.0 0.00013383
12370.0 0.00013875
12390.0 0.00014442
12410.0 0.00015106
12430.0 0.00015781
12450.0 0.0001648
12470.0 0.00017223
12490.0 0.0001797
12510.0 0.0001867
12530.0 0.00019367
12550.0 0.00020039
12570.0 0.00020633
12590.0 0.00021154
12610.0 0.00021618
12630.0 0.00021988
12650.0 0.00022243
12670.0 0.00022411
12690.0 0.00022478
12710.0 0.00022441
12730.0 0.00022311
12750.0 0.00022079
12770.0 0.00021761
12790.0 0.00021374
12810.0 0.00020913
12830.0 0.0002038
12850.0 0.00019822
12870.0 0.00019231
12890.0 0.00018593
12910.0 0.00017944
12930.0 0.00017304
12950.0 0.00016637
12970.0 0.00015958
12990.0 0.00015315
13010.0 0.0001468
13030.0 0.00014038
13050.0 0.00013422
13070.0 0.00012844
13090.0 0.00012265
13110.0 0.00011704
13130.0 0.00011187
13150.0 0.00010697
13170.0 0.00010218
13190.0 9.7914e-05
13210.0 9.416e-05
13230.0 9.0729e-05
13250.0 8.7773e-05
13270.0 8.5442e-05
13290.0 8.3629e-05
13310.0 8.2381e-05
13330.0 8.1812e-05
13350.0 8.1878e-05
13370.0 8.2612e-05
13390.0 8.4055e-05
13410.0 8.6005e-05
13430.0 8.8539e-05
13450.0 9.167e-05
13470.0 9.5145e-05
13490.0 9.8826e-05
13510.0 0.00010298
13530.0 0.00010719
13550.0 0.00011121
13570.0 0.00011519
13590.0 0.00011906
13610.0 0.0001225
13630.0 0.00012551
13650.0 0.00012825
13670.0 0.00013053
13690.0 0.00013229
13710.0 0.00013365
13730.0 0.00013463
13750.0 0.00013511
13770.0 0.00013522
13790.0 0.00013498
13810.0 0.00013438
13830.0 0.0001335
13850.0 0.00013231
13870.0 0.0001308
13890.0 0.00012908
13910.0 0.00012715
13930.0 0.0001249
13950.0 0.00012245
13970.0 0.00011995
13990.0 0.00011722
14010.0 0.00011432
14030.0 0.00011142
14050.0 0.0001085
14070.0 0.00010543
14090.0 0.00010248
14110.0 9.9702e-05
14130.0 9.7015e-05
14150.0 9.4485e-05
14170.0 9.2326e-05
14190.0 9.0459e-05
14210.0 8.8875e-05
14230.0 8.7702e-05
14250.0 8.6944e-05
14270.0 8.6577e-05
14290.0 8.6655e-05
14310.0 8.7138e-05
14330.0 8.8005e-05
14350.0 8.9282e-05
14370.0 9.0872e-05
14390.0 9.2678e-05
14410.0 9.4805e-05
14430.0 9.7141e-05
14450.0 9.9526e-05
14470.0 0.000102
14490.0 0.00010463
14510.0 0.00010715
14530.0 0.00010954
14550.0 0.00011193
14570.0 0.00011422
14590.0 0.00011631
14610.0 0.00011833
14630.0 0.00012033
14650.0 0.00012219
14670.0 0.00012399
14690.0 0.00012586
14710.0 0.00012783
14730.0 0.0001298
14750.0 0.00013199
14770.0 0.00013446
14790.0 0.00013715
14810.0 0.00014006
14830.0 0.0001435
14850.0 0.00014725
14870.0 0.00015116
14890.0 0.00015537
14910.0 0.00015985
14930.0 0.00016416
14950.0 0.00016818
14970.0 0.00017199
14990.0 0.00017519
15010.0 0.00017763
15030.0 0.00017944
15050.0 0.00018063
15070.0 0.00018122
15090.0 0.00018142
15110.0 0.00018136
15130.0 0.00018113
15150.0 0.00018083
15170.0 0.00018047
15190.0 0.00018008
15210.0 0.0001797
15230.0 0.00017931
15250.0 0.00017892
15270.0 0.00017853
15290.0 0.00017816
15310.0 0.00017777
15330.0 0.00017739
15350.0 0.00017702
15370.0 0.00017665
15390.0 0.00017627
15410.0 0.00017589
15430.0 0.00017553
15450.0 0.00017516
15470.0 0.00017479
15490.0 0.00017443
15510.0 0.00017408
15530.0 0.00017371
15550.0 0.00017335
15570.0 0.000173
15590.0 0.00017264
15610.0 0.00017227
15630.0 0.00017193
15650.0 0.00017158
15670.0 0.00017122
15690.0 0.00017087
15710.0 0.00017053
15730.0 0.00017018
15750.0 0.00016983
15770.0 0.00016949
15790.0 0.00016914
15810.0 0.00016879
15830.0 0.00016844
15850.0 0.00016811
15870.0 0.00016776
15890.0 0.00016742
15910.0 0.00016709
15930.0 0.00016675
15950.0 0.0001664
15970.0 0.00016606
15990.0 0.00016573
16010.0 0.00016538
16030.0 0.00016503
16050.0 0.00016471
16070.0 0.00016437
16090.0 0.00016403
16110.0 0.00016369
16130.0 0.00016337
16150.0 0.00016302
16170.0 0.00016267
16190.0 0.00016234
16210.0 0.00016201
16230.0 0.00016166
16250.0 0.00016133
16270.0 0.000161
16290.0 0.00016066
16310.0 0.00016032
16330.0 0.00015999
16350.0 0.00015965
16370.0 0.0001593
16390.0 0.00015896
16410.0 0.00015863
16430.0 0.00015829
16450.0 0.00015795
16470.0 0.00015762
16490.0 0.00015727
16510.0 0.00015693
16530.0 0.00015659
16550.0 0.00015625
16570.0 0.0001559
16590.0 0.00015555
16610.0 0.00015522
16630.0 0.00015488
16650.0 0.00015453
16670.0 0.00015419
16690.0 0.00015385
16710.0 0.00015349
16730.0 0.00015314
16750.0 0.0001528
16770.0 0.00015245
16790.0 0.00015209
16810.0 0.00015175
16830.0 0.0001514
16850.0 0.00015104
16870.0 0.00015069
16890.0 0.00015035
16910.0 0.00014999
16930.0 0.00014962
16950.0 0.00014928
16970.0 0.00014892
16990.0 0.00014856
17010.0 0.0001482
17030.0 0.00014785
17050.0 0.00014749
17070.0 0.00014712
17090.0 0.00014677
17110.0 0.00014641
17130.0 0.00014603
17150.0 0.00014566
17170.0 0.00014531
17190.0 0.00014494
17210.0 0.00014457
17230.0 0.00014421
17250.0 0.00014384
17270.0 0.00014346
17290.0 0.00014309
17310.0 0.00014272
17330.0 0.00014234
17350.0 0.00014196
17370.0 0.0001416
17390.0 0.00014122
17410.0 0.00014084
17430.0 0.00014047
17450.0 0.0001401
17470.0 0.0001397
17490.0 0.00013932
17510.0 0.00013895
17530.0 0.00013856
17550.0 0.00013817
17570.0 0.00013779
17590.0 0.00013742
17610.0 0.00013702
17630.0 0.00013663
17650.0 0.00013625
17670.0 0.00013586
17690.0 0.00013546
17710.0 0.00013507
17730.0 0.00013469
17750.0 0.00013429
17770.0 0.0001339
17790.0 0.00013352
17810.0 0.00013312
17830.0 0.00013271
17850.0 0.00013232
17870.0 0.00013193
17890.0 0.00013152
17910.0 0.00013112
17930.0 0.00013073
17950.0 0.00013033
17970.0 0.00012992
17990.0 0.00012953
18010.0 0.00012913
18030.0 0.00012871
18050.0 0.00012831
18070.0 0.00012791
18090.0 0.0001275
18110.0 0.00012709
18130.0 0.00012669
18150.0 0.00012629
18170.0 0.00012587
18190.0 0.00012547
18210.0 0.00012507
18230.0 0.00012465
18250.0 0.00012423
18270.0 0.00012383
18290.0 0.00012342
18310.0 0.000123
18330.0 0.00012259
18350.0 0.00012219
18370.0 0.00012177
18390.0 0.00012135
18410.0 0.00012094
18430.0 0.00012053
18450.0 0.0001201
18470.0 0.00011969
18490.0 0.00011928
18510.0 0.00011886
18530.0 0.00011844
18550.0 0.00011803
18570.0 0.00011762
18590.0 0.00011719
18610.0 0.00011677
18630.0 0.00011636
18650.0 0.00011593
18670.0 0.00011551
18690.0 0.0001151
18710.0 0.00011468
18730.0 0.00011425
18750.0 0.00011384
18770.0 0.00011343
18790.0 0.00011299
18810.0 0.00011257
18830.0 0.00011216
18850.0 0.00011174
18870.0 0.00011131
18890.0 0.00011089
18910.0 0.00011048
18930.0 0.00011005
18950.0 0.00010962
18970.0 0.00010921
18990.0 0.00010879
19010.0 0.00010835
19030.0 0.00010794
19050.0 0.00010752
19070.0 0.00010709
19090.0 0.00010667
19110.0 0.00010626
19130.0 0.00010583
19150.0 0.0001054
19170.0 0.00010498
19190.0 0.00010456
19210.0 0.00010413
19230.0 0.0001037
19250.0 0.00010329
19270.0 0.00010287
19290.0 0.00010244
19310.0 0.00010203
19330.0 0.00010161
19350.0 0.00010117
19370.0 0.00010075
19390.0 0.00010034
19410.0 9.9912e-05
19430.0 9.9482e-05
19450.0 9.9071e-05
19470.0 9.8653e-05
19490.0 9.8223e-05
19510.0 9.7804e-05
19530.0 9.7393e-05
19550.0 9.6963e-05
19570.0 9.6531e-05
19590.0 9.6121e-05
19610.0 9.5703e-05
19630.0 9.5274e-05
19650.0 9.4858e-05
19670.0 9.4449e-05
19690.0 9.4021e-05
19710.0 9.3596e-05
19730.0 9.3185e-05
19750.0 9.2767e-05
19770.0 9.2333e-05
19790.0 9.1919e-05
19810.0 9.1509e-05
19830.0 9.1083e-05
19850.0 9.0655e-05
19870.0 9.0235e-05
19890.0 8.9785e-05
19910.0 8.929e-05
19930.0 8.876e-05
19950.0 8.8154e-05
19970.0 8.7408e-05
19990.0 8.651e-05
20010.0 7.6967e-05
20030.0 7.5853e-05
20050.0 7.4549e-05
20070.0 7.3137e-05
20090.0 7.1617e-05
20110.0 6.9898e-05
20130.0 6.8158e-05
20150.0 6.6434e-05
20170.0 6.4646e-05
20190.0 6.2832e-05
20210.0 6.1119e-05
20230.0 5.9449e-05
20250.0 5.7775e-05
20270.0 5.6221e-05
20290.0 5.4802e-05
20310.0 5.3454e-05
20330.0 5.2194e-05
20350.0 5.1148e-05
20370.0 5.022e-05
20390.0 4.9406e-05
20410.0 4.8749e-05
20430.0 4.8242e-05
20450.0 4.784e-05
20470.0 4.7571e-05
20490.0 4.7427e-05
20510.0 4.7385e-05
20530.0 4.7444e-05
20550.0 4.759e-05
20570.0 4.7803e-05
20590.0 4.8092e-05
20610.0 4.8441e-05
20630.0 4.8826e-05
20650.0 4.9257e-05
20670.0 4.9749e-05
20690.0 5.025e-05
20710.0 5.0769e-05
20730.0 5.1328e-05
20750.0 5.1913e-05
20770.0 5.2487e-05
20790.0 5.309e-05
20810.0 5.3728e-05
20830.0 5.4363e-05
20850.0 5.5001e-05
20870.0 5.5684e-05
20890.0 5.638e-05
20910.0 5.7052e-05
20930.0 5.7749e-05
20950.0 5.8471e-05
20970.0 5.9175e-05
20990.0 5.987e-05
21010.0 6.06e-05
21030.0 6.1314e-05
21050.0 6.1996e-05
21070.0 6.2676e-05
21090.0 6.3359e-05
21110.0 6.3981e-05
21130.0 6.4566e-05
21150.0 6.5132e-05
21170.0 6.5645e-05
21190.0 6.6087e-05
21210.0 6.6484e-05
21230.0 6.6814e-05
21250.0 6.7049e-05
21270.0 6.7198e-05
21290.0 6.7254e-05
21310.0 6.72e-05
21330.0 6.7042e-05
21350.0 6.6764e-05
21370.0 6.6355e-05
21390.0 6.5835e-05
21410.0 6.5199e-05
21430.0 6.4393e-05
21450.0 6.3489e-05
21470.0 6.2504e-05
21490.0 6.139e-05
21510.0 6.0167e-05
21530.0 5.8926e-05
21550.0 5.7625e-05
21570.0 5.6238e-05
21590.0 5.4873e-05
21610.0 5.3555e-05
21630.0 5.2235e-05
21650.0 5.0946e-05
21670.0 4.9828e-05
21690.0 4.8797e-05
21710.0 4.7869e-05
21730.0 4.7109e-05
21750.0 4.6522e-05
21770.0 4.6075e-05
21790.0 4.5818e-05
21810.0 4.5747e-05
21830.0 4.5848e-05
21850.0 4.6135e-05
21870.0 4.6582e-05
21890.0 4.7159e-05
21910.0 4.79e-05
21930.0 4.8768e-05
21950.0 4.971e-05
21970.0 5.0752e-05
21990.0 5.1922e-05
22010.0 5.3091e-05
22030.0 5.4278e-05
22050.0 5.5526e-05
22070.0 5.678e-05
22090.0 5.7967e-05
22110.0 5.9164e-05
22130.0 6.0359e-05
22150.0 6.1475e-05
22170.0 6.2527e-05
22190.0 6.357e-05
22210.0 6.4541e-05
22230.0 6.5395e-05
22250.0 6.6199e-05
22270.0 6.6939e-05
22290.0 6.7572e-05
22310.0 6.8115e-05
22330.0 6.8594e-05
22350.0 6.8963e-05
22370.0 6.9224e-05
22390.0 6.9387e-05
22410.0 6.9439e-05
22430.0 6.9373e-05
22450.0 6.9194e-05
22470.0 6.8885e-05
22490.0 6.8451e-05
22510.0 6.7911e-05
22530.0 6.7219e-05
22550.0 6.6378e-05
22570.0 6.5444e-05
22590.0 6.4392e-05
22610.0 6.3181e-05
22630.0 6.187e-05
22650.0 6.0515e-05
22670.0 5.9017e-05
22690.0 5.7418e-05
22710.0 5.5805e-05
22730.0 5.4142e-05
22750.0 5.2339e-05
22770.0 5.0578e-05
22790.0 4.8858e-05
22810.0 4.7092e-05
22830.0 4.533e-05
