#lamb flux
1010.0 5.9286e-07
1030.0 5.9531e-07
1050.0 5.9801e-07
1070.0 6.1203e-07
1090.0 6.5057e-07
1110.0 6.8052e-07
1130.0 7.019e-07
1150.0 7.1903e-07
1170.0 7.3154e-07
1190.0 7.352e-07
1210.0 7.3603e-07
1230.0 7.3579e-07
1250.0 7.3266e-07
1270.0 7.2706e-07
1290.0 7.2341e-07
1310.0 7.195e-07
1330.0 7.1441e-07
1350.0 7.1089e-07
1370.0 7.1006e-07
1390.0 7.1045e-07
1410.0 7.1267e-07
1430.0 7.196e-07
1450.0 7.3045e-07
1470.0 7.4493e-07
1490.0 7.6508e-07
1510.0 7.9291e-07
1530.0 8.2615e-07
1550.0 8.6687e-07
1570.0 9.1742e-07
1590.0 9.7804e-07
1610.0 1.0486e-06
1630.0 1.1333e-06
1650.0 1.2331e-06
1670.0 1.3476e-06
1690.0 1.4793e-06
1710.0 1.6321e-06
1730.0 1.8069e-06
1750.0 2.0023e-06
1770.0 2.2246e-06
1790.0 2.4755e-06
1810.0 2.7538e-06
1830.0 3.0613e-06
1850.0 3.4047e-06
1870.0 3.7788e-06
1890.0 4.1823e-06
1910.0 4.6189e-06
1930.0 5.0883e-06
1950.0 5.5809e-06
1970.0 6.0963e-06
1990.0 6.6368e-06
2010.0 7.1913e-06
2030.0 7.7511e-06
2050.0 8.3194e-06
2070.0 8.8899e-06
2090.0 9.4429e-06
2110.0 9.98e-06
2130.0 1.0501e-05
2150.0 1.0991e-05
2170.0 1.1442e-05
2190.0 1.1862e-05
2210.0 1.2243e-05
2230.0 1.2574e-05
2250.0 1.286e-05
2270.0 1.3111e-05
2290.0 1.3311e-05
2310.0 1.3461e-05
2330.0 1.3577e-05
2350.0 1.3657e-05
2370.0 1.3697e-05
2390.0 1.3709e-05
2410.0 1.3709e-05
2430.0 1.3686e-05
2450.0 1.365e-05
2470.0 1.3619e-05
2490.0 1.36e-05
2510.0 1.3587e-05
2530.0 1.362e-05
2550.0 1.3747e-05
2570.0 1.4007e-05
2590.0 1.4451e-05
2610.0 1.5234e-05
2630.0 1.638e-05
2650.0 1.7828e-05
2670.0 1.9621e-05
2690.0 2.174e-05
2710.0 2.394e-05
2730.0 2.6133e-05
2750.0 2.8435e-05
2770.0 3.0701e-05
2790.0 3.2869e-05
2810.0 3.5089e-05
2830.0 3.7488e-05
2850.0 3.9825e-05
2870.0 4.2228e-05
2890.0 4.4816e-05
2910.0 4.75e-05
2930.0 5.0177e-05
2950.0 5.3054e-05
2970.0 5.6106e-05
2990.0 5.9189e-05
3010.0 6.2372e-05
3030.0 6.5779e-05
3050.0 6.9294e-05
3070.0 7.272e-05
3090.0 7.6215e-05
3110.0 7.9611e-05
3130.0 8.2648e-05
3150.0 8.5247e-05
3170.0 8.7319e-05
3190.0 8.8768e-05
3210.0 8.9806e-05
3230.0 9.067e-05
3250.0 9.1686e-05
3270.0 9.3233e-05
3290.0 9.5517e-05
3310.0 9.8728e-05
3330.0 0.00010277
3350.0 0.00010739
3370.0 0.0001125
3390.0 0.00011775
3410.0 0.0001231
3430.0 0.00013391
3450.0 0.00014191
3470.0 0.00014897
3490.0 0.00015125
3510.0 0.00014927
3530.0 0.00016914
3550.0 0.00020121
3570.0 0.00022121
3590.0 0.00023639
3610.0 0.00023838
3630.0 0.00022612
3650.0 0.00024302
3670.0 0.0002907
3690.0 0.00032665
3710.0 0.00034107
3730.0 0.00034914
3750.0 0.00036731
3770.0 0.00036815
3790.0 0.00035285
3810.0 0.0003321
3830.0 0.00030977
3850.0 0.0003089
3870.0 0.00032777
3890.0 0.00034628
3910.0 0.00036061
3930.0 0.00036494
3950.0 0.00038943
3970.0 0.00041604
3990.0 0.00040081
4010.0 0.00035803
4030.0 0.00031797
4050.0 0.00030609
4070.0 0.00031865
4090.0 0.00032123
4110.0 0.00031221
4130.0 0.00030827
4150.0 0.00031644
4170.0 0.00034931
4190.0 0.00037827
4210.0 0.00036642
4230.0 0.00034203
4250.0 0.00032888
4270.0 0.00032141
4290.0 0.00032711
4310.0 0.00033691
4330.0 0.00032085
4350.0 0.00028224
4370.0 0.00024985
4390.0 0.00022762
4410.0 0.00021012
4430.0 0.0002102
4450.0 0.00022865
4470.0 0.00024724
4490.0 0.00026907
4510.0 0.00030439
4530.0 0.00037237
4550.0 0.00044945
4570.0 0.00049572
4590.0 0.0005301
4610.0 0.00056999
4630.0 0.00058929
4650.0 0.00054894
4670.0 0.00046053
4690.0 0.00039144
4710.0 0.00036771
4730.0 0.00035544
4750.0 0.00031851
4770.0 0.00028901
4790.0 0.00030015
4810.0 0.00032618
4830.0 0.00032478
4850.0 0.0002994
4870.0 0.00029326
4890.0 0.00030595
4910.0 0.00032007
4930.0 0.00031971
4950.0 0.00031086
4970.0 0.0002961
4990.0 0.00027216
5010.0 0.00024996
5030.0 0.00023736
5050.0 0.00023153
5070.0 0.0002276
5090.0 0.00022395
5110.0 0.00022362
5130.0 0.00022706
5150.0 0.00023982
5170.0 0.00026483
5190.0 0.00029521
5210.0 0.00032712
5230.0 0.00034668
5250.0 0.0003569
5270.0 0.00037533
5290.0 0.00039328
5310.0 0.00039767
5330.0 0.00038295
5350.0 0.00036581
5370.0 0.00036594
5390.0 0.00038579
5410.0 0.00040499
5430.0 0.00041172
5450.0 0.00040945
5470.0 0.00039764
5490.0 0.00038309
5510.0 0.00037576
5530.0 0.00037748
5550.0 0.00038321
5570.0 0.00038706
5590.0 0.00037569
5610.0 0.00035434
5630.0 0.0003334
5650.0 0.00031695
5670.0 0.00030691
5690.0 0.00029457
5710.0 0.00028515
5730.0 0.0002894
5750.0 0.00028885
5770.0 0.00028288
5790.0 0.00028545
5810.0 0.00029211
5830.0 0.00029835
5850.0 0.00030064
5870.0 0.00029449
5890.0 0.00028196
5910.0 0.00026762
5930.0 0.0002472
5950.0 0.0002326
5970.0 0.00023232
5990.0 0.00023968
6010.0 0.00024237
6030.0 0.0002338
6050.0 0.0002303
6070.0 0.00023918
6090.0 0.00025103
6110.0 0.00025544
6130.0 0.00024671
6150.0 0.00023233
6170.0 0.00022288
6190.0 0.00021352
6210.0 0.00020352
6230.0 0.00019591
6250.0 0.00019358
6270.0 0.00019859
6290.0 0.00020758
6310.0 0.00021913
6330.0 0.00023181
6350.0 0.00024234
6370.0 0.00024706
6390.0 0.00024755
6410.0 0.00025014
6430.0 0.00025321
6450.0 0.00025406
6470.0 0.00025732
6490.0 0.00026126
6510.0 0.00026235
6530.0 0.00025954
6550.0 0.00025219
6570.0 0.00024293
6590.0 0.00023585
6610.0 0.00023061
6630.0 0.00022601
6650.0 0.00021824
6670.0 0.00020902
6690.0 0.00020212
6710.0 0.00019784
6730.0 0.00019653
6750.0 0.00019412
6770.0 0.00019022
6790.0 0.00018727
6810.0 0.00018491
6830.0 0.00018442
6850.0 0.00018457
6870.0 0.00018314
6890.0 0.00018199
6910.0 0.00017818
6930.0 0.00017402
6950.0 0.00017305
6970.0 0.00017014
6990.0 0.00016483
7010.0 0.0001623
7030.0 0.00016027
7050.0 0.00015666
7070.0 0.00015239
7090.0 0.00014935
7110.0 0.00015091
7130.0 0.00015679
7150.0 0.0001635
7170.0 0.00016782
7190.0 0.00016656
7210.0 0.00016333
7230.0 0.00016122
7250.0 0.00015908
7270.0 0.0001577
7290.0 0.00015567
7310.0 0.00015467
7330.0 0.00015735
7350.0 0.00016043
7370.0 0.00016207
7390.0 0.00016048
7410.0 0.00015656
7430.0 0.00015466
7450.0 0.00015292
7470.0 0.00014548
7490.0 0.00014006
7510.0 0.00013416
7530.0 0.0001298
7550.0 0.0001292
7570.0 0.00013067
7590.0 0.00012985
7610.0 0.00012852
7630.0 0.00012792
7650.0 0.00012735
7670.0 0.00012973
7690.0 0.00013439
7710.0 0.00013992
7730.0 0.00014412
7750.0 0.00014821
7770.0 0.00015021
7790.0 0.00014977
7810.0 0.00014744
7830.0 0.00014895
7850.0 0.00014868
7870.0 0.0001438
7890.0 0.00013857
7910.0 0.00013412
7930.0 0.0001296
7950.0 0.00012643
7970.0 0.0001259
7990.0 0.00012741
8010.0 0.00012596
8030.0 0.00012445
8050.0 0.00012227
8070.0 0.00011988
8090.0 0.00011739
8110.0 0.00011749
8130.0 0.00011834
8150.0 0.00011809
8170.0 0.00011718
8190.0 0.00011469
8210.0 0.00010884
8230.0 0.00010144
8250.0 9.6875e-05
8270.0 9.3957e-05
8290.0 9.211e-05
8310.0 9.2335e-05
8330.0 9.3762e-05
8350.0 9.1699e-05
8370.0 8.9526e-05
8390.0 9.1107e-05
8410.0 9.5218e-05
8430.0 0.00010126
8450.0 0.00010711
8470.0 0.00010945
8490.0 0.00011127
8510.0 0.00011172
8530.0 0.00011229
8550.0 0.00011355
8570.0 0.00011409
8590.0 0.0001146
8610.0 0.00011771
8630.0 0.00011893
8650.0 0.00011638
8670.0 0.00011626
8690.0 0.00011711
8710.0 0.00011687
8730.0 0.00011582
8750.0 0.00011251
8770.0 0.000111
8790.0 0.00011013
8810.0 0.00010876
8830.0 0.00010259
8850.0 9.4358e-05
8870.0 8.8332e-05
8890.0 8.4907e-05
8910.0 7.9869e-05
8930.0 7.4325e-05
8950.0 7.1495e-05
8970.0 7.1092e-05
8990.0 7.1436e-05
9010.0 7.1071e-05
9030.0 7.057e-05
9050.0 7.0106e-05
9070.0 6.9678e-05
9090.0 6.9255e-05
9110.0 6.8835e-05
9130.0 6.8416e-05
9150.0 6.7999e-05
9170.0 6.7583e-05
9190.0 6.7166e-05
9210.0 6.6749e-05
9230.0 6.6339e-05
9250.0 6.5931e-05
9270.0 6.5523e-05
9290.0 6.5117e-05
9310.0 6.4713e-05
9330.0 6.431e-05
9350.0 6.3909e-05
9370.0 6.3509e-05
9390.0 6.3112e-05
9410.0 6.2716e-05
9430.0 6.2319e-05
9450.0 6.1911e-05
9470.0 6.1512e-05
9490.0 6.1141e-05
9510.0 6.076e-05
9530.0 6.0382e-05
9550.0 6.0001e-05
9570.0 5.9621e-05
9590.0 5.9245e-05
9610.0 5.8869e-05
9630.0 5.8495e-05
9650.0 5.8122e-05
9670.0 5.7755e-05
9690.0 5.7386e-05
9710.0 5.7019e-05
9730.0 5.6657e-05
9750.0 5.6295e-05
9770.0 5.5933e-05
9790.0 5.5574e-05
9810.0 5.5218e-05
9830.0 5.4856e-05
9850.0 5.4456e-05
9870.0 5.4115e-05
9890.0 5.3783e-05
9910.0 5.3445e-05
9930.0 5.3098e-05
9950.0 5.2766e-05
9970.0 5.2424e-05
9990.0 5.2075e-05
10010.0 5.1686e-05
10030.0 5.1328e-05
10050.0 5.1017e-05
10070.0 5.07e-05
10090.0 5.0383e-05
10110.0 5.0039e-05
10130.0 4.9626e-05
10150.0 4.9312e-05
10170.0 4.9013e-05
10190.0 4.8694e-05
10210.0 4.8381e-05
10230.0 4.8068e-05
10250.0 4.774e-05
10270.0 4.7412e-05
10290.0 4.7096e-05
10310.0 4.6769e-05
10330.0 4.6432e-05
10350.0 4.6111e-05
10370.0 4.5791e-05
10390.0 4.5461e-05
10410.0 4.5132e-05
10430.0 4.482e-05
10450.0 4.4495e-05
10470.0 4.4165e-05
10490.0 4.3846e-05
10510.0 4.3529e-05
10530.0 4.3193e-05
10550.0 4.2866e-05
10570.0 4.2551e-05
10590.0 4.2225e-05
10610.0 4.1894e-05
10630.0 4.1577e-05
10650.0 4.1258e-05
10670.0 4.0923e-05
10690.0 4.0597e-05
10710.0 4.0278e-05
10730.0 3.9948e-05
10750.0 3.9608e-05
10770.0 3.9289e-05
10790.0 3.8965e-05
10810.0 3.863e-05
10830.0 3.8301e-05
10850.0 3.7983e-05
10870.0 3.7644e-05
10890.0 3.7307e-05
10910.0 3.6985e-05
10930.0 3.6662e-05
10950.0 3.6332e-05
10970.0 3.6015e-05
10990.0 3.5718e-05
11010.0 3.6426e-05
11030.0 3.6154e-05
11050.0 3.5894e-05
11070.0 3.5632e-05
11090.0 3.5353e-05
11110.0 3.5086e-05
11130.0 3.482e-05
11150.0 3.4544e-05
11170.0 3.4268e-05
11190.0 3.4007e-05
11210.0 3.3744e-05
11230.0 3.3482e-05
11250.0 3.3236e-05
11270.0 3.3004e-05
11290.0 3.2774e-05
11310.0 3.2555e-05
11330.0 3.2359e-05
11350.0 3.2167e-05
11370.0 3.198e-05
11390.0 3.1806e-05
11410.0 3.1639e-05
11430.0 3.1467e-05
11450.0 3.1298e-05
11470.0 3.1132e-05
11490.0 3.096e-05
11510.0 3.0776e-05
11530.0 3.0591e-05
11550.0 3.0397e-05
11570.0 3.0186e-05
11590.0 2.9964e-05
11610.0 2.9736e-05
11630.0 2.9487e-05
11650.0 2.9219e-05
11670.0 2.8951e-05
11690.0 2.8672e-05
11710.0 2.8375e-05
11730.0 2.8073e-05
11750.0 2.7776e-05
11770.0 2.7466e-05
11790.0 2.7149e-05
11810.0 2.6842e-05
11830.0 2.6536e-05
11850.0 2.6217e-05
11870.0 2.5911e-05
11890.0 2.5619e-05
11910.0 2.5323e-05
11930.0 2.5031e-05
11950.0 2.4757e-05
11970.0 2.4488e-05
11990.0 2.4218e-05
12010.0 2.3964e-05
12030.0 2.3724e-05
12050.0 2.3488e-05
12070.0 2.3259e-05
12090.0 2.3054e-05
12110.0 2.2857e-05
12130.0 2.2669e-05
12150.0 2.2497e-05
12170.0 2.2344e-05
12190.0 2.2198e-05
12210.0 2.207e-05
12230.0 2.1963e-05
12250.0 2.1871e-05
12270.0 2.1796e-05
12290.0 2.174e-05
12310.0 2.1699e-05
12330.0 2.1675e-05
12350.0 2.1664e-05
12370.0 2.1665e-05
12390.0 2.1676e-05
12410.0 2.1697e-05
12430.0 2.172e-05
12450.0 2.1745e-05
12470.0 2.1771e-05
12490.0 2.1793e-05
12510.0 2.1806e-05
12530.0 2.1813e-05
12550.0 2.1808e-05
12570.0 2.1789e-05
12590.0 2.1754e-05
12610.0 2.1702e-05
12630.0 2.163e-05
12650.0 2.1542e-05
12670.0 2.1433e-05
12690.0 2.1304e-05
12710.0 2.116e-05
12730.0 2.1002e-05
12750.0 2.0822e-05
12770.0 2.0632e-05
12790.0 2.0436e-05
12810.0 2.0228e-05
12830.0 2.0009e-05
12850.0 1.9795e-05
12870.0 1.958e-05
12890.0 1.9356e-05
12910.0 1.9136e-05
12930.0 1.8924e-05
12950.0 1.8706e-05
12970.0 1.8487e-05
12990.0 1.8279e-05
13010.0 1.8075e-05
13030.0 1.7867e-05
13050.0 1.7666e-05
13070.0 1.7475e-05
13090.0 1.7282e-05
13110.0 1.7092e-05
13130.0 1.6912e-05
13150.0 1.6739e-05
13170.0 1.6565e-05
13190.0 1.6403e-05
13210.0 1.6253e-05
13230.0 1.6107e-05
13250.0 1.5968e-05
13270.0 1.5841e-05
13290.0 1.5719e-05
13310.0 1.5599e-05
13330.0 1.5488e-05
13350.0 1.5382e-05
13370.0 1.5277e-05
13390.0 1.5173e-05
13410.0 1.5074e-05
13430.0 1.4973e-05
13450.0 1.487e-05
13470.0 1.4767e-05
13490.0 1.4665e-05
13510.0 1.4556e-05
13530.0 1.4446e-05
13550.0 1.4337e-05
13570.0 1.4226e-05
13590.0 1.4109e-05
13610.0 1.3995e-05
13630.0 1.3882e-05
13650.0 1.3765e-05
13670.0 1.3647e-05
13690.0 1.3533e-05
13710.0 1.3417e-05
13730.0 1.3297e-05
13750.0 1.3182e-05
13770.0 1.3068e-05
13790.0 1.2951e-05
13810.0 1.2834e-05
13830.0 1.2721e-05
13850.0 1.2604e-05
13870.0 1.2485e-05
13890.0 1.2368e-05
13910.0 1.2252e-05
13930.0 1.213e-05
13950.0 1.2009e-05
13970.0 1.1892e-05
13990.0 1.1772e-05
14010.0 1.1649e-05
14030.0 1.1529e-05
14050.0 1.141e-05
14070.0 1.1284e-05
14090.0 1.1162e-05
14110.0 1.1043e-05
14130.0 1.0922e-05
14150.0 1.08e-05
14170.0 1.0686e-05
14190.0 1.0575e-05
14210.0 1.0463e-05
14230.0 1.0357e-05
14250.0 1.0259e-05
14270.0 1.0161e-05
14290.0 1.0068e-05
14310.0 9.9846e-06
14330.0 9.9058e-06
14350.0 9.8299e-06
14370.0 9.7604e-06
14390.0 9.6976e-06
14410.0 9.6362e-06
14430.0 9.5783e-06
14450.0 9.5255e-06
14470.0 9.4752e-06
14490.0 9.4248e-06
14510.0 9.3783e-06
14530.0 9.3348e-06
14550.0 9.2909e-06
14570.0 9.248e-06
14590.0 9.208e-06
14610.0 9.168e-06
14630.0 9.1273e-06
14650.0 9.0891e-06
14670.0 9.053e-06
14690.0 9.0171e-06
14710.0 8.9831e-06
14730.0 8.9543e-06
14750.0 8.9284e-06
14770.0 8.9066e-06
14790.0 8.8913e-06
14810.0 8.8831e-06
14830.0 8.882e-06
14850.0 8.8903e-06
14870.0 8.9076e-06
14890.0 8.9341e-06
14910.0 8.9695e-06
14930.0 9.0105e-06
14950.0 9.0544e-06
14970.0 9.1003e-06
14990.0 9.1431e-06
15010.0 9.1798e-06
15030.0 9.2103e-06
15050.0 9.234e-06
15070.0 9.2507e-06
15090.0 9.2628e-06
15110.0 9.2714e-06
15130.0 9.278e-06
15150.0 9.2839e-06
15170.0 9.2892e-06
15190.0 9.2942e-06
15210.0 9.2997e-06
15230.0 9.3056e-06
15250.0 9.3113e-06
15270.0 9.3174e-06
15290.0 9.3243e-06
15310.0 9.3312e-06
15330.0 9.3382e-06
15350.0 9.3458e-06
15370.0 9.3538e-06
15390.0 9.3615e-06
15410.0 9.3697e-06
15430.0 9.3785e-06
15450.0 9.3873e-06
15470.0 9.3962e-06
15490.0 9.4058e-06
15510.0 9.4157e-06
15530.0 9.4254e-06
15550.0 9.4355e-06
15570.0 9.4463e-06
15590.0 9.4568e-06
15610.0 9.4674e-06
15630.0 9.4787e-06
15650.0 9.4902e-06
15670.0 9.5016e-06
15690.0 9.5135e-06
15710.0 9.5259e-06
15730.0 9.538e-06
15750.0 9.5503e-06
15770.0 9.5633e-06
15790.0 9.5763e-06
15810.0 9.589e-06
15830.0 9.6023e-06
15850.0 9.6161e-06
15870.0 9.6296e-06
15890.0 9.6433e-06
15910.0 9.6577e-06
15930.0 9.6719e-06
15950.0 9.686e-06
15970.0 9.7005e-06
15990.0 9.7154e-06
16010.0 9.7301e-06
16030.0 9.7447e-06
16050.0 9.7602e-06
16070.0 9.7755e-06
16090.0 9.7907e-06
16110.0 9.8062e-06
16130.0 9.8222e-06
16150.0 9.8375e-06
16170.0 9.8531e-06
16190.0 9.8693e-06
16210.0 9.8853e-06
16230.0 9.9011e-06
16250.0 9.9174e-06
16270.0 9.9339e-06
16290.0 9.95e-06
16310.0 9.9662e-06
16330.0 9.9829e-06
16350.0 9.9994e-06
16370.0 1.0015e-05
16390.0 1.0032e-05
16410.0 1.0049e-05
16430.0 1.0065e-05
16450.0 1.0082e-05
16470.0 1.0099e-05
16490.0 1.0115e-05
16510.0 1.0132e-05
16530.0 1.0148e-05
16550.0 1.0165e-05
16570.0 1.0181e-05
16590.0 1.0198e-05
16610.0 1.0214e-05
16630.0 1.0231e-05
16650.0 1.0247e-05
16670.0 1.0263e-05
16690.0 1.028e-05
16710.0 1.0296e-05
16730.0 1.0312e-05
16750.0 1.0328e-05
16770.0 1.0344e-05
16790.0 1.0359e-05
16810.0 1.0375e-05
16830.0 1.0391e-05
16850.0 1.0406e-05
16870.0 1.0421e-05
16890.0 1.0437e-05
16910.0 1.0451e-05
16930.0 1.0466e-05
16950.0 1.0481e-05
16970.0 1.0495e-05
16990.0 1.0509e-05
17010.0 1.0524e-05
17030.0 1.0538e-05
17050.0 1.0551e-05
17070.0 1.0565e-05
17090.0 1.0578e-05
17110.0 1.0591e-05
17130.0 1.0604e-05
17150.0 1.0616e-05
17170.0 1.0629e-05
17190.0 1.0641e-05
17210.0 1.0653e-05
17230.0 1.0665e-05
17250.0 1.0676e-05
17270.0 1.0687e-05
17290.0 1.0697e-05
17310.0 1.0708e-05
17330.0 1.0718e-05
17350.0 1.0727e-05
17370.0 1.0737e-05
17390.0 1.0747e-05
17410.0 1.0755e-05
17430.0 1.0764e-05
17450.0 1.0772e-05
17470.0 1.078e-05
17490.0 1.0787e-05
17510.0 1.0794e-05
17530.0 1.0801e-05
17550.0 1.0807e-05
17570.0 1.0813e-05
17590.0 1.0819e-05
17610.0 1.0824e-05
17630.0 1.0829e-05
17650.0 1.0834e-05
17670.0 1.0838e-05
17690.0 1.0841e-05
17710.0 1.0844e-05
17730.0 1.0847e-05
17750.0 1.0849e-05
17770.0 1.0851e-05
17790.0 1.0853e-05
17810.0 1.0854e-05
17830.0 1.0854e-05
17850.0 1.0854e-05
17870.0 1.0854e-05
17890.0 1.0853e-05
17910.0 1.0851e-05
17930.0 1.085e-05
17950.0 1.0847e-05
17970.0 1.0844e-05
17990.0 1.0841e-05
18010.0 1.0838e-05
18030.0 1.0833e-05
18050.0 1.0828e-05
18070.0 1.0824e-05
18090.0 1.0818e-05
18110.0 1.0811e-05
18130.0 1.0805e-05
18150.0 1.0798e-05
18170.0 1.079e-05
18190.0 1.0781e-05
18210.0 1.0773e-05
18230.0 1.0763e-05
18250.0 1.0753e-05
18270.0 1.0743e-05
18290.0 1.0732e-05
18310.0 1.072e-05
18330.0 1.0709e-05
18350.0 1.0697e-05
18370.0 1.0683e-05
18390.0 1.067e-05
18410.0 1.0656e-05
18430.0 1.0641e-05
18450.0 1.0626e-05
18470.0 1.061e-05
18490.0 1.0594e-05
18510.0 1.0577e-05
18530.0 1.056e-05
18550.0 1.0542e-05
18570.0 1.0524e-05
18590.0 1.0505e-05
18610.0 1.0486e-05
18630.0 1.0466e-05
18650.0 1.0445e-05
18670.0 1.0424e-05
18690.0 1.0403e-05
18710.0 1.0381e-05
18730.0 1.0358e-05
18750.0 1.0335e-05
18770.0 1.0312e-05
18790.0 1.0288e-05
18810.0 1.0263e-05
18830.0 1.0238e-05
18850.0 1.0213e-05
18870.0 1.0186e-05
18890.0 1.016e-05
18910.0 1.0133e-05
18930.0 1.0105e-05
18950.0 1.0077e-05
18970.0 1.0049e-05
18990.0 1.002e-05
19010.0 9.9899e-06
19030.0 9.9603e-06
19050.0 9.9301e-06
19070.0 9.899e-06
19090.0 9.8677e-06
19110.0 9.8364e-06
19130.0 9.8039e-06
19150.0 9.771e-06
19170.0 9.7381e-06
19190.0 9.7047e-06
19210.0 9.6704e-06
19230.0 9.6359e-06
19250.0 9.6015e-06
19270.0 9.5662e-06
19290.0 9.5304e-06
19310.0 9.4947e-06
19330.0 9.4585e-06
19350.0 9.4212e-06
19370.0 9.384e-06
19390.0 9.3467e-06
19410.0 9.3087e-06
19430.0 9.2701e-06
19450.0 9.2319e-06
19470.0 9.193e-06
19490.0 9.1534e-06
19510.0 9.1138e-06
19530.0 9.0741e-06
19550.0 9.0335e-06
19570.0 8.9926e-06
19590.0 8.9519e-06
19610.0 8.9108e-06
19630.0 8.869e-06
19650.0 8.8273e-06
19670.0 8.7855e-06
19690.0 8.7429e-06
19710.0 8.7001e-06
19730.0 8.6574e-06
19750.0 8.6143e-06
19770.0 8.5704e-06
19790.0 8.5269e-06
19810.0 8.4833e-06
19830.0 8.4388e-06
19850.0 8.394e-06
19870.0 8.349e-06
19890.0 8.3022e-06
19910.0 8.2529e-06
19930.0 8.2007e-06
19950.0 8.1436e-06
19970.0 8.0785e-06
19990.0 8.0043e-06
20010.0 7.9226e-06
20030.0 7.8293e-06
20050.0 7.7249e-06
20070.0 7.6145e-06
20090.0 7.4989e-06
20110.0 7.3733e-06
20130.0 7.2481e-06
20150.0 7.125e-06
20170.0 6.9998e-06
20190.0 6.8743e-06
20210.0 6.7546e-06
20230.0 6.6374e-06
20250.0 6.5197e-06
20270.0 6.4076e-06
20290.0 6.3013e-06
20310.0 6.197e-06
20330.0 6.095e-06
20350.0 6.0024e-06
20370.0 5.9135e-06
20390.0 5.8276e-06
20410.0 5.7477e-06
20430.0 5.674e-06
20450.0 5.6025e-06
20470.0 5.5359e-06
20490.0 5.4749e-06
20510.0 5.4178e-06
20530.0 5.3638e-06
20550.0 5.3142e-06
20570.0 5.2687e-06
20590.0 5.2255e-06
20610.0 5.1852e-06
20630.0 5.1479e-06
20650.0 5.1125e-06
20670.0 5.0788e-06
20690.0 5.0468e-06
20710.0 5.0159e-06
20730.0 4.9857e-06
20750.0 4.9559e-06
20770.0 4.9261e-06
20790.0 4.8959e-06
20810.0 4.8649e-06
20830.0 4.8329e-06
20850.0 4.7997e-06
20870.0 4.7646e-06
20890.0 4.7276e-06
20910.0 4.6891e-06
20930.0 4.6483e-06
20950.0 4.6051e-06
20970.0 4.5601e-06
20990.0 4.5135e-06
21010.0 4.4638e-06
21030.0 4.4125e-06
21050.0 4.3603e-06
21070.0 4.3061e-06
21090.0 4.2495e-06
21110.0 4.1934e-06
21130.0 4.1367e-06
21150.0 4.0784e-06
21170.0 4.0202e-06
21190.0 3.963e-06
21210.0 3.9048e-06
21230.0 3.8464e-06
21250.0 3.79e-06
21270.0 3.7345e-06
21290.0 3.6789e-06
21310.0 3.6247e-06
21330.0 3.573e-06
21350.0 3.5216e-06
21370.0 3.4712e-06
21390.0 3.423e-06
21410.0 3.3763e-06
21430.0 3.3295e-06
21450.0 3.2849e-06
21470.0 3.2421e-06
21490.0 3.2e-06
21510.0 3.1586e-06
21530.0 3.119e-06
21550.0 3.0802e-06
21570.0 3.0416e-06
21590.0 3.0042e-06
21610.0 2.9678e-06
21630.0 2.9316e-06
21650.0 2.8956e-06
21670.0 2.861e-06
21690.0 2.8267e-06
21710.0 2.7924e-06
21730.0 2.7588e-06
21750.0 2.726e-06
21770.0 2.6927e-06
21790.0 2.6597e-06
21810.0 2.6274e-06
21830.0 2.5951e-06
21850.0 2.5624e-06
21870.0 2.5302e-06
21890.0 2.4985e-06
21910.0 2.4662e-06
21930.0 2.4339e-06
21950.0 2.402e-06
21970.0 2.3699e-06
21990.0 2.3371e-06
22010.0 2.3049e-06
22030.0 2.273e-06
22050.0 2.2407e-06
22070.0 2.2084e-06
22090.0 2.177e-06
22110.0 2.1454e-06
22130.0 2.1137e-06
22150.0 2.0829e-06
22170.0 2.0526e-06
22190.0 2.0221e-06
22210.0 1.9921e-06
22230.0 1.9634e-06
22250.0 1.9349e-06
22270.0 1.9066e-06
22290.0 1.8794e-06
22310.0 1.8528e-06
22330.0 1.8261e-06
22350.0 1.8001e-06
22370.0 1.7749e-06
22390.0 1.7499e-06
22410.0 1.7249e-06
22430.0 1.7007e-06
22450.0 1.6769e-06
22470.0 1.6528e-06
22490.0 1.6291e-06
22510.0 1.6059e-06
22530.0 1.5824e-06
22550.0 1.5587e-06
22570.0 1.5357e-06
22590.0 1.5127e-06
22610.0 1.4895e-06
