#lamb flux
1010.0 4.2689e-07
1030.0 4.7822e-07
1050.0 5.2916e-07
1070.0 5.8672e-07
1090.0 6.5472e-07
1110.0 7.2441e-07
1130.0 7.9475e-07
1150.0 8.6883e-07
1170.0 9.4602e-07
1190.0 1.0207e-06
1210.0 1.098e-06
1230.0 1.1799e-06
1250.0 1.2623e-06
1270.0 1.3455e-06
1290.0 1.4361e-06
1310.0 1.5301e-06
1330.0 1.6243e-06
1350.0 1.7226e-06
1370.0 1.8266e-06
1390.0 1.9312e-06
1410.0 2.0356e-06
1430.0 2.1454e-06
1450.0 2.2564e-06
1470.0 2.3652e-06
1490.0 2.4749e-06
1510.0 2.589e-06
1530.0 2.6973e-06
1550.0 2.8029e-06
1570.0 2.9095e-06
1590.0 3.0137e-06
1610.0 3.1107e-06
1630.0 3.206e-06
1650.0 3.2999e-06
1670.0 3.3866e-06
1690.0 3.4677e-06
1710.0 3.5475e-06
1730.0 3.6229e-06
1750.0 3.6882e-06
1770.0 3.7512e-06
1790.0 3.8114e-06
1810.0 3.8645e-06
1830.0 3.9122e-06
1850.0 3.9616e-06
1870.0 4.0058e-06
1890.0 4.0449e-06
1910.0 4.0838e-06
1930.0 4.1235e-06
1950.0 4.1586e-06
1970.0 4.1926e-06
1990.0 4.2295e-06
2010.0 4.2651e-06
2030.0 4.2982e-06
2050.0 4.3335e-06
2070.0 4.3704e-06
2090.0 4.4022e-06
2110.0 4.4326e-06
2130.0 4.4631e-06
2150.0 4.4897e-06
2170.0 4.5099e-06
2190.0 4.5288e-06
2210.0 4.5434e-06
2230.0 4.55e-06
2250.0 4.5507e-06
2270.0 4.5481e-06
2290.0 4.537e-06
2310.0 4.5168e-06
2330.0 4.4918e-06
2350.0 4.4606e-06
2370.0 4.4201e-06
2390.0 4.3734e-06
2410.0 4.3223e-06
2430.0 4.2618e-06
2450.0 4.1923e-06
2470.0 4.1155e-06
2490.0 4.0308e-06
2510.0 3.9387e-06
2530.0 3.8487e-06
2550.0 3.7744e-06
2570.0 3.7329e-06
2590.0 3.7426e-06
2610.0 3.8429e-06
2630.0 4.0454e-06
2650.0 4.3311e-06
2670.0 4.7003e-06
2690.0 5.1298e-06
2710.0 5.5336e-06
2730.0 5.8624e-06
2750.0 6.1019e-06
2770.0 6.1853e-06
2790.0 6.0943e-06
2810.0 5.8391e-06
2830.0 5.4128e-06
2850.0 4.8635e-06
2870.0 4.2208e-06
2890.0 3.4891e-06
2910.0 2.7057e-06
2930.0 1.9138e-06
2950.0 1.0785e-06
2970.0 2.931e-07
2990.0 2.931e-07
3010.0 5.9517e-07
3030.0 5.9517e-07
3050.0 5.9517e-07
3070.0 5.9517e-07
3090.0 5.9517e-07
3110.0 5.9517e-07
3130.0 5.9517e-07
3150.0 5.9517e-07
3170.0 5.9517e-07
3190.0 5.9517e-07
3210.0 5.9517e-07
3230.0 2.4194e-05
3250.0 4.3099e-05
3270.0 4.0429e-05
3290.0 3.7739e-05
3310.0 2.8686e-05
3330.0 2.7841e-05
3350.0 3.0747e-05
3370.0 3.5082e-05
3390.0 3.9853e-05
3410.0 4.4971e-05
3430.0 5.1715e-05
3450.0 5.8318e-05
3470.0 6.5157e-05
3490.0 6.7665e-05
3510.0 6.1459e-05
3530.0 5.9111e-05
3550.0 6.5405e-05
3570.0 7.0235e-05
3590.0 7.6119e-05
3610.0 7.4321e-05
3630.0 9.0038e-05
3650.0 9.8301e-05
3670.0 0.00010382
3690.0 0.00010315
3710.0 9.338e-05
3730.0 9.2213e-05
3750.0 8.7594e-05
3770.0 8.4603e-05
3790.0 7.9677e-05
3810.0 7.5781e-05
3830.0 7.8202e-05
3850.0 4.1438e-05
3870.0 5.559e-05
3890.0 6.4448e-05
3910.0 7.9227e-05
3930.0 0.00010169
3950.0 0.00011024
3970.0 0.00012315
3990.0 0.00014752
4010.0 0.00012508
4030.0 0.00010761
4050.0 7.7715e-05
4070.0 7.3241e-05
4090.0 0.00010795
4110.0 0.00010795
4130.0 0.0001175
4150.0 0.00011262
4170.0 0.00010664
4190.0 9.6785e-05
4210.0 0.0001304
4230.0 0.0001377
4250.0 0.00015008
4270.0 0.00014288
4290.0 0.00014086
4310.0 0.00015301
4330.0 0.00017971
4350.0 0.00018758
4370.0 0.00018645
4390.0 0.00017012
4410.0 0.00015695
4430.0 0.00012236
4450.0 9.963e-05
4470.0 0.00010758
4490.0 0.00012614
4510.0 0.00013131
4530.0 0.00013235
4550.0 0.00013389
4570.0 0.00019077
4590.0 0.00028555
4610.0 0.00033552
4630.0 0.00033986
4650.0 0.00036649
4670.0 0.0004273
4690.0 0.00046318
4710.0 0.00038612
4730.0 0.00029452
4750.0 0.00023071
4770.0 0.00019892
4790.0 0.00018195
4810.0 0.0001725
4830.0 0.0001912
4850.0 0.00022593
4870.0 0.00024774
4890.0 0.00025874
4910.0 0.00024369
4930.0 0.00026347
4950.0 0.00032157
4970.0 0.00037463
4990.0 0.00038852
5010.0 0.00035776
5030.0 0.00029712
5050.0 0.00022885
5070.0 0.00018252
5090.0 0.00016484
5110.0 0.00016226
5130.0 0.00016525
5150.0 0.00016409
5170.0 0.0001543
5190.0 0.00014475
5210.0 0.00014181
5230.0 0.0001598
5250.0 0.00018938
5270.0 0.00022518
5290.0 0.00025525
5310.0 0.00027145
5330.0 0.00029758
5350.0 0.00032829
5370.0 0.00033812
5390.0 0.00030451
5410.0 0.00026891
5430.0 0.0002616
5450.0 0.00030296
5470.0 0.00037124
5490.0 0.00042858
5510.0 0.00045219
5530.0 0.00044265
5550.0 0.00042008
5570.0 0.00040339
5590.0 0.00038591
5610.0 0.00037626
5630.0 0.00037193
5650.0 0.00037017
5670.0 0.0003604
5690.0 0.00032412
5710.0 0.00027142
5730.0 0.00024086
5750.0 0.00022899
5770.0 0.00023213
5790.0 0.00023712
5810.0 0.00024308
5830.0 0.00024397
5850.0 0.00023013
5870.0 0.00021464
5890.0 0.00020645
5910.0 0.00021076
5930.0 0.00021594
5950.0 0.00020006
5970.0 0.00017356
5990.0 0.00014091
6010.0 0.00011316
6030.0 0.00010448
6050.0 0.00011316
6070.0 0.00012029
6090.0 0.00011467
6110.0 0.00010121
6130.0 0.00010357
6150.0 0.0001205
6170.0 0.00013854
6190.0 0.00015207
6210.0 0.00015426
6230.0 0.00015184
6250.0 0.00013866
6270.0 0.0001159
6290.0 9.5685e-05
6310.0 8.4921e-05
6330.0 8.2969e-05
6350.0 8.4458e-05
6370.0 8.5605e-05
6390.0 9.6278e-05
6410.0 0.00012009
6430.0 0.00014821
6450.0 0.00016628
6470.0 0.00017142
6490.0 0.00017025
6510.0 0.00017377
6530.0 0.00017909
6550.0 0.00017822
6570.0 0.00018493
6590.0 0.00018961
6610.0 0.00019284
6630.0 0.00018962
6650.0 0.00017708
6670.0 0.00016157
6690.0 0.00014692
6710.0 0.00013905
6730.0 0.00013734
6750.0 0.00013983
6770.0 0.00014366
6790.0 0.00014832
6810.0 0.00015147
6830.0 0.00014858
6850.0 0.00014141
6870.0 0.00013247
6890.0 0.00012949
6910.0 0.00012559
6930.0 0.00012998
6950.0 0.00013772
6970.0 0.00014137
6990.0 0.00014399
7010.0 0.00013987
7030.0 0.00012862
7050.0 0.0001138
7070.0 0.00010154
7090.0 9.5023e-05
7110.0 9.4199e-05
7130.0 9.1937e-05
7150.0 8.2175e-05
7170.0 7.7965e-05
7190.0 8.5298e-05
7210.0 9.8635e-05
7230.0 0.00011374
7250.0 0.0001204
7270.0 0.00011901
7290.0 0.00010976
7310.0 0.00010132
7330.0 9.7228e-05
7350.0 9.75e-05
7370.0 9.9341e-05
7390.0 0.00010406
7410.0 0.0001153
7430.0 0.00013325
7450.0 0.00015045
7470.0 0.00015869
7490.0 0.00015499
7510.0 0.00014523
7530.0 0.00012776
7550.0 0.00011743
7570.0 0.000106
7590.0 0.00010083
7610.0 0.00010453
7630.0 0.0001141
7650.0 0.00012738
7670.0 0.00014101
7690.0 0.00015112
7710.0 0.00016176
7730.0 0.00017281
7750.0 0.00018247
7770.0 0.00018227
7790.0 0.00018477
7810.0 0.00018933
7830.0 0.00018986
7850.0 0.00018492
7870.0 0.00018026
7890.0 0.00018248
7910.0 0.00017865
7930.0 0.00017707
7950.0 0.00016888
7970.0 0.00016513
7990.0 0.0001601
8010.0 0.00016336
8030.0 0.00016559
8050.0 0.00016765
8070.0 0.00016666
8090.0 0.00016647
8110.0 0.00016141
8130.0 0.000162
8150.0 0.00016075
8170.0 0.00015744
8190.0 0.00015487
8210.0 0.000155
8230.0 0.00015191
8250.0 0.00014951
8270.0 0.00013613
8290.0 0.00011178
8310.0 8.4477e-05
8330.0 6.5631e-05
8350.0 6.1695e-05
8370.0 7.394e-05
8390.0 9.0093e-05
8410.0 9.7809e-05
8430.0 0.00010083
8450.0 0.00010651
8470.0 0.00011463
8490.0 0.00012898
8510.0 0.00014784
8530.0 0.00017049
8550.0 0.00019191
8570.0 0.00020984
8590.0 0.00022389
8610.0 0.00023234
8630.0 0.00023366
8650.0 0.00023227
8670.0 0.00023316
8690.0 0.00024577
8710.0 0.00026241
8730.0 0.00027393
8750.0 0.00027387
8770.0 0.00027862
8790.0 0.0002785
8810.0 0.00026246
8830.0 0.00024811
8850.0 0.0002286
8870.0 0.00021288
8890.0 0.00020816
8910.0 0.00020915
8930.0 0.00019825
8950.0 0.00018565
8970.0 0.00018073
8990.0 0.00017976
9010.0 0.00017317
9030.0 0.00016928
9050.0 0.00016785
9070.0 0.00016719
9090.0 0.00016662
9110.0 0.00016607
9130.0 0.00016552
9150.0 0.00016498
9170.0 0.00016437
9190.0 0.00016392
9210.0 0.00016412
9230.0 0.00016329
9250.0 0.0001626
9270.0 0.00016199
9290.0 0.00016144
9310.0 0.0001609
9330.0 0.00016039
9350.0 0.00015991
9370.0 0.00015943
9390.0 0.00015895
9410.0 0.00015848
9430.0 0.000158
9450.0 0.00015732
9470.0 0.00015671
9490.0 0.00015646
9510.0 0.0001561
9530.0 0.00015572
9550.0 0.00015532
9570.0 0.00015491
9590.0 0.00015449
9610.0 0.00015407
9630.0 0.00015365
9650.0 0.00015323
9670.0 0.00015281
9690.0 0.00015239
9710.0 0.00015198
9730.0 0.00015157
9750.0 0.00015116
9770.0 0.00015075
9790.0 0.00015034
9810.0 0.00014992
9830.0 0.00014951
9850.0 0.00014911
9870.0 0.00014869
9890.0 0.00014828
9910.0 0.00014786
9930.0 0.00014743
9950.0 0.00014586
9970.0 0.00014578
9990.0 0.00014562
10010.0 0.00014543
10030.0 0.00014514
10050.0 0.00014477
10070.0 0.00014438
10090.0 0.00014399
10110.0 0.00014352
10130.0 0.00014307
10150.0 0.00014263
10170.0 0.00014215
10190.0 0.00014162
10210.0 0.00014114
10230.0 0.00014067
10250.0 0.00014015
10270.0 0.00013962
10290.0 0.00013913
10310.0 0.00013859
10330.0 0.00013801
10350.0 0.00013747
10370.0 0.00013692
10390.0 0.00013632
10410.0 0.00013571
10430.0 0.00013515
10450.0 0.00013453
10470.0 0.00013388
10490.0 0.00013325
10510.0 0.00013262
10530.0 0.0001319
10550.0 0.00013121
10570.0 0.00013054
10590.0 0.00012982
10610.0 0.00012907
10630.0 0.00012835
10650.0 0.00012761
10670.0 0.0001268
10690.0 0.000126
10710.0 0.00012522
10730.0 0.00012438
10750.0 0.00012348
10770.0 0.00012265
10790.0 0.00012179
10810.0 0.00012087
10830.0 0.00011995
10850.0 0.00011907
10870.0 0.00011807
10890.0 0.00011706
10910.0 0.00011608
10930.0 0.00011505
10950.0 0.00011393
10970.0 0.00011279
10990.0 0.00011167
11010.0 0.00011783
11030.0 0.00011647
11050.0 0.00011515
11070.0 0.00011381
11090.0 0.00011237
11110.0 0.00011105
11130.0 0.00010978
11150.0 0.00010848
11170.0 0.00010721
11190.0 0.00010603
11210.0 0.00010483
11230.0 0.00010361
11250.0 0.00010244
11270.0 0.00010131
11290.0 0.00010012
11310.0 9.894e-05
11330.0 9.7836e-05
11350.0 9.6695e-05
11370.0 9.5514e-05
11390.0 9.4357e-05
11410.0 9.3195e-05
11430.0 9.1918e-05
11450.0 9.0618e-05
11470.0 8.9305e-05
11490.0 8.7897e-05
11510.0 8.6367e-05
11530.0 8.4835e-05
11550.0 8.3249e-05
11570.0 8.1531e-05
11590.0 7.9773e-05
11610.0 7.8029e-05
11630.0 7.6184e-05
11650.0 7.4271e-05
11670.0 7.244e-05
11690.0 7.0619e-05
11710.0 6.8756e-05
11730.0 6.6947e-05
11750.0 6.525e-05
11770.0 6.3537e-05
11790.0 6.1857e-05
11810.0 6.0289e-05
11830.0 5.878e-05
11850.0 5.7254e-05
11870.0 5.583e-05
11890.0 5.4503e-05
11910.0 5.3187e-05
11930.0 5.1907e-05
11950.0 5.072e-05
11970.0 4.9566e-05
11990.0 4.8413e-05
12010.0 4.7335e-05
12030.0 4.6324e-05
12050.0 4.5333e-05
12070.0 4.438e-05
12090.0 4.3536e-05
12110.0 4.274e-05
12130.0 4.1993e-05
12150.0 4.1334e-05
12170.0 4.0766e-05
12190.0 4.0253e-05
12210.0 3.9835e-05
12230.0 3.9516e-05
12250.0 3.9282e-05
12270.0 3.9139e-05
12290.0 3.9087e-05
12310.0 3.9115e-05
12330.0 3.9234e-05
12350.0 3.9436e-05
12370.0 3.97e-05
12390.0 4.0036e-05
12410.0 4.0468e-05
12430.0 4.0927e-05
12450.0 4.1425e-05
12470.0 4.1987e-05
12490.0 4.258e-05
12510.0 4.3158e-05
12530.0 4.3765e-05
12550.0 4.4385e-05
12570.0 4.4958e-05
12590.0 4.5487e-05
12610.0 4.5992e-05
12630.0 4.6424e-05
12650.0 4.6744e-05
12670.0 4.6988e-05
12690.0 4.7134e-05
12710.0 4.7161e-05
12730.0 4.708e-05
12750.0 4.6889e-05
12770.0 4.6586e-05
12790.0 4.6189e-05
12810.0 4.57e-05
12830.0 4.5121e-05
12850.0 4.4499e-05
12870.0 4.3835e-05
12890.0 4.3121e-05
12910.0 4.2396e-05
12930.0 4.1684e-05
12950.0 4.0958e-05
12970.0 4.0235e-05
12990.0 3.956e-05
13010.0 3.8907e-05
13030.0 3.8264e-05
13050.0 3.7654e-05
13070.0 3.7083e-05
13090.0 3.6515e-05
13110.0 3.596e-05
13130.0 3.5433e-05
13150.0 3.4917e-05
13170.0 3.4389e-05
13190.0 3.3883e-05
13210.0 3.3396e-05
13230.0 3.2905e-05
13250.0 3.2425e-05
13270.0 3.1974e-05
13290.0 3.1539e-05
13310.0 3.1119e-05
13330.0 3.0741e-05
13350.0 3.0405e-05
13370.0 3.0104e-05
13390.0 2.9846e-05
13410.0 2.9642e-05
13430.0 2.9476e-05
13450.0 2.9346e-05
13470.0 2.9247e-05
13490.0 2.9167e-05
13510.0 2.9097e-05
13530.0 2.9024e-05
13550.0 2.8938e-05
13570.0 2.8828e-05
13590.0 2.8683e-05
13610.0 2.8503e-05
13630.0 2.8288e-05
13650.0 2.8026e-05
13670.0 2.7727e-05
13690.0 2.7405e-05
13710.0 2.7054e-05
13730.0 2.6671e-05
13750.0 2.6299e-05
13770.0 2.5931e-05
13790.0 2.5563e-05
13810.0 2.5214e-05
13830.0 2.4899e-05
13850.0 2.4601e-05
13870.0 2.4328e-05
13890.0 2.4092e-05
13910.0 2.3884e-05
13930.0 2.3696e-05
13950.0 2.3532e-05
13970.0 2.3393e-05
13990.0 2.3264e-05
14010.0 2.3143e-05
14030.0 2.303e-05
14050.0 2.2919e-05
14070.0 2.28e-05
14090.0 2.2676e-05
14110.0 2.2546e-05
14130.0 2.2401e-05
14150.0 2.2238e-05
14170.0 2.2069e-05
14190.0 2.1887e-05
14210.0 2.1687e-05
14230.0 2.1482e-05
14250.0 2.1276e-05
14270.0 2.1062e-05
14290.0 2.0847e-05
14310.0 2.0649e-05
14330.0 2.0462e-05
14350.0 2.0286e-05
14370.0 2.0133e-05
14390.0 2.0006e-05
14410.0 1.9896e-05
14430.0 1.9809e-05
14450.0 1.9747e-05
14470.0 1.9704e-05
14490.0 1.9679e-05
14510.0 1.9671e-05
14530.0 1.9678e-05
14550.0 1.9697e-05
14570.0 1.9728e-05
14590.0 1.977e-05
14610.0 1.9825e-05
14630.0 1.9898e-05
14650.0 1.9985e-05
14670.0 2.0089e-05
14690.0 2.0218e-05
14710.0 2.0373e-05
14730.0 2.0543e-05
14750.0 2.0741e-05
14770.0 2.0972e-05
14790.0 2.1224e-05
14810.0 2.1498e-05
14830.0 2.1821e-05
14850.0 2.2171e-05
14870.0 2.2541e-05
14890.0 2.2945e-05
14910.0 2.3383e-05
14930.0 2.3818e-05
14950.0 2.4239e-05
14970.0 2.4653e-05
14990.0 2.5021e-05
15010.0 2.5324e-05
15030.0 2.5571e-05
15050.0 2.5764e-05
15070.0 2.5896e-05
15090.0 2.599e-05
15110.0 2.606e-05
15130.0 2.6112e-05
15150.0 2.6156e-05
15170.0 2.6196e-05
15190.0 2.6234e-05
15210.0 2.6272e-05
15230.0 2.6311e-05
15250.0 2.6351e-05
15270.0 2.6391e-05
15290.0 2.6433e-05
15310.0 2.6475e-05
15330.0 2.6517e-05
15350.0 2.6561e-05
15370.0 2.6606e-05
15390.0 2.6651e-05
15410.0 2.6697e-05
15430.0 2.6744e-05
15450.0 2.6791e-05
15470.0 2.6839e-05
15490.0 2.6888e-05
15510.0 2.6938e-05
15530.0 2.6987e-05
15550.0 2.7038e-05
15570.0 2.709e-05
15590.0 2.7141e-05
15610.0 2.7193e-05
15630.0 2.7246e-05
15650.0 2.73e-05
15670.0 2.7353e-05
15690.0 2.7408e-05
15710.0 2.7463e-05
15730.0 2.7518e-05
15750.0 2.7573e-05
15770.0 2.7629e-05
15790.0 2.7685e-05
15810.0 2.7742e-05
15830.0 2.7799e-05
15850.0 2.7856e-05
15870.0 2.7913e-05
15890.0 2.7971e-05
15910.0 2.8029e-05
15930.0 2.8087e-05
15950.0 2.8144e-05
15970.0 2.8203e-05
15990.0 2.8261e-05
16010.0 2.8319e-05
16030.0 2.8377e-05
16050.0 2.8436e-05
16070.0 2.8495e-05
16090.0 2.8553e-05
16110.0 2.8611e-05
16130.0 2.867e-05
16150.0 2.8727e-05
16170.0 2.8785e-05
16190.0 2.8843e-05
16210.0 2.8901e-05
16230.0 2.8958e-05
16250.0 2.9015e-05
16270.0 2.9072e-05
16290.0 2.9128e-05
16310.0 2.9184e-05
16330.0 2.924e-05
16350.0 2.9296e-05
16370.0 2.935e-05
16390.0 2.9405e-05
16410.0 2.9459e-05
16430.0 2.9512e-05
16450.0 2.9565e-05
16470.0 2.9618e-05
16490.0 2.9669e-05
16510.0 2.972e-05
16530.0 2.9771e-05
16550.0 2.9821e-05
16570.0 2.9869e-05
16590.0 2.9918e-05
16610.0 2.9965e-05
16630.0 3.0012e-05
16650.0 3.0058e-05
16670.0 3.0103e-05
16690.0 3.0147e-05
16710.0 3.019e-05
16730.0 3.0232e-05
16750.0 3.0273e-05
16770.0 3.0313e-05
16790.0 3.0352e-05
16810.0 3.039e-05
16830.0 3.0428e-05
16850.0 3.0463e-05
16870.0 3.0498e-05
16890.0 3.0532e-05
16910.0 3.0564e-05
16930.0 3.0595e-05
16950.0 3.0625e-05
16970.0 3.0653e-05
16990.0 3.0681e-05
17010.0 3.0707e-05
17030.0 3.0731e-05
17050.0 3.0755e-05
17070.0 3.0776e-05
17090.0 3.0797e-05
17110.0 3.0816e-05
17130.0 3.0833e-05
17150.0 3.085e-05
17170.0 3.0864e-05
17190.0 3.0877e-05
17210.0 3.0889e-05
17230.0 3.0899e-05
17250.0 3.0908e-05
17270.0 3.0914e-05
17290.0 3.092e-05
17310.0 3.0924e-05
17330.0 3.0925e-05
17350.0 3.0926e-05
17370.0 3.0925e-05
17390.0 3.0922e-05
17410.0 3.0917e-05
17430.0 3.0911e-05
17450.0 3.0904e-05
17470.0 3.0894e-05
17490.0 3.0882e-05
17510.0 3.0869e-05
17530.0 3.0855e-05
17550.0 3.0838e-05
17570.0 3.082e-05
17590.0 3.08e-05
17610.0 3.0778e-05
17630.0 3.0755e-05
17650.0 3.073e-05
17670.0 3.0703e-05
17690.0 3.0674e-05
17710.0 3.0643e-05
17730.0 3.0611e-05
17750.0 3.0577e-05
17770.0 3.0542e-05
17790.0 3.0505e-05
17810.0 3.0465e-05
17830.0 3.0424e-05
17850.0 3.0382e-05
17870.0 3.0338e-05
17890.0 3.0291e-05
17910.0 3.0244e-05
17930.0 3.0194e-05
17950.0 3.0143e-05
17970.0 3.0091e-05
17990.0 3.0036e-05
18010.0 2.998e-05
18030.0 2.9922e-05
18050.0 2.9863e-05
18070.0 2.9803e-05
18090.0 2.974e-05
18110.0 2.9676e-05
18130.0 2.961e-05
18150.0 2.9543e-05
18170.0 2.9475e-05
18190.0 2.9404e-05
18210.0 2.9333e-05
18230.0 2.926e-05
18250.0 2.9185e-05
18270.0 2.9109e-05
18290.0 2.9032e-05
18310.0 2.8953e-05
18330.0 2.8873e-05
18350.0 2.8792e-05
18370.0 2.8709e-05
18390.0 2.8625e-05
18410.0 2.8539e-05
18430.0 2.8453e-05
18450.0 2.8365e-05
18470.0 2.8276e-05
18490.0 2.8186e-05
18510.0 2.8094e-05
18530.0 2.8002e-05
18550.0 2.7908e-05
18570.0 2.7814e-05
18590.0 2.7718e-05
18610.0 2.7621e-05
18630.0 2.7524e-05
18650.0 2.7425e-05
18670.0 2.7325e-05
18690.0 2.7225e-05
18710.0 2.7123e-05
18730.0 2.7021e-05
18750.0 2.6918e-05
18770.0 2.6814e-05
18790.0 2.6709e-05
18810.0 2.6604e-05
18830.0 2.6498e-05
18850.0 2.6391e-05
18870.0 2.6283e-05
18890.0 2.6175e-05
18910.0 2.6066e-05
18930.0 2.5957e-05
18950.0 2.5847e-05
18970.0 2.5737e-05
18990.0 2.5626e-05
19010.0 2.5514e-05
19030.0 2.5402e-05
19050.0 2.529e-05
19070.0 2.5177e-05
19090.0 2.5064e-05
19110.0 2.4951e-05
19130.0 2.4837e-05
19150.0 2.4723e-05
19170.0 2.4608e-05
19190.0 2.4494e-05
19210.0 2.4379e-05
19230.0 2.4264e-05
19250.0 2.4149e-05
19270.0 2.4033e-05
19290.0 2.3918e-05
19310.0 2.3802e-05
19330.0 2.3687e-05
19350.0 2.3571e-05
19370.0 2.3455e-05
19390.0 2.334e-05
19410.0 2.3224e-05
19430.0 2.3108e-05
19450.0 2.2992e-05
19470.0 2.2877e-05
19490.0 2.2761e-05
19510.0 2.2646e-05
19530.0 2.2531e-05
19550.0 2.2416e-05
19570.0 2.23e-05
19590.0 2.2186e-05
19610.0 2.2071e-05
19630.0 2.1957e-05
19650.0 2.1843e-05
19670.0 2.1729e-05
19690.0 2.1616e-05
19710.0 2.1502e-05
19730.0 2.1389e-05
19750.0 2.1277e-05
19770.0 2.1164e-05
19790.0 2.1052e-05
19810.0 2.0941e-05
19830.0 2.0829e-05
19850.0 2.0716e-05
19870.0 2.0603e-05
19890.0 2.0485e-05
19910.0 2.036e-05
19930.0 2.0223e-05
19950.0 2.0069e-05
19970.0 1.9886e-05
19990.0 1.9671e-05
20010.0 1.9427e-05
20030.0 1.9142e-05
20050.0 1.882e-05
20070.0 1.8477e-05
20090.0 1.8117e-05
20110.0 1.7728e-05
20130.0 1.7343e-05
20150.0 1.6969e-05
20170.0 1.6594e-05
20190.0 1.6222e-05
20210.0 1.5874e-05
20230.0 1.5537e-05
20250.0 1.5203e-05
20270.0 1.4888e-05
20290.0 1.4593e-05
20310.0 1.4305e-05
20330.0 1.4025e-05
20350.0 1.3771e-05
20370.0 1.3528e-05
20390.0 1.3293e-05
20410.0 1.3073e-05
20430.0 1.287e-05
20450.0 1.267e-05
20470.0 1.2483e-05
20490.0 1.2312e-05
20510.0 1.2151e-05
20530.0 1.1998e-05
20550.0 1.1859e-05
20570.0 1.1732e-05
20590.0 1.1614e-05
20610.0 1.1506e-05
20630.0 1.1409e-05
20650.0 1.1321e-05
20670.0 1.1241e-05
20690.0 1.117e-05
20710.0 1.1106e-05
20730.0 1.1049e-05
20750.0 1.0999e-05
20770.0 1.0952e-05
20790.0 1.091e-05
20810.0 1.0871e-05
20830.0 1.0835e-05
20850.0 1.0799e-05
20870.0 1.0764e-05
20890.0 1.0728e-05
20910.0 1.069e-05
20930.0 1.0651e-05
20950.0 1.0608e-05
20970.0 1.0562e-05
20990.0 1.0512e-05
21010.0 1.0457e-05
21030.0 1.0398e-05
21050.0 1.0334e-05
21070.0 1.0264e-05
21090.0 1.0189e-05
21110.0 1.011e-05
21130.0 1.0027e-05
21150.0 9.9384e-06
21170.0 9.846e-06
21190.0 9.7521e-06
21210.0 9.653e-06
21230.0 9.5499e-06
21250.0 9.447e-06
21270.0 9.3428e-06
21290.0 9.235e-06
21310.0 9.1271e-06
21330.0 9.0222e-06
21350.0 8.9154e-06
21370.0 8.8086e-06
21390.0 8.7057e-06
21410.0 8.6053e-06
21430.0 8.5041e-06
21450.0 8.4088e-06
21470.0 8.3193e-06
21490.0 8.2329e-06
21510.0 8.1513e-06
21530.0 8.0772e-06
21550.0 8.0089e-06
21570.0 7.9458e-06
21590.0 7.8904e-06
21610.0 7.8421e-06
21630.0 7.8002e-06
21650.0 7.7654e-06
21670.0 7.7373e-06
21690.0 7.7152e-06
21710.0 7.6995e-06
21730.0 7.6888e-06
21750.0 7.6819e-06
21770.0 7.6806e-06
21790.0 7.6827e-06
21810.0 7.6861e-06
21830.0 7.6917e-06
21850.0 7.6995e-06
21870.0 7.7065e-06
21890.0 7.712e-06
21910.0 7.7178e-06
21930.0 7.7219e-06
21950.0 7.7227e-06
21970.0 7.7216e-06
21990.0 7.7188e-06
22010.0 7.7116e-06
22030.0 7.7012e-06
22050.0 7.6884e-06
22070.0 7.6724e-06
22090.0 7.6531e-06
22110.0 7.6315e-06
22130.0 7.6075e-06
22150.0 7.5811e-06
22170.0 7.5528e-06
22190.0 7.5226e-06
22210.0 7.4905e-06
22230.0 7.4572e-06
22250.0 7.4222e-06
22270.0 7.3854e-06
22290.0 7.3472e-06
22310.0 7.3074e-06
22330.0 7.2647e-06
22350.0 7.2198e-06
22370.0 7.1729e-06
22390.0 7.1224e-06
22410.0 7.0673e-06
22430.0 7.0099e-06
22450.0 6.9488e-06
22470.0 6.8819e-06
22490.0 6.811e-06
22510.0 6.7374e-06
22530.0 6.6572e-06
22550.0 6.5713e-06
22570.0 6.4843e-06
22590.0 6.3939e-06
22610.0 6.2981e-06
