#lamb flux
1010.0 2.5424e-07
1030.0 2.6495e-07
1050.0 2.7736e-07
1070.0 2.9136e-07
1090.0 3.0727e-07
1110.0 3.2367e-07
1130.0 3.4024e-07
1150.0 3.5768e-07
1170.0 3.7576e-07
1190.0 3.9303e-07
1210.0 4.1064e-07
1230.0 4.2895e-07
1250.0 4.4703e-07
1270.0 4.6476e-07
1290.0 4.8359e-07
1310.0 5.0257e-07
1330.0 5.2099e-07
1350.0 5.3977e-07
1370.0 5.5931e-07
1390.0 5.7859e-07
1410.0 5.9754e-07
1430.0 6.1748e-07
1450.0 6.3762e-07
1470.0 6.5735e-07
1490.0 6.7748e-07
1510.0 6.988e-07
1530.0 7.1932e-07
1550.0 7.3975e-07
1570.0 7.6095e-07
1590.0 7.8229e-07
1610.0 8.029e-07
1630.0 8.2414e-07
1650.0 8.459e-07
1670.0 8.6704e-07
1690.0 8.8791e-07
1710.0 9.0941e-07
1730.0 9.3089e-07
1750.0 9.5105e-07
1770.0 9.7154e-07
1790.0 9.9216e-07
1810.0 1.0119e-06
1830.0 1.0309e-06
1850.0 1.0507e-06
1870.0 1.0696e-06
1890.0 1.0874e-06
1910.0 1.1051e-06
1930.0 1.1228e-06
1950.0 1.1391e-06
1970.0 1.1548e-06
1990.0 1.1707e-06
2010.0 1.1859e-06
2030.0 1.2e-06
2050.0 1.2143e-06
2070.0 1.2288e-06
2090.0 1.242e-06
2110.0 1.2551e-06
2130.0 1.2686e-06
2150.0 1.2819e-06
2170.0 1.2946e-06
2190.0 1.3083e-06
2210.0 1.3224e-06
2230.0 1.3365e-06
2250.0 1.3512e-06
2270.0 1.3674e-06
2290.0 1.3841e-06
2310.0 1.4012e-06
2330.0 1.42e-06
2350.0 1.4404e-06
2370.0 1.4617e-06
2390.0 1.4848e-06
2410.0 1.5105e-06
2430.0 1.5377e-06
2450.0 1.5663e-06
2470.0 1.5971e-06
2490.0 1.6296e-06
2510.0 1.6628e-06
2530.0 1.6994e-06
2550.0 1.7439e-06
2570.0 1.8032e-06
2590.0 1.8866e-06
2610.0 2.0154e-06
2630.0 2.2024e-06
2650.0 2.4473e-06
2670.0 2.7594e-06
2690.0 3.1384e-06
2710.0 3.5482e-06
2730.0 3.9682e-06
2750.0 4.4058e-06
2770.0 4.8319e-06
2790.0 5.2347e-06
2810.0 5.6328e-06
2830.0 6.043e-06
2850.0 6.4444e-06
2870.0 6.8567e-06
2890.0 7.2959e-06
2910.0 7.7546e-06
2930.0 8.2209e-06
2950.0 8.7176e-06
2970.0 9.2415e-06
2990.0 9.7737e-06
3010.0 1.7565e-05
3030.0 1.8539e-05
3050.0 1.952e-05
3070.0 2.0437e-05
3090.0 2.1268e-05
3110.0 2.186e-05
3130.0 2.2019e-05
3150.0 2.1536e-05
3170.0 1.9989e-05
3190.0 1.7294e-05
3210.0 1.3466e-05
3230.0 9.0852e-06
3250.0 1.3194e-05
3270.0 6.6671e-06
3290.0 1.6734e-05
3310.0 4.6599e-06
3330.0 4.9069e-06
3350.0 6.7421e-06
3370.0 8.797e-06
3390.0 1.0959e-05
3410.0 1.311e-05
3430.0 1.5348e-05
3450.0 1.7575e-05
3470.0 1.9626e-05
3490.0 2.0987e-05
3510.0 2.5402e-05
3530.0 3.3864e-05
3550.0 3.4925e-05
3570.0 3.1739e-05
3590.0 4.3983e-05
3610.0 3.1669e-05
3630.0 4.5769e-05
3650.0 5.0214e-05
3670.0 6.2538e-05
3690.0 6.1502e-05
3710.0 4.8406e-05
3730.0 6.2414e-05
3750.0 6.5002e-05
3770.0 6.6445e-05
3790.0 6.0474e-05
3810.0 5.2373e-05
3830.0 6.5138e-05
3850.0 6.629e-05
3870.0 8.0782e-05
3890.0 7.8145e-05
3910.0 7.4794e-05
3930.0 8.3031e-05
3950.0 9.328e-05
3970.0 0.0001209
3990.0 0.00010473
4010.0 7.756e-05
4030.0 9.4856e-05
4050.0 9.7728e-05
4070.0 0.00010803
4090.0 9.8924e-05
4110.0 7.3439e-05
4130.0 9.0519e-05
4150.0 8.3213e-05
4170.0 8.8188e-05
4190.0 8.8231e-05
4210.0 0.00010496
4230.0 7.837e-05
4250.0 9.2245e-05
4270.0 9.2179e-05
4290.0 9.3608e-05
4310.0 0.00011026
4330.0 0.0001134
4350.0 9.2971e-05
4370.0 8.3576e-05
4390.0 9.5086e-05
4410.0 9.3714e-05
4430.0 7.4031e-05
4450.0 7.3764e-05
4470.0 8.2922e-05
4490.0 6.5805e-05
4510.0 7.7621e-05
4530.0 8.449e-05
4550.0 0.00011118
4570.0 0.00015937
4590.0 0.0001621
4610.0 0.00012247
4630.0 0.00017672
4650.0 0.00023894
4670.0 0.00022444
4690.0 0.00014713
4710.0 0.00015232
4730.0 0.00018196
4750.0 0.00016115
4770.0 0.00012467
4790.0 9.1818e-05
4810.0 0.00012468
4830.0 0.00014234
4850.0 0.00013407
4870.0 6.7317e-05
4890.0 0.00014401
4910.0 0.00018837
4930.0 0.00020226
4950.0 0.00020608
4970.0 0.00014925
4990.0 0.0001665
5010.0 0.00018105
5030.0 0.00018472
5050.0 0.00017592
5070.0 0.0001299
5090.0 0.00010886
5110.0 0.0001026
5130.0 9.3088e-05
5150.0 0.00010522
5170.0 9.3832e-05
5190.0 0.00011229
5210.0 0.00011256
5230.0 0.00012281
5250.0 0.00015447
5270.0 0.00013954
5290.0 0.00014038
5310.0 0.00019245
5330.0 0.00022031
5350.0 0.0001955
5370.0 0.00017713
5390.0 0.00019321
5410.0 0.00023027
5430.0 0.0002507
5450.0 0.00027221
5470.0 0.00028418
5490.0 0.00028885
5510.0 0.0003338
5530.0 0.00034628
5550.0 0.00036511
5570.0 0.00038106
5590.0 0.00037775
5610.0 0.00036294
5630.0 0.00035399
5650.0 0.00036016
5670.0 0.00035784
5690.0 0.00031337
5710.0 0.00029722
5730.0 0.00029337
5750.0 0.0003121
5770.0 0.00027689
5790.0 0.00025974
5810.0 0.00026637
5830.0 0.00027907
5850.0 0.00025949
5870.0 0.00025852
5890.0 0.00029582
5910.0 0.00028491
5930.0 0.00024429
5950.0 0.00021865
5970.0 0.00022792
5990.0 0.0002093
6010.0 0.0001947
6030.0 0.00019545
6050.0 0.00018485
6070.0 0.00014771
6090.0 0.00013583
6110.0 0.00016525
6130.0 0.00018555
6150.0 0.00019584
6170.0 0.00019624
6190.0 0.00019163
6210.0 0.00019015
6230.0 0.00021167
6250.0 0.00019552
6270.0 0.00017767
6290.0 0.00016091
6310.0 0.00015024
6330.0 0.0001424
6350.0 0.00012728
6370.0 0.00012781
6390.0 0.00014989
6410.0 0.00018395
6430.0 0.00021233
6450.0 0.00020783
6470.0 0.00020919
6490.0 0.00025126
6510.0 0.00028022
6530.0 0.00026815
6550.0 0.00026107
6570.0 0.00026479
6590.0 0.00025721
6610.0 0.00027524
6630.0 0.00026189
6650.0 0.00023765
6670.0 0.00021624
6690.0 0.00020597
6710.0 0.0002387
6730.0 0.00022151
6750.0 0.000198
6770.0 0.00018443
6790.0 0.00019244
6810.0 0.00020772
6830.0 0.00020265
6850.0 0.00018718
6870.0 0.00019018
6890.0 0.00018518
6910.0 0.00017529
6930.0 0.00019632
6950.0 0.00018575
6970.0 0.0001788
6990.0 0.00018053
7010.0 0.00017361
7030.0 0.00016298
7050.0 0.00015428
7070.0 0.00015923
7090.0 0.00014896
7110.0 0.00013154
7130.0 0.00011028
7150.0 0.00010112
7170.0 0.00012673
7190.0 0.00013659
7210.0 0.00013487
7230.0 0.0001423
7250.0 0.00013677
7270.0 0.0001326
7290.0 0.00014258
7310.0 0.00015326
7330.0 0.00014898
7350.0 0.00014087
7370.0 0.00013674
7390.0 0.00014405
7410.0 0.00016609
7430.0 0.0001819
7450.0 0.0001963
7470.0 0.00019718
7490.0 0.00020134
7510.0 0.00019238
7530.0 0.00019015
7550.0 0.00018301
7570.0 0.00016017
7590.0 0.00015676
7610.0 0.00015317
7630.0 0.00014689
7650.0 0.00016252
7670.0 0.00017782
7690.0 0.00019309
7710.0 0.00021279
7730.0 0.0002264
7750.0 0.00023642
7770.0 0.00023625
7790.0 0.0002543
7810.0 0.00026212
7830.0 0.00024697
7850.0 0.00024817
7870.0 0.00023647
7890.0 0.00024279
7910.0 0.00022972
7930.0 0.00022963
7950.0 0.00020827
7970.0 0.00021286
7990.0 0.00020527
8010.0 0.0002025
8030.0 0.00020174
8050.0 0.00021007
8070.0 0.00020349
8090.0 0.00020365
8110.0 0.00019753
8130.0 0.00019694
8150.0 0.00018915
8170.0 0.00018361
8190.0 0.00018101
8210.0 0.00018212
8230.0 0.00016404
8250.0 0.00015066
8270.0 0.00013167
8290.0 0.00010836
8310.0 9.0351e-05
8330.0 7.1483e-05
8350.0 6.0762e-05
8370.0 6.3878e-05
8390.0 6.7316e-05
8410.0 7.2294e-05
8430.0 8.6063e-05
8450.0 9.1574e-05
8470.0 9.6249e-05
8490.0 0.00010905
8510.0 0.00011916
8530.0 0.00013749
8550.0 0.00016228
8570.0 0.00018191
8590.0 0.00019649
8610.0 0.00021349
8630.0 0.0002317
8650.0 0.00023479
8670.0 0.00023639
8690.0 0.0002447
8710.0 0.00024326
8730.0 0.00024244
8750.0 0.00023148
8770.0 0.00023136
8790.0 0.00022778
8810.0 0.00021057
8830.0 0.00020881
8850.0 0.00019657
8870.0 0.00018871
8890.0 0.00017457
8910.0 0.00018429
8930.0 0.0001699
8950.0 0.00016596
8970.0 0.0001653
8990.0 0.00015996
9010.0 0.00016125
9030.0 0.00015546
9050.0 0.00015459
9070.0 0.00015433
9090.0 0.00015404
9110.0 0.0001538
9130.0 0.00015347
9150.0 0.0001531
9170.0 0.00015241
9190.0 0.00015121
9210.0 0.00015265
9230.0 0.00015184
9250.0 0.00015123
9270.0 0.00015065
9290.0 0.00015009
9310.0 0.00014954
9330.0 0.000149
9350.0 0.00014844
9370.0 0.00014788
9390.0 0.0001473
9410.0 0.00014671
9430.0 0.00014611
9450.0 0.00014548
9470.0 0.00014485
9490.0 0.00014423
9510.0 0.0001436
9530.0 0.00014296
9550.0 0.0001423
9570.0 0.00014164
9590.0 0.00014097
9610.0 0.0001403
9630.0 0.00013962
9650.0 0.00013894
9670.0 0.00013825
9690.0 0.00013756
9710.0 0.00013687
9730.0 0.00013618
9750.0 0.00013549
9770.0 0.00013479
9790.0 0.0001341
9810.0 0.00013341
9830.0 0.00013272
9850.0 0.00013203
9870.0 0.00013134
9890.0 0.00013066
9910.0 0.00012998
9930.0 0.0001293
9950.0 0.00012815
9970.0 0.00012762
9990.0 0.00012707
10010.0 0.00012652
10030.0 0.00012592
10050.0 0.00012528
10070.0 0.00012455
10090.0 0.00012398
10110.0 0.00012338
10130.0 0.00012279
10150.0 0.0001222
10170.0 0.0001216
10190.0 0.00012098
10210.0 0.0001204
10230.0 0.00011983
10250.0 0.00011924
10270.0 0.00011867
10290.0 0.00011812
10310.0 0.00011756
10330.0 0.000117
10350.0 0.00011647
10370.0 0.00011595
10390.0 0.00011541
10410.0 0.00011489
10430.0 0.0001144
10450.0 0.00011391
10470.0 0.0001134
10490.0 0.00011293
10510.0 0.00011247
10530.0 0.00011198
10550.0 0.00011152
10570.0 0.00011108
10590.0 0.00011064
10610.0 0.00011019
10630.0 0.00010978
10650.0 0.00010937
10670.0 0.00010894
10690.0 0.00010853
10710.0 0.00010815
10730.0 0.00010775
10750.0 0.00010735
10770.0 0.00010699
10790.0 0.00010663
10810.0 0.00010625
10830.0 0.00010589
10850.0 0.00010555
10870.0 0.00010517
10890.0 0.00010477
10910.0 0.00010435
10930.0 0.00010385
10950.0 0.00010321
10970.0 0.00010242
10990.0 0.00010148
11010.0 9.8062e-05
11030.0 9.6738e-05
11050.0 9.5244e-05
11070.0 9.3554e-05
11090.0 9.1614e-05
11110.0 8.9693e-05
11130.0 8.7766e-05
11150.0 8.5768e-05
11170.0 8.3787e-05
11190.0 8.1941e-05
11210.0 8.0096e-05
11230.0 7.8261e-05
11250.0 7.656e-05
11270.0 7.4964e-05
11290.0 7.3382e-05
11310.0 7.1893e-05
11330.0 7.0589e-05
11350.0 6.9338e-05
11370.0 6.8149e-05
11390.0 6.7086e-05
11410.0 6.6113e-05
11430.0 6.5135e-05
11450.0 6.4226e-05
11470.0 6.3379e-05
11490.0 6.252e-05
11510.0 6.162e-05
11530.0 6.0748e-05
11550.0 5.9853e-05
11570.0 5.8867e-05
11590.0 5.784e-05
11610.0 5.68e-05
11630.0 5.5655e-05
11650.0 5.4417e-05
11670.0 5.3199e-05
11690.0 5.1948e-05
11710.0 5.062e-05
11730.0 4.9301e-05
11750.0 4.8049e-05
11770.0 4.6761e-05
11790.0 4.5489e-05
11810.0 4.4313e-05
11830.0 4.3194e-05
11850.0 4.207e-05
11870.0 4.1056e-05
11890.0 4.0148e-05
11910.0 3.9271e-05
11930.0 3.8445e-05
11950.0 3.7718e-05
11970.0 3.7031e-05
11990.0 3.6355e-05
12010.0 3.5743e-05
12030.0 3.5182e-05
12050.0 3.4628e-05
12070.0 3.4086e-05
12090.0 3.3615e-05
12110.0 3.3158e-05
12130.0 3.2712e-05
12150.0 3.2313e-05
12170.0 3.1967e-05
12190.0 3.1634e-05
12210.0 3.1364e-05
12230.0 3.1173e-05
12250.0 3.105e-05
12270.0 3.1006e-05
12290.0 3.1063e-05
12310.0 3.122e-05
12330.0 3.1481e-05
12350.0 3.1853e-05
12370.0 3.2322e-05
12390.0 3.2891e-05
12410.0 3.3577e-05
12430.0 3.4315e-05
12450.0 3.5105e-05
12470.0 3.5958e-05
12490.0 3.6836e-05
12510.0 3.7691e-05
12530.0 3.8555e-05
12550.0 3.9408e-05
12570.0 4.0202e-05
12590.0 4.0941e-05
12610.0 4.1643e-05
12630.0 4.2275e-05
12650.0 4.2821e-05
12670.0 4.3309e-05
12690.0 4.3731e-05
12710.0 4.408e-05
12730.0 4.4366e-05
12750.0 4.4589e-05
12770.0 4.4749e-05
12790.0 4.4854e-05
12810.0 4.4902e-05
12830.0 4.4889e-05
12850.0 4.4836e-05
12870.0 4.4739e-05
12890.0 4.4581e-05
12910.0 4.4383e-05
12930.0 4.4156e-05
12950.0 4.387e-05
12970.0 4.3529e-05
12990.0 4.3174e-05
13010.0 4.278e-05
13030.0 4.2328e-05
13050.0 4.1849e-05
13070.0 4.1365e-05
13090.0 4.0825e-05
13110.0 4.0256e-05
13130.0 3.9698e-05
13150.0 3.9135e-05
13170.0 3.8541e-05
13190.0 3.7991e-05
13210.0 3.7493e-05
13230.0 3.7019e-05
13250.0 3.6599e-05
13270.0 3.6265e-05
13290.0 3.5997e-05
13310.0 3.5796e-05
13330.0 3.5685e-05
13350.0 3.565e-05
13370.0 3.5676e-05
13390.0 3.5757e-05
13410.0 3.5873e-05
13430.0 3.6004e-05
13450.0 3.6134e-05
13470.0 3.6239e-05
13490.0 3.6304e-05
13510.0 3.6311e-05
13530.0 3.6246e-05
13550.0 3.6114e-05
13570.0 3.5904e-05
13590.0 3.561e-05
13610.0 3.5261e-05
13630.0 3.487e-05
13650.0 3.4416e-05
13670.0 3.3934e-05
13690.0 3.3455e-05
13710.0 3.2964e-05
13730.0 3.2454e-05
13750.0 3.1992e-05
13770.0 3.1553e-05
13790.0 3.1125e-05
13810.0 3.0726e-05
13830.0 3.0369e-05
13850.0 3.0022e-05
13870.0 2.9691e-05
13890.0 2.9388e-05
13910.0 2.9102e-05
13930.0 2.8816e-05
13950.0 2.8542e-05
13970.0 2.829e-05
13990.0 2.8039e-05
14010.0 2.7794e-05
14030.0 2.7566e-05
14050.0 2.7352e-05
14070.0 2.714e-05
14090.0 2.6951e-05
14110.0 2.6782e-05
14130.0 2.6628e-05
14150.0 2.6492e-05
14170.0 2.638e-05
14190.0 2.6288e-05
14210.0 2.6214e-05
14230.0 2.6162e-05
14250.0 2.613e-05
14270.0 2.6119e-05
14290.0 2.613e-05
14310.0 2.6156e-05
14330.0 2.6201e-05
14350.0 2.6265e-05
14370.0 2.634e-05
14390.0 2.6419e-05
14410.0 2.651e-05
14430.0 2.6605e-05
14450.0 2.6691e-05
14470.0 2.6772e-05
14490.0 2.6851e-05
14510.0 2.6913e-05
14530.0 2.6959e-05
14550.0 2.6997e-05
14570.0 2.7026e-05
14590.0 2.7043e-05
14610.0 2.706e-05
14630.0 2.7085e-05
14650.0 2.7116e-05
14670.0 2.716e-05
14690.0 2.7232e-05
14710.0 2.7336e-05
14730.0 2.7461e-05
14750.0 2.7628e-05
14770.0 2.7844e-05
14790.0 2.8096e-05
14810.0 2.838e-05
14830.0 2.8734e-05
14850.0 2.9122e-05
14870.0 2.9523e-05
14890.0 2.9955e-05
14910.0 3.0409e-05
14930.0 3.0832e-05
14950.0 3.1209e-05
14970.0 3.1552e-05
14990.0 3.1811e-05
15010.0 3.1973e-05
15030.0 3.2054e-05
15050.0 3.2056e-05
15070.0 3.1983e-05
15090.0 3.1862e-05
15110.0 3.1709e-05
15130.0 3.1535e-05
15150.0 3.135e-05
15170.0 3.1159e-05
15190.0 3.0964e-05
15210.0 3.077e-05
15230.0 3.0575e-05
15250.0 3.0378e-05
15270.0 3.0182e-05
15290.0 2.9988e-05
15310.0 2.9792e-05
15330.0 2.9596e-05
15350.0 2.9402e-05
15370.0 2.9209e-05
15390.0 2.9013e-05
15410.0 2.8819e-05
15430.0 2.8626e-05
15450.0 2.8433e-05
15470.0 2.824e-05
15490.0 2.8049e-05
15510.0 2.7858e-05
15530.0 2.7667e-05
15550.0 2.7477e-05
15570.0 2.7289e-05
15590.0 2.7099e-05
15610.0 2.691e-05
15630.0 2.6724e-05
15650.0 2.6538e-05
15670.0 2.6352e-05
15690.0 2.6168e-05
15710.0 2.5985e-05
15730.0 2.5802e-05
15750.0 2.562e-05
15770.0 2.544e-05
15790.0 2.526e-05
15810.0 2.508e-05
15830.0 2.4902e-05
15850.0 2.4727e-05
15870.0 2.4551e-05
15890.0 2.4376e-05
15910.0 2.4203e-05
15930.0 2.4031e-05
15950.0 2.3859e-05
15970.0 2.3689e-05
15990.0 2.3521e-05
16010.0 2.3353e-05
16030.0 2.3186e-05
16050.0 2.3022e-05
16070.0 2.2858e-05
16090.0 2.2694e-05
16110.0 2.2533e-05
16130.0 2.2374e-05
16150.0 2.2214e-05
16170.0 2.2056e-05
16190.0 2.19e-05
16210.0 2.1745e-05
16230.0 2.159e-05
16250.0 2.1438e-05
16270.0 2.1287e-05
16290.0 2.1137e-05
16310.0 2.0988e-05
16330.0 2.0841e-05
16350.0 2.0695e-05
16370.0 2.0549e-05
16390.0 2.0406e-05
16410.0 2.0264e-05
16430.0 2.0123e-05
16450.0 1.9983e-05
16470.0 1.9846e-05
16490.0 1.9709e-05
16510.0 1.9572e-05
16530.0 1.9438e-05
16550.0 1.9306e-05
16570.0 1.9173e-05
16590.0 1.9042e-05
16610.0 1.8914e-05
16630.0 1.8786e-05
16650.0 1.8659e-05
16670.0 1.8535e-05
16690.0 1.8411e-05
16710.0 1.8287e-05
16730.0 1.8166e-05
16750.0 1.8046e-05
16770.0 1.7927e-05
16790.0 1.7808e-05
16810.0 1.7693e-05
16830.0 1.7578e-05
16850.0 1.7463e-05
16870.0 1.735e-05
16890.0 1.724e-05
16910.0 1.7129e-05
16930.0 1.7018e-05
16950.0 1.6911e-05
16970.0 1.6805e-05
16990.0 1.6698e-05
17010.0 1.6594e-05
17030.0 1.6492e-05
17050.0 1.6389e-05
17070.0 1.6287e-05
17090.0 1.6188e-05
17110.0 1.6089e-05
17130.0 1.5991e-05
17150.0 1.5894e-05
17170.0 1.58e-05
17190.0 1.5705e-05
17210.0 1.5611e-05
17230.0 1.552e-05
17250.0 1.5429e-05
17270.0 1.5338e-05
17290.0 1.5249e-05
17310.0 1.5161e-05
17330.0 1.5074e-05
17350.0 1.4987e-05
17370.0 1.4903e-05
17390.0 1.4819e-05
17410.0 1.4736e-05
17430.0 1.4654e-05
17450.0 1.4574e-05
17470.0 1.4493e-05
17490.0 1.4413e-05
17510.0 1.4336e-05
17530.0 1.4258e-05
17550.0 1.4181e-05
17570.0 1.4106e-05
17590.0 1.4032e-05
17610.0 1.3958e-05
17630.0 1.3885e-05
17650.0 1.3814e-05
17670.0 1.3743e-05
17690.0 1.3671e-05
17710.0 1.3603e-05
17730.0 1.3535e-05
17750.0 1.3466e-05
17770.0 1.3399e-05
17790.0 1.3334e-05
17810.0 1.3269e-05
17830.0 1.3204e-05
17850.0 1.314e-05
17870.0 1.3078e-05
17890.0 1.3015e-05
17910.0 1.2953e-05
17930.0 1.2893e-05
17950.0 1.2833e-05
17970.0 1.2774e-05
17990.0 1.2716e-05
18010.0 1.2658e-05
18030.0 1.26e-05
18050.0 1.2544e-05
18070.0 1.2489e-05
18090.0 1.2433e-05
18110.0 1.2378e-05
18130.0 1.2325e-05
18150.0 1.2272e-05
18170.0 1.222e-05
18190.0 1.2168e-05
18210.0 1.2117e-05
18230.0 1.2066e-05
18250.0 1.2016e-05
18270.0 1.1967e-05
18290.0 1.1918e-05
18310.0 1.187e-05
18330.0 1.1822e-05
18350.0 1.1776e-05
18370.0 1.1729e-05
18390.0 1.1683e-05
18410.0 1.1638e-05
18430.0 1.1593e-05
18450.0 1.1548e-05
18470.0 1.1505e-05
18490.0 1.1462e-05
18510.0 1.1419e-05
18530.0 1.1377e-05
18550.0 1.1336e-05
18570.0 1.1294e-05
18590.0 1.1253e-05
18610.0 1.1213e-05
18630.0 1.1173e-05
18650.0 1.1134e-05
18670.0 1.1094e-05
18690.0 1.1057e-05
18710.0 1.1019e-05
18730.0 1.0981e-05
18750.0 1.0944e-05
18770.0 1.0908e-05
18790.0 1.0871e-05
18810.0 1.0835e-05
18830.0 1.08e-05
18850.0 1.0765e-05
18870.0 1.073e-05
18890.0 1.0696e-05
18910.0 1.0663e-05
18930.0 1.0629e-05
18950.0 1.0595e-05
18970.0 1.0563e-05
18990.0 1.0531e-05
19010.0 1.0498e-05
19030.0 1.0467e-05
19050.0 1.0436e-05
19070.0 1.0404e-05
19090.0 1.0374e-05
19110.0 1.0344e-05
19130.0 1.0314e-05
19150.0 1.0283e-05
19170.0 1.0254e-05
19190.0 1.0226e-05
19210.0 1.0196e-05
19230.0 1.0167e-05
19250.0 1.014e-05
19270.0 1.0112e-05
19290.0 1.0084e-05
19310.0 1.0057e-05
19330.0 1.003e-05
19350.0 1.0003e-05
19370.0 9.9762e-06
19390.0 9.9504e-06
19410.0 9.9241e-06
19430.0 9.8979e-06
19450.0 9.873e-06
19470.0 9.8479e-06
19490.0 9.8223e-06
19510.0 9.7976e-06
19530.0 9.7736e-06
19550.0 9.7487e-06
19570.0 9.7239e-06
19590.0 9.7006e-06
19610.0 9.677e-06
19630.0 9.653e-06
19650.0 9.6299e-06
19670.0 9.6074e-06
19690.0 9.584e-06
19710.0 9.5609e-06
19730.0 9.5388e-06
19750.0 9.5165e-06
19770.0 9.4935e-06
19790.0 9.4717e-06
19810.0 9.4503e-06
19830.0 9.4281e-06
19850.0 9.4058e-06
19870.0 9.3838e-06
19890.0 9.3596e-06
19910.0 9.3316e-06
19930.0 9.2999e-06
19950.0 9.2611e-06
19970.0 9.2098e-06
19990.0 9.1446e-06
20010.0 9.0675e-06
20030.0 8.9714e-06
20050.0 8.8568e-06
20070.0 8.7316e-06
20090.0 8.5964e-06
20110.0 8.4431e-06
20130.0 8.2884e-06
20150.0 8.1356e-06
20170.0 7.9776e-06
20190.0 7.8176e-06
20210.0 7.6668e-06
20230.0 7.5197e-06
20250.0 7.3721e-06
20270.0 7.2349e-06
20290.0 7.1096e-06
20310.0 6.9904e-06
20330.0 6.8789e-06
20350.0 6.7871e-06
20370.0 6.7063e-06
20390.0 6.6369e-06
20410.0 6.5832e-06
20430.0 6.5448e-06
20450.0 6.5186e-06
20470.0 6.5073e-06
20490.0 6.5102e-06
20510.0 6.5256e-06
20530.0 6.5542e-06
20550.0 6.5936e-06
20570.0 6.6411e-06
20590.0 6.6988e-06
20610.0 6.7638e-06
20630.0 6.8319e-06
20650.0 6.9044e-06
20670.0 6.9826e-06
20690.0 7.058e-06
20710.0 7.1309e-06
20730.0 7.2033e-06
20750.0 7.2716e-06
20770.0 7.3317e-06
20790.0 7.3867e-06
20810.0 7.4356e-06
20830.0 7.4752e-06
20850.0 7.5061e-06
20870.0 7.5295e-06
20890.0 7.5436e-06
20910.0 7.5489e-06
20930.0 7.5465e-06
20950.0 7.536e-06
20970.0 7.5189e-06
20990.0 7.496e-06
21010.0 7.4657e-06
21030.0 7.4304e-06
21050.0 7.3921e-06
21070.0 7.3493e-06
21090.0 7.3016e-06
21110.0 7.2541e-06
21130.0 7.2057e-06
21150.0 7.1545e-06
21170.0 7.1039e-06
21190.0 7.056e-06
21210.0 7.0077e-06
21230.0 6.9607e-06
21250.0 6.9189e-06
21270.0 6.8809e-06
21290.0 6.846e-06
21310.0 6.8167e-06
21330.0 6.7942e-06
21350.0 6.7765e-06
21370.0 6.7649e-06
21390.0 6.7602e-06
21410.0 6.7618e-06
21430.0 6.7701e-06
21450.0 6.7849e-06
21470.0 6.8051e-06
21490.0 6.8316e-06
21510.0 6.864e-06
21530.0 6.8999e-06
21550.0 6.9403e-06
21570.0 6.9863e-06
21590.0 7.0348e-06
21610.0 7.0852e-06
21630.0 7.1396e-06
21650.0 7.198e-06
21670.0 7.2546e-06
21690.0 7.3136e-06
21710.0 7.3757e-06
21730.0 7.4379e-06
21750.0 7.4991e-06
21770.0 7.5648e-06
21790.0 7.631e-06
21810.0 7.6958e-06
21830.0 7.7618e-06
21850.0 7.8307e-06
21870.0 7.8983e-06
21890.0 7.9641e-06
21910.0 8.0326e-06
21930.0 8.1008e-06
21950.0 8.1663e-06
21970.0 8.2317e-06
21990.0 8.2986e-06
22010.0 8.3604e-06
22030.0 8.4189e-06
22050.0 8.4759e-06
22070.0 8.5288e-06
22090.0 8.5749e-06
22110.0 8.6167e-06
22130.0 8.653e-06
22150.0 8.6813e-06
22170.0 8.702e-06
22190.0 8.7149e-06
22210.0 8.7183e-06
22230.0 8.7128e-06
22250.0 8.6978e-06
22270.0 8.6722e-06
22290.0 8.6378e-06
22310.0 8.5945e-06
22330.0 8.5389e-06
22350.0 8.4746e-06
22370.0 8.4037e-06
22390.0 8.3229e-06
22410.0 8.2313e-06
22430.0 8.1374e-06
22450.0 8.0383e-06
22470.0 7.9302e-06
22490.0 7.8192e-06
22510.0 7.7092e-06
22530.0 7.5922e-06
22550.0 7.4718e-06
22570.0 7.3565e-06
22590.0 7.242e-06
22610.0 7.1252e-06
22630.0 7.0124e-06
