#lamb flux
1010.0 2.8401e-05
1030.0 2.8401e-05
1050.0 2.8401e-05
1070.0 2.8401e-05
1090.0 2.8401e-05
1110.0 2.8401e-05
1130.0 2.8401e-05
1150.0 2.8401e-05
1170.0 2.8401e-05
1190.0 2.8401e-05
1210.0 2.8401e-05
1230.0 2.8401e-05
1250.0 2.8401e-05
1270.0 2.8401e-05
1290.0 2.8401e-05
1310.0 2.8401e-05
1330.0 2.8401e-05
1350.0 2.8401e-05
1370.0 2.8401e-05
1390.0 2.8401e-05
1410.0 2.8401e-05
1430.0 2.8401e-05
1450.0 3.1495e-05
1470.0 3.5795e-05
1490.0 4.0636e-05
1510.0 4.6109e-05
1530.0 5.2059e-05
1550.0 5.8567e-05
1570.0 6.5768e-05
1590.0 7.3654e-05
1610.0 8.2125e-05
1630.0 9.1286e-05
1650.0 0.00010134
1670.0 0.00011219
1690.0 0.0001239
1710.0 0.00013669
1730.0 0.00015051
1750.0 0.0001651
1770.0 0.0001808
1790.0 0.00019757
1810.0 0.00021513
1830.0 0.00023345
1850.0 0.00025286
1870.0 0.00027281
1890.0 0.00029308
1910.0 0.00031381
1930.0 0.00033489
1950.0 0.00035565
1970.0 0.00037609
1990.0 0.00039637
2010.0 0.0004159
2030.0 0.00043431
2050.0 0.00045192
2070.0 0.00046855
2090.0 0.00048335
2110.0 0.00049666
2130.0 0.00050863
2150.0 0.00051881
2170.0 0.00052696
2190.0 0.00053372
2210.0 0.00053889
2230.0 0.0005421
2250.0 0.00054375
2270.0 0.00054431
2290.0 0.00054326
2310.0 0.00054068
2330.0 0.00053725
2350.0 0.00053294
2370.0 0.00052752
2390.0 0.00052155
2410.0 0.00051544
2430.0 0.00050882
2450.0 0.00050195
2470.0 0.00049539
2490.0 0.00048935
2510.0 0.00048371
2530.0 0.00047989
2550.0 0.00047975
2570.0 0.00048492
2590.0 0.0004975
2610.0 0.0005232
2630.0 0.00056319
2650.0 0.00061519
2670.0 0.00068093
2690.0 0.00075969
2710.0 0.00084235
2730.0 0.00092542
2750.0 0.0010134
2770.0 0.0011007
2790.0 0.0011849
2810.0 0.0012719
2830.0 0.0013667
2850.0 0.0014602
2870.0 0.0015575
2890.0 0.0016633
2910.0 0.0017745
2930.0 0.001887
2950.0 0.0020088
2970.0 0.0021392
2990.0 0.0022725
3010.0 0.0024112
3030.0 0.0025604
3050.0 0.0027151
3070.0 0.0028667
3090.0 0.0030208
3110.0 0.0031689
3130.0 0.0032988
3150.0 0.0034052
3170.0 0.0034809
3190.0 0.0035155
3210.0 0.0035023
3230.0 0.0034562
3250.0 0.0034388
3270.0 0.0034856
3290.0 0.0035775
3310.0 0.0036919
3330.0 0.003833
3350.0 0.003992
3370.0 0.0041711
3390.0 0.0043802
3410.0 0.0045788
3430.0 0.0048884
3450.0 0.0051354
3470.0 0.0053943
3490.0 0.0056137
3510.0 0.0058799
3530.0 0.006761
3550.0 0.0079924
3570.0 0.0087442
3590.0 0.0090728
3610.0 0.0091065
3630.0 0.0088274
3650.0 0.0095396
3670.0 0.011346
3690.0 0.012776
3710.0 0.013536
3730.0 0.014168
3750.0 0.014864
3770.0 0.014742
3790.0 0.013965
3810.0 0.013076
3830.0 0.012182
3850.0 0.012096
3870.0 0.013094
3890.0 0.014131
3910.0 0.014846
3930.0 0.015299
3950.0 0.016645
3970.0 0.017897
3990.0 0.017103
4010.0 0.015047
4030.0 0.01318
4050.0 0.012621
4070.0 0.01294
4090.0 0.012943
4110.0 0.012658
4130.0 0.012448
4150.0 0.012577
4170.0 0.013704
4190.0 0.015049
4210.0 0.014881
4230.0 0.014076
4250.0 0.013721
4270.0 0.013712
4290.0 0.014299
4310.0 0.014927
4330.0 0.014211
4350.0 0.012329
4370.0 0.010794
4390.0 0.0097004
4410.0 0.0087705
4430.0 0.0087187
4450.0 0.0094634
4470.0 0.01012
4490.0 0.010992
4510.0 0.012576
4530.0 0.015909
4550.0 0.020215
4570.0 0.022792
4590.0 0.024298
4610.0 0.026686
4630.0 0.028401
4650.0 0.026566
4670.0 0.021781
4690.0 0.017823
4710.0 0.016204
4730.0 0.015728
4750.0 0.0145
4770.0 0.013447
4790.0 0.014128
4810.0 0.015448
4830.0 0.0156
4850.0 0.014578
4870.0 0.014145
4890.0 0.015089
4910.0 0.016051
4930.0 0.016171
4950.0 0.015614
4970.0 0.014636
4990.0 0.013231
5010.0 0.011979
5030.0 0.01125
5050.0 0.010915
5070.0 0.010645
5090.0 0.010331
5110.0 0.010241
5130.0 0.010303
5150.0 0.010786
5170.0 0.011987
5190.0 0.013515
5210.0 0.015269
5230.0 0.016446
5250.0 0.017074
5270.0 0.018054
5290.0 0.019215
5310.0 0.019688
5330.0 0.018999
5350.0 0.017981
5370.0 0.017981
5390.0 0.019304
5410.0 0.020973
5430.0 0.022027
5450.0 0.022293
5470.0 0.021852
5490.0 0.021055
5510.0 0.020536
5530.0 0.020472
5550.0 0.020657
5570.0 0.020757
5590.0 0.020308
5610.0 0.01942
5630.0 0.018177
5650.0 0.016855
5670.0 0.01605
5690.0 0.015653
5710.0 0.015455
5730.0 0.015563
5750.0 0.015458
5770.0 0.015184
5790.0 0.015273
5810.0 0.015438
5830.0 0.01566
5850.0 0.015824
5870.0 0.015562
5890.0 0.014948
5910.0 0.014105
5930.0 0.012773
5950.0 0.011675
5970.0 0.011442
5990.0 0.011873
6010.0 0.012161
6030.0 0.011756
6050.0 0.011365
6070.0 0.011794
6090.0 0.012709
6110.0 0.013244
6130.0 0.012916
6150.0 0.012169
6170.0 0.011633
6190.0 0.011135
6210.0 0.010469
6230.0 0.0097741
6250.0 0.0094442
6270.0 0.0096531
6290.0 0.010024
6310.0 0.010616
6330.0 0.011478
6350.0 0.012397
6370.0 0.01291
6390.0 0.013036
6410.0 0.013164
6430.0 0.013292
6450.0 0.013436
6470.0 0.013701
6490.0 0.013989
6510.0 0.01419
6530.0 0.014187
6550.0 0.013963
6570.0 0.01349
6590.0 0.012864
6610.0 0.012416
6630.0 0.012159
6650.0 0.011779
6670.0 0.011247
6690.0 0.010793
6710.0 0.010557
6730.0 0.010448
6750.0 0.010289
6770.0 0.010094
6790.0 0.0099303
6810.0 0.0097245
6830.0 0.0096088
6850.0 0.0097762
6870.0 0.0098823
6890.0 0.009782
6910.0 0.0095677
6930.0 0.009367
6950.0 0.0091937
6970.0 0.0088822
6990.0 0.0085438
7010.0 0.0083956
7030.0 0.0083126
7050.0 0.0080677
7070.0 0.0077055
7090.0 0.0075509
7110.0 0.0077424
7130.0 0.0082158
7150.0 0.0087233
7170.0 0.0090517
7190.0 0.0089875
7210.0 0.0086361
7230.0 0.0084104
7250.0 0.0083925
7270.0 0.0083715
7290.0 0.0083028
7310.0 0.0083644
7330.0 0.0086138
7350.0 0.0089416
7370.0 0.0091425
7390.0 0.0091167
7410.0 0.0089194
7430.0 0.0086604
7450.0 0.0083587
7470.0 0.0079603
7490.0 0.0076853
7510.0 0.0074433
7530.0 0.007294
7550.0 0.0073308
7570.0 0.0074059
7590.0 0.0074508
7610.0 0.0074118
7630.0 0.0073645
7650.0 0.0074107
7670.0 0.007589
7690.0 0.0078161
7710.0 0.0080815
7730.0 0.0082835
7750.0 0.0085231
7770.0 0.0086949
7790.0 0.0087837
7810.0 0.0087777
7830.0 0.00876
7850.0 0.0085917
7870.0 0.0082092
7890.0 0.0078144
7910.0 0.0075608
7930.0 0.0073743
7950.0 0.0071948
7970.0 0.0071
7990.0 0.0071312
8010.0 0.0068495
8030.0 0.0067678
8050.0 0.006665
8070.0 0.0065401
8090.0 0.0064141
8110.0 0.0064009
8130.0 0.0064258
8150.0 0.0063913
8170.0 0.0063329
8190.0 0.0061599
8210.0 0.0057978
8230.0 0.0054056
8250.0 0.0051774
8270.0 0.0050003
8290.0 0.004819
8310.0 0.00473
8330.0 0.0047108
8350.0 0.0045855
8370.0 0.0045176
8390.0 0.0046585
8410.0 0.0049217
8430.0 0.0052626
8450.0 0.0056199
8470.0 0.0058222
8490.0 0.0059994
8510.0 0.0061207
8530.0 0.0062413
8550.0 0.0063616
8570.0 0.0064381
8590.0 0.0065061
8610.0 0.0066681
8630.0 0.0067289
8650.0 0.0065875
8670.0 0.006583
8690.0 0.0066803
8710.0 0.0067699
8730.0 0.0067443
8750.0 0.0065729
8770.0 0.0065012
8790.0 0.0064617
8810.0 0.0063481
8830.0 0.0059257
8850.0 0.0054005
8870.0 0.0050236
8890.0 0.0048307
8910.0 0.0045686
8930.0 0.0042434
8950.0 0.0040326
8970.0 0.003992
8990.0 0.0040252
9010.0 0.0040189
9030.0 0.003989
9050.0 0.0039615
9070.0 0.0039384
9090.0 0.0039161
9110.0 0.003894
9130.0 0.003872
9150.0 0.0038501
9170.0 0.0038284
9190.0 0.0038067
9210.0 0.0037851
9230.0 0.0037638
9250.0 0.0037426
9270.0 0.0037214
9290.0 0.0037004
9310.0 0.0036796
9330.0 0.0036588
9350.0 0.0036382
9370.0 0.0036177
9390.0 0.0035974
9410.0 0.0035771
9430.0 0.0035566
9450.0 0.0035347
9470.0 0.0035135
9490.0 0.0034955
9510.0 0.0034766
9530.0 0.0034578
9550.0 0.0034386
9570.0 0.0034195
9590.0 0.0034005
9610.0 0.0033815
9630.0 0.0033625
9650.0 0.0033436
9670.0 0.0033251
9690.0 0.0033064
9710.0 0.0032878
9730.0 0.0032695
9750.0 0.0032512
9770.0 0.0032328
9790.0 0.0032146
9810.0 0.0031967
9830.0 0.0031784
9850.0 0.0031589
9870.0 0.0031415
9890.0 0.0031242
9910.0 0.0031067
9930.0 0.0030892
9950.0 0.0030719
9970.0 0.0030542
9990.0 0.0030363
10010.0 0.0030168
10030.0 0.0029985
10050.0 0.0029821
10070.0 0.0029656
10090.0 0.0029491
10110.0 0.0029308
10130.0 0.0029072
10150.0 0.002891
10170.0 0.0028761
10190.0 0.0028597
10210.0 0.0028436
10230.0 0.0028273
10250.0 0.0028098
10270.0 0.0027924
10290.0 0.0027756
10310.0 0.002758
10330.0 0.0027396
10350.0 0.0027223
10370.0 0.0027049
10390.0 0.0026868
10410.0 0.0026687
10430.0 0.0026516
10450.0 0.0026336
10470.0 0.0026152
10490.0 0.0025974
10510.0 0.0025797
10530.0 0.0025606
10550.0 0.0025421
10570.0 0.0025242
10590.0 0.0025056
10610.0 0.0024865
10630.0 0.0024683
10650.0 0.0024498
10670.0 0.0024303
10690.0 0.0024111
10710.0 0.0023925
10730.0 0.002373
10750.0 0.0023527
10770.0 0.0023338
10790.0 0.0023144
10810.0 0.0022942
10830.0 0.0022743
10850.0 0.002255
10870.0 0.0022343
10890.0 0.0022136
10910.0 0.0021938
10930.0 0.0021737
10950.0 0.002153
10970.0 0.002133
10990.0 0.002114
11010.0 0.0020522
11030.0 0.0020324
11050.0 0.0020139
11070.0 0.0019956
11090.0 0.0019769
11110.0 0.0019596
11130.0 0.0019432
11150.0 0.0019269
11170.0 0.0019113
11190.0 0.0018973
11210.0 0.0018839
11230.0 0.0018711
11250.0 0.0018598
11270.0 0.0018497
11290.0 0.0018401
11310.0 0.0018316
11330.0 0.0018243
11350.0 0.0018175
11370.0 0.0018112
11390.0 0.0018054
11410.0 0.0018
11430.0 0.0017945
11450.0 0.0017889
11470.0 0.0017833
11490.0 0.0017772
11510.0 0.0017704
11530.0 0.0017633
11550.0 0.0017555
11570.0 0.0017466
11590.0 0.0017369
11610.0 0.0017265
11630.0 0.0017148
11650.0 0.0017016
11670.0 0.0016879
11690.0 0.0016731
11710.0 0.0016566
11730.0 0.0016391
11750.0 0.0016212
11770.0 0.0016016
11790.0 0.0015807
11810.0 0.0015594
11830.0 0.0015375
11850.0 0.0015136
11870.0 0.0014898
11890.0 0.0014664
11910.0 0.0014421
11930.0 0.0014175
11950.0 0.0013939
11970.0 0.0013706
11990.0 0.0013468
12010.0 0.0013243
12030.0 0.001303
12050.0 0.0012819
12070.0 0.0012614
12090.0 0.001243
12110.0 0.0012253
12130.0 0.0012081
12150.0 0.0011925
12170.0 0.0011783
12190.0 0.0011645
12210.0 0.0011522
12230.0 0.0011415
12250.0 0.0011321
12270.0 0.0011239
12290.0 0.0011172
12310.0 0.0011119
12330.0 0.0011078
12350.0 0.0011049
12370.0 0.001103
12390.0 0.0011021
12410.0 0.001102
12430.0 0.0011025
12450.0 0.0011034
12470.0 0.0011048
12490.0 0.0011063
12510.0 0.0011078
12530.0 0.0011093
12550.0 0.0011106
12570.0 0.0011115
12590.0 0.001112
12610.0 0.001112
12630.0 0.0011112
12650.0 0.0011097
12670.0 0.0011072
12690.0 0.0011038
12710.0 0.0010994
12730.0 0.001094
12750.0 0.0010873
12770.0 0.0010797
12790.0 0.0010713
12810.0 0.0010619
12830.0 0.0010516
12850.0 0.0010411
12870.0 0.0010302
12890.0 0.0010186
12910.0 0.0010071
12930.0 0.00099579
12950.0 0.00098424
12970.0 0.00097268
12990.0 0.00096184
13010.0 0.00095127
13030.0 0.00094074
13050.0 0.0009307
13070.0 0.0009213
13090.0 0.00091193
13110.0 0.00090285
13130.0 0.00089436
13150.0 0.00088621
13170.0 0.00087809
13190.0 0.00087057
13210.0 0.00086358
13230.0 0.00085678
13250.0 0.0008503
13270.0 0.00084435
13290.0 0.00083865
13310.0 0.00083306
13330.0 0.00082781
13350.0 0.00082281
13370.0 0.00081777
13390.0 0.0008127
13410.0 0.00080781
13430.0 0.00080274
13450.0 0.0007974
13470.0 0.00079193
13490.0 0.00078634
13510.0 0.00078017
13530.0 0.00077375
13550.0 0.00076723
13570.0 0.00076035
13590.0 0.00075303
13610.0 0.00074567
13630.0 0.0007383
13650.0 0.0007305
13670.0 0.00072264
13690.0 0.00071495
13710.0 0.00070713
13730.0 0.00069897
13750.0 0.00069125
13770.0 0.00068364
13790.0 0.00067586
13810.0 0.00066819
13830.0 0.00066092
13850.0 0.00065352
13870.0 0.00064612
13890.0 0.00063911
13910.0 0.00063231
13930.0 0.00062547
13950.0 0.00061889
13970.0 0.00061285
13990.0 0.00060688
14010.0 0.00060108
14030.0 0.00059571
14050.0 0.00059062
14070.0 0.00058549
14090.0 0.00058071
14110.0 0.00057625
14130.0 0.00057186
14150.0 0.00056754
14170.0 0.00056356
14190.0 0.0005597
14210.0 0.00055583
14230.0 0.00055215
14250.0 0.00054868
14270.0 0.00054518
14290.0 0.00054173
14310.0 0.00053856
14330.0 0.00053547
14350.0 0.00053238
14370.0 0.00052945
14390.0 0.00052671
14410.0 0.00052395
14430.0 0.00052126
14450.0 0.00051876
14470.0 0.00051633
14490.0 0.00051386
14510.0 0.00051154
14530.0 0.00050933
14550.0 0.00050707
14570.0 0.00050479
14590.0 0.00050259
14610.0 0.0005003
14630.0 0.00049784
14650.0 0.00049541
14670.0 0.00049298
14690.0 0.00049045
14710.0 0.00048795
14730.0 0.00048576
14750.0 0.00048377
14770.0 0.0004821
14790.0 0.00048101
14810.0 0.00048057
14830.0 0.00048088
14850.0 0.00048212
14870.0 0.00048425
14890.0 0.00048731
14910.0 0.0004913
14930.0 0.0004958
14950.0 0.00050056
14970.0 0.00050551
14990.0 0.00051011
15010.0 0.00051403
15030.0 0.00051732
15050.0 0.00051992
15070.0 0.00052175
15090.0 0.00052309
15110.0 0.0005241
15130.0 0.00052488
15150.0 0.00052555
15170.0 0.00052617
15190.0 0.00052677
15210.0 0.00052738
15230.0 0.000528
15250.0 0.00052863
15270.0 0.00052928
15290.0 0.00052996
15310.0 0.00053065
15330.0 0.00053135
15350.0 0.00053207
15370.0 0.00053282
15390.0 0.00053356
15410.0 0.00053433
15430.0 0.00053513
15450.0 0.00053593
15470.0 0.00053674
15490.0 0.00053758
15510.0 0.00053843
15530.0 0.00053929
15550.0 0.00054017
15570.0 0.00054107
15590.0 0.00054198
15610.0 0.00054289
15630.0 0.00054383
15650.0 0.00054478
15670.0 0.00054574
15690.0 0.00054671
15710.0 0.00054771
15730.0 0.0005487
15750.0 0.00054971
15770.0 0.00055074
15790.0 0.00055178
15810.0 0.00055281
15830.0 0.00055387
15850.0 0.00055494
15870.0 0.00055602
15890.0 0.0005571
15910.0 0.00055821
15930.0 0.00055931
15950.0 0.00056042
15970.0 0.00056155
15990.0 0.00056268
16010.0 0.00056382
16030.0 0.00056496
16050.0 0.00056613
16070.0 0.00056729
16090.0 0.00056846
16110.0 0.00056964
16130.0 0.00057083
16150.0 0.000572
16170.0 0.00057319
16190.0 0.0005744
16210.0 0.0005756
16230.0 0.0005768
16250.0 0.00057802
16270.0 0.00057924
16290.0 0.00058045
16310.0 0.00058167
16330.0 0.0005829
16350.0 0.00058413
16370.0 0.00058534
16390.0 0.00058658
16410.0 0.00058781
16430.0 0.00058904
16450.0 0.00059027
16470.0 0.00059151
16490.0 0.00059273
16510.0 0.00059395
16530.0 0.00059519
16550.0 0.00059642
16570.0 0.00059763
16590.0 0.00059884
16610.0 0.00060007
16630.0 0.00060129
16650.0 0.00060249
16670.0 0.0006037
16690.0 0.00060491
16710.0 0.00060609
16730.0 0.00060728
16750.0 0.00060847
16770.0 0.00060965
16790.0 0.00061081
16810.0 0.00061198
16830.0 0.00061314
16850.0 0.00061428
16870.0 0.00061542
16890.0 0.00061656
16910.0 0.00061767
16930.0 0.00061877
16950.0 0.00061988
16970.0 0.00062097
16990.0 0.00062204
17010.0 0.00062311
17030.0 0.00062418
17050.0 0.00062521
17070.0 0.00062623
17090.0 0.00062726
17110.0 0.00062826
17130.0 0.00062923
17150.0 0.00063021
17170.0 0.00063118
17190.0 0.00063211
17210.0 0.00063304
17230.0 0.00063396
17250.0 0.00063485
17270.0 0.00063571
17290.0 0.00063657
17310.0 0.00063742
17330.0 0.00063824
17350.0 0.00063903
17370.0 0.00063982
17390.0 0.00064059
17410.0 0.00064132
17430.0 0.00064205
17450.0 0.00064276
17470.0 0.00064343
17490.0 0.00064408
17510.0 0.00064472
17530.0 0.00064534
17550.0 0.00064592
17570.0 0.00064649
17590.0 0.00064704
17610.0 0.00064755
17630.0 0.00064805
17650.0 0.00064852
17670.0 0.00064897
17690.0 0.00064937
17710.0 0.00064977
17730.0 0.00065014
17750.0 0.00065048
17770.0 0.00065079
17790.0 0.00065109
17810.0 0.00065134
17830.0 0.00065156
17850.0 0.00065177
17870.0 0.00065195
17890.0 0.00065208
17910.0 0.00065219
17930.0 0.00065229
17950.0 0.00065235
17970.0 0.00065237
17990.0 0.00065237
18010.0 0.00065235
18030.0 0.00065227
18050.0 0.00065217
18070.0 0.00065205
18090.0 0.00065189
18110.0 0.00065169
18130.0 0.00065148
18150.0 0.00065124
18170.0 0.00065094
18190.0 0.00065063
18210.0 0.00065029
18230.0 0.0006499
18250.0 0.00064947
18270.0 0.00064904
18290.0 0.00064856
18310.0 0.00064804
18330.0 0.00064749
18350.0 0.00064693
18370.0 0.00064631
18390.0 0.00064565
18410.0 0.00064498
18430.0 0.00064427
18450.0 0.00064351
18470.0 0.00064273
18490.0 0.00064193
18510.0 0.00064107
18530.0 0.00064019
18550.0 0.00063928
18570.0 0.00063833
18590.0 0.00063734
18610.0 0.00063633
18630.0 0.00063528
18650.0 0.00063419
18670.0 0.00063307
18690.0 0.00063193
18710.0 0.00063075
18730.0 0.00062952
18750.0 0.00062828
18770.0 0.00062701
18790.0 0.00062567
18810.0 0.00062432
18830.0 0.00062295
18850.0 0.00062154
18870.0 0.00062008
18890.0 0.00061861
18910.0 0.00061711
18930.0 0.00061556
18950.0 0.00061399
18970.0 0.00061239
18990.0 0.00061075
19010.0 0.00060907
19030.0 0.00060738
19050.0 0.00060566
19070.0 0.0006039
19090.0 0.00060211
19110.0 0.00060031
19130.0 0.00059845
19150.0 0.00059657
19170.0 0.00059467
19190.0 0.00059275
19210.0 0.00059077
19230.0 0.00058878
19250.0 0.00058678
19270.0 0.00058474
19290.0 0.00058266
19310.0 0.00058057
19330.0 0.00057846
19350.0 0.00057629
19370.0 0.00057412
19390.0 0.00057193
19410.0 0.0005697
19430.0 0.00056745
19450.0 0.00056519
19470.0 0.0005629
19490.0 0.00056057
19510.0 0.00055823
19530.0 0.00055588
19550.0 0.00055349
19570.0 0.00055107
19590.0 0.00054865
19610.0 0.00054621
19630.0 0.00054373
19650.0 0.00054125
19670.0 0.00053875
19690.0 0.00053622
19710.0 0.00053367
19730.0 0.00053112
19750.0 0.00052854
19770.0 0.00052593
19790.0 0.00052332
19810.0 0.00052069
19830.0 0.00051803
19850.0 0.00051534
19870.0 0.00051261
19890.0 0.00050979
19910.0 0.00050678
19930.0 0.00050357
19950.0 0.00050001
19970.0 0.00049591
19990.0 0.00049119
20010.0 0.00048594
20030.0 0.00047991
20050.0 0.00047316
20070.0 0.000466
20090.0 0.00045851
20110.0 0.00045041
20130.0 0.00044233
20150.0 0.00043441
20170.0 0.00042636
20190.0 0.00041831
20210.0 0.00041062
20230.0 0.00040307
20250.0 0.00039549
20270.0 0.00038823
20290.0 0.00038133
20310.0 0.00037452
20330.0 0.00036784
20350.0 0.00036174
20370.0 0.00035586
20390.0 0.00035016
20410.0 0.00034483
20430.0 0.0003399
20450.0 0.00033511
20470.0 0.00033065
20490.0 0.00032657
20510.0 0.00032275
20530.0 0.00031915
20550.0 0.00031586
20570.0 0.00031286
20590.0 0.00031003
20610.0 0.00030742
20630.0 0.00030501
20650.0 0.00030275
20670.0 0.00030063
20690.0 0.00029863
20710.0 0.00029672
20730.0 0.00029487
20750.0 0.00029306
20770.0 0.00029125
20790.0 0.00028943
20810.0 0.00028758
20830.0 0.00028566
20850.0 0.00028368
20870.0 0.0002816
20890.0 0.00027941
20910.0 0.00027712
20930.0 0.0002747
20950.0 0.00027213
20970.0 0.00026946
20990.0 0.00026668
21010.0 0.00026372
21030.0 0.00026066
21050.0 0.00025753
21070.0 0.00025428
21090.0 0.0002509
21110.0 0.00024751
21130.0 0.00024407
21150.0 0.00024054
21170.0 0.00023699
21190.0 0.00023348
21210.0 0.00022991
21230.0 0.0002263
21250.0 0.00022279
21270.0 0.00021931
21290.0 0.00021581
21310.0 0.00021238
21330.0 0.00020908
21350.0 0.00020579
21370.0 0.00020255
21390.0 0.00019944
21410.0 0.00019641
21430.0 0.00019339
21450.0 0.00019051
21470.0 0.00018776
21490.0 0.00018507
21510.0 0.00018245
21530.0 0.00017997
21550.0 0.00017758
21570.0 0.00017523
21590.0 0.000173
21610.0 0.00017086
21630.0 0.00016877
21650.0 0.00016674
21670.0 0.0001648
21690.0 0.00016291
21710.0 0.00016106
21730.0 0.00015926
21750.0 0.0001575
21770.0 0.00015574
21790.0 0.00015401
21810.0 0.00015231
21830.0 0.00015061
21850.0 0.00014891
21870.0 0.00014721
21890.0 0.00014552
21910.0 0.00014381
21930.0 0.00014209
21950.0 0.00014038
21970.0 0.00013865
21990.0 0.00013688
22010.0 0.00013512
22030.0 0.00013336
22050.0 0.00013157
22070.0 0.00012976
22090.0 0.00012797
22110.0 0.00012616
22130.0 0.00012432
22150.0 0.00012249
22170.0 0.00012067
22190.0 0.0001188
22210.0 0.00011694
22230.0 0.00011511
22250.0 0.00011325
22270.0 0.00011139
22290.0 0.00010954
22310.0 0.00010771
22330.0 0.00010584
22350.0 0.00010399
22370.0 0.00010217
22390.0 0.00010034
22410.0 9.8483e-05
22430.0 9.6682e-05
22450.0 9.4894e-05
22470.0 9.3087e-05
22490.0 9.1302e-05
22510.0 8.9563e-05
22530.0 8.7805e-05
22550.0 8.605e-05
22570.0 8.4355e-05
22590.0 8.2685e-05
22610.0 8.1014e-05
22630.0 7.9385e-05
22650.0 7.7824e-05
22670.0 7.6271e-05
22690.0 7.475e-05
22710.0 7.3298e-05
22730.0 7.1891e-05
22750.0 7.0496e-05
22770.0 6.9177e-05
22790.0 6.7924e-05
22810.0 6.6706e-05
22830.0 6.5536e-05
22850.0 6.4438e-05
22870.0 6.3384e-05
22890.0 6.2369e-05
22910.0 6.1416e-05
22930.0 6.0516e-05
22950.0 5.9656e-05
22970.0 5.8841e-05
22990.0 5.808e-05
23010.0 5.7355e-05
23030.0 5.6664e-05
23050.0 5.6008e-05
23070.0 5.5378e-05
23090.0 5.4769e-05
23110.0 5.4176e-05
23130.0 5.3591e-05
23150.0 5.3009e-05
23170.0 5.2424e-05
23190.0 5.1829e-05
23210.0 5.1221e-05
23230.0 5.0594e-05
23250.0 4.9944e-05
23270.0 4.9271e-05
23290.0 4.857e-05
