#lamb flux
1010.0 2.3342e-07
1030.0 2.5868e-07
1050.0 2.8775e-07
1070.0 3.2047e-07
1090.0 3.5764e-07
1110.0 3.9576e-07
1130.0 4.3414e-07
1150.0 4.7434e-07
1170.0 5.1581e-07
1190.0 5.5515e-07
1210.0 5.9502e-07
1230.0 6.3623e-07
1250.0 6.7662e-07
1270.0 7.1585e-07
1290.0 7.573e-07
1310.0 7.9874e-07
1330.0 8.3848e-07
1350.0 8.7869e-07
1370.0 9.202e-07
1390.0 9.6069e-07
1410.0 9.9998e-07
1430.0 1.0411e-06
1450.0 1.0822e-06
1470.0 1.1219e-06
1490.0 1.162e-06
1510.0 1.2044e-06
1530.0 1.2446e-06
1550.0 1.2843e-06
1570.0 1.3253e-06
1590.0 1.3663e-06
1610.0 1.4056e-06
1630.0 1.446e-06
1650.0 1.4874e-06
1670.0 1.5274e-06
1690.0 1.5669e-06
1710.0 1.6079e-06
1730.0 1.649e-06
1750.0 1.6876e-06
1770.0 1.7273e-06
1790.0 1.7676e-06
1810.0 1.8066e-06
1830.0 1.8447e-06
1850.0 1.885e-06
1870.0 1.924e-06
1890.0 1.9615e-06
1910.0 1.9996e-06
1930.0 2.0383e-06
1950.0 2.0748e-06
1970.0 2.1106e-06
1990.0 2.1474e-06
2010.0 2.1831e-06
2030.0 2.217e-06
2050.0 2.2515e-06
2070.0 2.2864e-06
2090.0 2.3184e-06
2110.0 2.3496e-06
2130.0 2.3813e-06
2150.0 2.4114e-06
2170.0 2.439e-06
2190.0 2.4671e-06
2210.0 2.4945e-06
2230.0 2.5194e-06
2250.0 2.543e-06
2270.0 2.5671e-06
2290.0 2.5889e-06
2310.0 2.6079e-06
2330.0 2.6268e-06
2350.0 2.6447e-06
2370.0 2.6599e-06
2390.0 2.6744e-06
2410.0 2.6899e-06
2430.0 2.7042e-06
2450.0 2.7184e-06
2470.0 2.7359e-06
2490.0 2.7591e-06
2510.0 2.788e-06
2530.0 2.8342e-06
2550.0 2.9149e-06
2570.0 3.0456e-06
2590.0 3.2449e-06
2610.0 3.5651e-06
2630.0 4.0123e-06
2650.0 4.5553e-06
2670.0 5.1946e-06
2690.0 5.8985e-06
2710.0 6.5613e-06
2730.0 7.1362e-06
2750.0 7.6339e-06
2770.0 8.0053e-06
2790.0 8.2529e-06
2810.0 8.4204e-06
2830.0 8.5384e-06
2850.0 8.606e-06
2870.0 8.6539e-06
2890.0 8.6994e-06
2910.0 8.7411e-06
2930.0 8.7745e-06
2950.0 8.8139e-06
2970.0 8.8574e-06
2990.0 8.8956e-06
3010.0 0.0001165
3030.0 0.00011673
3050.0 0.00011693
3070.0 0.00011696
3090.0 0.00011691
3110.0 0.00011662
3130.0 0.00011587
3150.0 0.00011459
3170.0 0.00011259
3190.0 0.0001099
3210.0 0.00010679
3230.0 0.0001036
3250.0 0.00010246
3270.0 0.0001005
3290.0 0.00010244
3310.0 0.0001017
3330.0 0.00010426
3350.0 0.0001081
3370.0 0.00011307
3390.0 0.000119
3410.0 0.00012524
3430.0 0.00013208
3450.0 0.00013971
3470.0 0.00014773
3490.0 0.00015587
3510.0 0.0001653
3530.0 0.00017567
3550.0 0.0001844
3570.0 0.0001925
3590.0 0.00020408
3610.0 0.00021181
3630.0 0.00022462
3650.0 0.00023605
3670.0 0.00024758
3690.0 0.00025408
3710.0 0.00025571
3730.0 0.00025933
3750.0 0.00025938
3770.0 0.00024037
3790.0 0.00022057
3810.0 0.000206
3830.0 0.00018647
3850.0 0.00016217
3870.0 0.0001609
3890.0 0.00020836
3910.0 0.00027892
3930.0 0.00033378
3950.0 0.00035361
3970.0 0.00034632
3990.0 0.000353
4010.0 0.00039907
4030.0 0.00042783
4050.0 0.0004144
4070.0 0.00036684
4090.0 0.00032396
4110.0 0.00036353
4130.0 0.0003936
4150.0 0.00038646
4170.0 0.00038642
4190.0 0.00038468
4210.0 0.00039913
4230.0 0.00042473
4250.0 0.00045852
4270.0 0.00046706
4290.0 0.00046278
4310.0 0.00048726
4330.0 0.00053517
4350.0 0.00060735
4370.0 0.00067779
4390.0 0.00065321
4410.0 0.00055183
4430.0 0.00045938
4450.0 0.00038482
4470.0 0.00037714
4490.0 0.00041261
4510.0 0.00047651
4530.0 0.00051844
4550.0 0.00058251
4570.0 0.00069494
4590.0 0.0008547
4610.0 0.0010946
4630.0 0.0013172
4650.0 0.0013547
4670.0 0.0013509
4690.0 0.0014293
4710.0 0.0014563
4730.0 0.0012272
4750.0 0.00090743
4770.0 0.00074253
4790.0 0.000699
4810.0 0.0006627
4830.0 0.00065088
4850.0 0.00074883
4870.0 0.00092393
4890.0 0.0010272
4910.0 0.00090003
4930.0 0.00084153
4950.0 0.00096776
4970.0 0.0012568
4990.0 0.001558
5010.0 0.0016019
5030.0 0.0013208
5050.0 0.00090262
5070.0 0.00064236
5090.0 0.00056083
5110.0 0.00057432
5130.0 0.00061816
5150.0 0.00063807
5170.0 0.00063337
5190.0 0.00062535
5210.0 0.00061434
5230.0 0.00063679
5250.0 0.00068315
5270.0 0.00078342
5290.0 0.00090385
5310.0 0.00099148
5330.0 0.0010248
5350.0 0.0010515
5370.0 0.0011432
5390.0 0.0012026
5410.0 0.0011387
5430.0 0.0010078
5450.0 0.00097147
5470.0 0.0011217
5490.0 0.001424
5510.0 0.0017585
5530.0 0.0019085
5550.0 0.0018646
5570.0 0.0017261
5590.0 0.0015702
5610.0 0.0014715
5630.0 0.0014395
5650.0 0.0014687
5670.0 0.001435
5690.0 0.0013484
5710.0 0.0012801
5730.0 0.0011397
5750.0 0.00088279
5770.0 0.00077863
5790.0 0.00085957
5810.0 0.0010087
5830.0 0.0011302
5850.0 0.0011978
5870.0 0.0012066
5890.0 0.0011519
5910.0 0.0011014
5930.0 0.0011057
5950.0 0.0011604
5970.0 0.001201
5990.0 0.0011109
6010.0 0.000933
6030.0 0.0007746
6050.0 0.00068924
6070.0 0.00069941
6090.0 0.00077768
6110.0 0.00082239
6130.0 0.00078265
6150.0 0.00075265
6170.0 0.00083487
6190.0 0.00099577
6210.0 0.0011869
6230.0 0.001326
6250.0 0.0013065
6270.0 0.0011637
6290.0 0.00096732
6310.0 0.00077511
6330.0 0.0006332
6350.0 0.00059303
6370.0 0.00065186
6390.0 0.00075305
6410.0 0.0008669
6430.0 0.0010106
6450.0 0.0011865
6470.0 0.0014518
6490.0 0.0017519
6510.0 0.0018934
6530.0 0.0017838
6550.0 0.0016733
6570.0 0.0016545
6590.0 0.001598
6610.0 0.0014744
6630.0 0.0013499
6650.0 0.0012651
6670.0 0.0012832
6690.0 0.0012608
6710.0 0.0011355
6730.0 0.0010278
6750.0 0.0009213
6770.0 0.00091988
6790.0 0.00098202
6810.0 0.0010367
6830.0 0.0010561
6850.0 0.0010233
6870.0 0.00098521
6890.0 0.00096117
6910.0 0.00090954
6930.0 0.00087281
6950.0 0.00087505
6970.0 0.0009001
6990.0 0.00098831
7010.0 0.0010417
7030.0 0.00097033
7050.0 0.00089551
7070.0 0.00082773
7090.0 0.00072716
7110.0 0.00067372
7130.0 0.00069192
7150.0 0.000718
7170.0 0.00075085
7190.0 0.00074641
7210.0 0.00074914
7230.0 0.00080941
7250.0 0.00093074
7270.0 0.0010616
7290.0 0.0011235
7310.0 0.0010769
7330.0 0.00096373
7350.0 0.00087382
7370.0 0.00085446
7390.0 0.00086934
7410.0 0.00091602
7430.0 0.0010159
7450.0 0.001107
7470.0 0.0012172
7490.0 0.0013045
7510.0 0.0011644
7530.0 0.0011108
7550.0 0.00096416
7570.0 0.00082262
7590.0 0.00068165
7610.0 0.00063309
7630.0 0.00067017
7650.0 0.00077219
7670.0 0.00085933
7690.0 0.00095919
7710.0 0.0010673
7730.0 0.0011254
7750.0 0.0011507
7770.0 0.0011584
7790.0 0.0011573
7810.0 0.0011861
7830.0 0.0011498
7850.0 0.0010654
7870.0 0.00098743
7890.0 0.00091776
7910.0 0.00082501
7930.0 0.00072327
7950.0 0.00065879
7970.0 0.00064651
7990.0 0.00067104
8010.0 0.00071602
8030.0 0.00072669
8050.0 0.00072933
8070.0 0.00071213
8090.0 0.00070683
8110.0 0.00067816
8130.0 0.00064066
8150.0 0.00060385
8170.0 0.00059722
8190.0 0.00061049
8210.0 0.00060914
8230.0 0.00061239
8250.0 0.00060452
8270.0 0.00053734
8290.0 0.00041586
8310.0 0.00029536
8330.0 0.00019954
8350.0 0.00014289
8370.0 0.00015914
8390.0 0.00017934
8410.0 0.0002259
8430.0 0.00027504
8450.0 0.00030106
8470.0 0.00031159
8490.0 0.00032764
8510.0 0.00034604
8530.0 0.00038956
8550.0 0.00043737
8570.0 0.00050845
8590.0 0.00060744
8610.0 0.00070552
8630.0 0.00082235
8650.0 0.00091476
8670.0 0.00090486
8690.0 0.00085657
8710.0 0.00081357
8730.0 0.00077291
8750.0 0.00074155
8770.0 0.00072261
8790.0 0.00069609
8810.0 0.00064532
8830.0 0.00059453
8850.0 0.00051754
8870.0 0.00045365
8890.0 0.00041021
8910.0 0.00042138
8930.0 0.00041106
8950.0 0.00043099
8970.0 0.00043931
8990.0 0.000453
9010.0 0.00047036
9030.0 0.00046893
9050.0 0.00046913
9070.0 0.00046966
9090.0 0.0004701
9110.0 0.00047022
9130.0 0.00047064
9150.0 0.00047134
9170.0 0.00047184
9190.0 0.00047207
9210.0 0.00047437
9230.0 0.00047487
9250.0 0.00047567
9270.0 0.00047655
9290.0 0.00047752
9310.0 0.00047862
9330.0 0.00047981
9350.0 0.00048103
9370.0 0.00048234
9390.0 0.00048374
9410.0 0.00048519
9430.0 0.00048667
9450.0 0.00048826
9470.0 0.00048991
9490.0 0.0004916
9510.0 0.00049335
9530.0 0.00049519
9550.0 0.00049704
9570.0 0.00049895
9590.0 0.00050094
9610.0 0.00050298
9630.0 0.00050504
9650.0 0.00050716
9670.0 0.00050937
9690.0 0.00051158
9710.0 0.00051384
9730.0 0.00051616
9750.0 0.00051852
9770.0 0.00052087
9790.0 0.0005233
9810.0 0.00052577
9830.0 0.00052825
9850.0 0.00053075
9870.0 0.00053332
9890.0 0.0005359
9910.0 0.00053847
9930.0 0.00054108
9950.0 0.00054362
9970.0 0.00054628
9990.0 0.00054894
10010.0 0.0005469
10030.0 0.00054955
10050.0 0.0005521
10070.0 0.00055429
10090.0 0.00055711
10110.0 0.00055985
10130.0 0.00056255
10150.0 0.00056526
10170.0 0.0005679
10190.0 0.00057044
10210.0 0.00057303
10230.0 0.00057562
10250.0 0.00057811
10270.0 0.00058058
10290.0 0.00058308
10310.0 0.00058549
10330.0 0.00058782
10350.0 0.00059018
10370.0 0.00059251
10390.0 0.00059473
10410.0 0.00059691
10430.0 0.00059912
10450.0 0.00060122
10470.0 0.00060322
10490.0 0.00060523
10510.0 0.00060718
10530.0 0.00060897
10550.0 0.00061075
10570.0 0.00061251
10590.0 0.00061415
10610.0 0.00061569
10630.0 0.00061723
10650.0 0.00061868
10670.0 0.00061997
10690.0 0.00062122
10710.0 0.00062243
10730.0 0.00062351
10750.0 0.00062444
10770.0 0.0006254
10790.0 0.00062625
10810.0 0.00062693
10830.0 0.00062754
10850.0 0.00062807
10870.0 0.00062826
10890.0 0.00062811
10910.0 0.0006275
10930.0 0.00062605
10950.0 0.0006232
10970.0 0.00061875
10990.0 0.00061259
11010.0 0.00060112
11030.0 0.00058962
11050.0 0.00057633
11070.0 0.00056094
11090.0 0.00054289
11110.0 0.00052466
11130.0 0.00050607
11150.0 0.00048659
11170.0 0.00046719
11190.0 0.00044912
11210.0 0.00043129
11230.0 0.00041398
11250.0 0.00039841
11270.0 0.00038434
11290.0 0.00037111
11310.0 0.00035938
11330.0 0.00034963
11350.0 0.00034083
11370.0 0.00033295
11390.0 0.00032616
11410.0 0.00032005
11430.0 0.00031398
11450.0 0.00030813
11470.0 0.00030235
11490.0 0.00029616
11510.0 0.00028934
11530.0 0.00028229
11550.0 0.0002748
11570.0 0.00026653
11590.0 0.00025792
11610.0 0.00024929
11630.0 0.0002402
11650.0 0.00023087
11670.0 0.0002221
11690.0 0.00021361
11710.0 0.00020528
11730.0 0.00019757
11750.0 0.0001907
11770.0 0.0001842
11790.0 0.00017827
11810.0 0.00017312
11830.0 0.00016849
11850.0 0.00016414
11870.0 0.0001603
11890.0 0.00015684
11910.0 0.00015346
11930.0 0.00015014
11950.0 0.00014693
11970.0 0.00014365
11990.0 0.00014014
12010.0 0.00013658
12030.0 0.00013298
12050.0 0.00012918
12070.0 0.00012527
12090.0 0.00012159
12110.0 0.00011796
12130.0 0.00011445
12150.0 0.0001113
12170.0 0.00010859
12190.0 0.00010622
12210.0 0.00010444
12230.0 0.00010331
12250.0 0.0001028
12270.0 0.00010297
12290.0 0.0001038
12310.0 0.00010518
12330.0 0.00010723
12350.0 0.0001098
12370.0 0.00011269
12390.0 0.00011595
12410.0 0.00011966
12430.0 0.00012326
12450.0 0.00012681
12470.0 0.00013039
12490.0 0.00013376
12510.0 0.00013667
12530.0 0.00013933
12550.0 0.00014162
12570.0 0.00014335
12590.0 0.00014456
12610.0 0.00014533
12630.0 0.00014555
12650.0 0.00014525
12670.0 0.00014451
12690.0 0.00014333
12710.0 0.00014178
12730.0 0.00013994
12750.0 0.00013773
12770.0 0.00013531
12790.0 0.00013277
12810.0 0.00013004
12830.0 0.00012712
12850.0 0.00012422
12870.0 0.00012125
12890.0 0.00011812
12910.0 0.00011497
12930.0 0.00011183
12950.0 0.00010854
12970.0 0.00010511
12990.0 0.00010178
13010.0 9.841e-05
13030.0 9.4918e-05
13050.0 9.1482e-05
13070.0 8.8198e-05
13090.0 8.4873e-05
13110.0 8.1643e-05
13130.0 7.8672e-05
13150.0 7.5897e-05
13170.0 7.3257e-05
13190.0 7.0993e-05
13210.0 6.9097e-05
13230.0 6.7487e-05
13250.0 6.6237e-05
13270.0 6.5383e-05
13290.0 6.4872e-05
13310.0 6.4718e-05
13330.0 6.4902e-05
13350.0 6.5368e-05
13370.0 6.6124e-05
13390.0 6.7137e-05
13410.0 6.8245e-05
13430.0 6.9499e-05
13450.0 7.0874e-05
13470.0 7.2242e-05
13490.0 7.3554e-05
13510.0 7.4913e-05
13530.0 7.6166e-05
13550.0 7.7256e-05
13570.0 7.8245e-05
13590.0 7.9128e-05
13610.0 7.9834e-05
13630.0 8.0381e-05
13650.0 8.0824e-05
13670.0 8.1126e-05
13690.0 8.1288e-05
13710.0 8.1343e-05
13730.0 8.1292e-05
13750.0 8.1128e-05
13770.0 8.0874e-05
13790.0 8.0526e-05
13810.0 8.0091e-05
13830.0 7.9586e-05
13850.0 7.8992e-05
13870.0 7.8307e-05
13890.0 7.7563e-05
13910.0 7.6755e-05
13930.0 7.5852e-05
13950.0 7.4892e-05
13970.0 7.3929e-05
13990.0 7.2909e-05
14010.0 7.1856e-05
14030.0 7.0834e-05
14050.0 6.9835e-05
14070.0 6.8824e-05
14090.0 6.7892e-05
14110.0 6.705e-05
14130.0 6.6274e-05
14150.0 6.5586e-05
14170.0 6.5032e-05
14190.0 6.4589e-05
14210.0 6.4259e-05
14230.0 6.4063e-05
14250.0 6.3993e-05
14270.0 6.4055e-05
14290.0 6.4255e-05
14310.0 6.4562e-05
14330.0 6.4981e-05
14350.0 6.552e-05
14370.0 6.614e-05
14390.0 6.6805e-05
14410.0 6.7562e-05
14430.0 6.837e-05
14450.0 6.9181e-05
14470.0 7.0018e-05
14490.0 7.0922e-05
14510.0 7.1812e-05
14530.0 7.2704e-05
14550.0 7.3671e-05
14570.0 7.4707e-05
14590.0 7.5779e-05
14610.0 7.6974e-05
14630.0 7.8355e-05
14650.0 7.9847e-05
14670.0 8.1476e-05
14690.0 8.3347e-05
14710.0 8.5441e-05
14730.0 8.7584e-05
14750.0 8.993e-05
14770.0 9.2479e-05
14790.0 9.5062e-05
14810.0 9.7637e-05
14830.0 0.00010039
14850.0 0.00010306
14870.0 0.00010553
14890.0 0.00010789
14910.0 0.00011011
14930.0 0.000112
14950.0 0.00011356
14970.0 0.00011488
14990.0 0.00011585
15010.0 0.00011649
15030.0 0.00011686
15050.0 0.00011701
15070.0 0.00011698
15090.0 0.00011684
15110.0 0.00011661
15130.0 0.00011634
15150.0 0.00011607
15170.0 0.00011577
15190.0 0.00011546
15210.0 0.00011517
15230.0 0.00011487
15250.0 0.00011457
15270.0 0.00011427
15290.0 0.00011398
15310.0 0.00011369
15330.0 0.0001134
15350.0 0.00011311
15370.0 0.00011283
15390.0 0.00011254
15410.0 0.00011225
15430.0 0.00011197
15450.0 0.00011169
15470.0 0.0001114
15490.0 0.00011113
15510.0 0.00011085
15530.0 0.00011057
15550.0 0.00011029
15570.0 0.00011002
15590.0 0.00010974
15610.0 0.00010945
15630.0 0.00010918
15650.0 0.00010891
15670.0 0.00010862
15690.0 0.00010835
15710.0 0.00010808
15730.0 0.0001078
15750.0 0.00010752
15770.0 0.00010725
15790.0 0.00010698
15810.0 0.00010669
15830.0 0.00010641
15850.0 0.00010614
15870.0 0.00010586
15890.0 0.00010558
15910.0 0.00010531
15930.0 0.00010503
15950.0 0.00010474
15970.0 0.00010446
15990.0 0.00010419
16010.0 0.0001039
16030.0 0.00010361
16050.0 0.00010334
16070.0 0.00010305
16090.0 0.00010276
16110.0 0.00010248
16130.0 0.0001022
16150.0 0.0001019
16170.0 0.0001016
16190.0 0.00010132
16210.0 0.00010103
16230.0 0.00010073
16250.0 0.00010043
16270.0 0.00010015
16290.0 9.9842e-05
16310.0 9.954e-05
16330.0 9.9248e-05
16350.0 9.8946e-05
16370.0 9.8627e-05
16390.0 9.8329e-05
16410.0 9.8028e-05
16430.0 9.7715e-05
16450.0 9.7403e-05
16470.0 9.7104e-05
16490.0 9.6788e-05
16510.0 9.6466e-05
16530.0 9.6155e-05
16550.0 9.5842e-05
16570.0 9.5514e-05
16590.0 9.5189e-05
16610.0 9.4878e-05
16630.0 9.4553e-05
16650.0 9.4222e-05
16670.0 9.3901e-05
16690.0 9.3579e-05
16710.0 9.3236e-05
16730.0 9.2903e-05
16750.0 9.2577e-05
16770.0 9.2239e-05
16790.0 9.1893e-05
16810.0 9.1562e-05
16830.0 9.1227e-05
16850.0 9.0878e-05
16870.0 9.0535e-05
16890.0 9.0199e-05
16910.0 8.9846e-05
16930.0 8.9487e-05
16950.0 8.9145e-05
16970.0 8.8797e-05
16990.0 8.8436e-05
17010.0 8.8083e-05
17030.0 8.7737e-05
17050.0 8.7373e-05
17070.0 8.7009e-05
17090.0 8.6654e-05
17110.0 8.6294e-05
17130.0 8.5917e-05
17150.0 8.5554e-05
17170.0 8.5195e-05
17190.0 8.4823e-05
17210.0 8.445e-05
17230.0 8.4089e-05
17250.0 8.3717e-05
17270.0 8.3333e-05
17290.0 8.296e-05
17310.0 8.259e-05
17330.0 8.2206e-05
17350.0 8.1819e-05
17370.0 8.145e-05
17390.0 8.107e-05
17410.0 8.0681e-05
17430.0 8.0301e-05
17450.0 7.9926e-05
17470.0 7.9527e-05
17490.0 7.9136e-05
17510.0 7.8756e-05
17530.0 7.8367e-05
17550.0 7.7969e-05
17570.0 7.7583e-05
17590.0 7.7199e-05
17610.0 7.6799e-05
17630.0 7.6403e-05
17650.0 7.6016e-05
17670.0 7.562e-05
17690.0 7.5209e-05
17710.0 7.4819e-05
17730.0 7.4427e-05
17750.0 7.4023e-05
17770.0 7.3622e-05
17790.0 7.3234e-05
17810.0 7.2829e-05
17830.0 7.2421e-05
17850.0 7.2024e-05
17870.0 7.1626e-05
17890.0 7.1214e-05
17910.0 7.0808e-05
17930.0 7.0415e-05
17950.0 7.001e-05
17970.0 6.96e-05
17990.0 6.9202e-05
18010.0 6.8803e-05
18030.0 6.8385e-05
18050.0 6.7979e-05
18070.0 6.7581e-05
18090.0 6.7172e-05
18110.0 6.6758e-05
18130.0 6.636e-05
18150.0 6.5958e-05
18170.0 6.5544e-05
18190.0 6.5139e-05
18210.0 6.4741e-05
18230.0 6.4328e-05
18250.0 6.3912e-05
18270.0 6.3513e-05
18290.0 6.3109e-05
18310.0 6.2696e-05
18330.0 6.2292e-05
18350.0 6.1896e-05
18370.0 6.1484e-05
18390.0 6.1073e-05
18410.0 6.0674e-05
18430.0 6.0271e-05
18450.0 5.9854e-05
18470.0 5.9452e-05
18490.0 5.9056e-05
18510.0 5.8648e-05
18530.0 5.8241e-05
18550.0 5.7848e-05
18570.0 5.7444e-05
18590.0 5.7032e-05
18610.0 5.6633e-05
18630.0 5.6237e-05
18650.0 5.583e-05
18670.0 5.5424e-05
18690.0 5.5035e-05
18710.0 5.4636e-05
18730.0 5.4231e-05
18750.0 5.3837e-05
18770.0 5.3448e-05
18790.0 5.3039e-05
18810.0 5.264e-05
18830.0 5.2252e-05
18850.0 5.1857e-05
18870.0 5.1455e-05
18890.0 5.1068e-05
18910.0 5.0682e-05
18930.0 5.0283e-05
18950.0 4.9891e-05
18970.0 4.9508e-05
18990.0 4.9117e-05
19010.0 4.8715e-05
19030.0 4.8334e-05
19050.0 4.7952e-05
19070.0 4.7561e-05
19090.0 4.7175e-05
19110.0 4.6802e-05
19130.0 4.6413e-05
19150.0 4.6023e-05
19170.0 4.5646e-05
19190.0 4.5269e-05
19210.0 4.488e-05
19230.0 4.4499e-05
19250.0 4.4131e-05
19270.0 4.3752e-05
19290.0 4.3372e-05
19310.0 4.3003e-05
19330.0 4.2633e-05
19350.0 4.2248e-05
19370.0 4.1877e-05
19390.0 4.1512e-05
19410.0 4.1138e-05
19430.0 4.0763e-05
19450.0 4.0403e-05
19470.0 4.0039e-05
19490.0 3.9667e-05
19510.0 3.9303e-05
19530.0 3.8947e-05
19550.0 3.8577e-05
19570.0 3.8207e-05
19590.0 3.7854e-05
19610.0 3.7496e-05
19630.0 3.7131e-05
19650.0 3.6776e-05
19670.0 3.6428e-05
19690.0 3.6066e-05
19710.0 3.5707e-05
19730.0 3.536e-05
19750.0 3.5008e-05
19770.0 3.4646e-05
19790.0 3.4299e-05
19810.0 3.3956e-05
19830.0 3.3603e-05
19850.0 3.3251e-05
19870.0 3.2908e-05
19890.0 3.255e-05
19910.0 3.2171e-05
19930.0 3.1787e-05
19950.0 3.1377e-05
19970.0 3.0913e-05
19990.0 3.04e-05
20010.0 3e-05
20030.0 2.9387e-05
20050.0 2.8717e-05
20070.0 2.8035e-05
20090.0 2.7343e-05
20110.0 2.6608e-05
20130.0 2.5907e-05
20150.0 2.5251e-05
20170.0 2.461e-05
20190.0 2.3998e-05
20210.0 2.345e-05
20230.0 2.2945e-05
20250.0 2.2467e-05
20270.0 2.2048e-05
20290.0 2.1687e-05
20310.0 2.1364e-05
20330.0 2.1086e-05
20350.0 2.0873e-05
20370.0 2.0706e-05
20390.0 2.0583e-05
20410.0 2.0512e-05
20430.0 2.0486e-05
20450.0 2.0506e-05
20470.0 2.0572e-05
20490.0 2.0677e-05
20510.0 2.082e-05
20530.0 2.1008e-05
20550.0 2.1226e-05
20570.0 2.1462e-05
20590.0 2.1734e-05
20610.0 2.2029e-05
20630.0 2.2329e-05
20650.0 2.2644e-05
20670.0 2.2985e-05
20690.0 2.3313e-05
20710.0 2.3635e-05
20730.0 2.3966e-05
20750.0 2.4293e-05
20770.0 2.4599e-05
20790.0 2.4905e-05
20810.0 2.5215e-05
20830.0 2.5512e-05
20850.0 2.5802e-05
20870.0 2.6107e-05
20890.0 2.6416e-05
20910.0 2.6714e-05
20930.0 2.7025e-05
20950.0 2.7353e-05
20970.0 2.7677e-05
20990.0 2.8001e-05
21010.0 2.8345e-05
21030.0 2.8685e-05
21050.0 2.9007e-05
21070.0 2.9328e-05
21090.0 2.9644e-05
21110.0 2.9924e-05
21130.0 3.0178e-05
21150.0 3.0413e-05
21170.0 3.0613e-05
21190.0 3.0772e-05
21210.0 3.0901e-05
21230.0 3.0992e-05
21250.0 3.1038e-05
21270.0 3.1046e-05
21290.0 3.1013e-05
21310.0 3.0938e-05
21330.0 3.0828e-05
21350.0 3.0676e-05
21370.0 3.0483e-05
21390.0 3.026e-05
21410.0 3.0005e-05
21430.0 2.9702e-05
21450.0 2.9377e-05
21470.0 2.9035e-05
21490.0 2.8662e-05
21510.0 2.8264e-05
21530.0 2.7868e-05
21550.0 2.7462e-05
21570.0 2.7037e-05
21590.0 2.6624e-05
21610.0 2.623e-05
21630.0 2.5839e-05
21650.0 2.546e-05
21670.0 2.5133e-05
21690.0 2.4832e-05
21710.0 2.4562e-05
21730.0 2.434e-05
21750.0 2.4169e-05
21770.0 2.4037e-05
21790.0 2.396e-05
21810.0 2.3936e-05
21830.0 2.3963e-05
21850.0 2.4046e-05
21870.0 2.4178e-05
21890.0 2.4351e-05
21910.0 2.4578e-05
21930.0 2.485e-05
21950.0 2.515e-05
21970.0 2.549e-05
21990.0 2.5881e-05
22010.0 2.6281e-05
22030.0 2.6698e-05
22050.0 2.7147e-05
22070.0 2.7611e-05
22090.0 2.806e-05
22110.0 2.8524e-05
22130.0 2.8997e-05
22150.0 2.9447e-05
22170.0 2.9877e-05
22190.0 3.0306e-05
22210.0 3.0706e-05
22230.0 3.1055e-05
22250.0 3.1377e-05
22270.0 3.1662e-05
22290.0 3.189e-05
22310.0 3.2068e-05
22330.0 3.2198e-05
22350.0 3.2264e-05
22370.0 3.2269e-05
22390.0 3.2213e-05
22410.0 3.2087e-05
22430.0 3.1903e-05
22450.0 3.1661e-05
22470.0 3.1347e-05
22490.0 3.0976e-05
22510.0 3.0565e-05
22530.0 3.0082e-05
22550.0 2.9539e-05
22570.0 2.8973e-05
22590.0 2.8369e-05
22610.0 2.7707e-05
22630.0 2.7022e-05
22650.0 2.6343e-05
22670.0 2.5618e-05
22690.0 2.4871e-05
22710.0 2.414e-05
