#lamb flux
1010.0 6.9622e-09
1030.0 7.6227e-09
1050.0 8.3824e-09
1070.0 9.2375e-09
1090.0 1.0209e-08
1110.0 1.1205e-08
1130.0 1.2208e-08
1150.0 1.3258e-08
1170.0 1.4342e-08
1190.0 1.5369e-08
1210.0 1.641e-08
1230.0 1.7486e-08
1250.0 1.854e-08
1270.0 1.9564e-08
1290.0 2.0646e-08
1310.0 2.1726e-08
1330.0 2.2763e-08
1350.0 2.3811e-08
1370.0 2.4893e-08
1390.0 2.5948e-08
1410.0 2.6972e-08
1430.0 2.8042e-08
1450.0 2.9112e-08
1470.0 3.0146e-08
1490.0 3.1191e-08
1510.0 3.2295e-08
1530.0 3.3341e-08
1550.0 3.4373e-08
1570.0 3.544e-08
1590.0 3.6508e-08
1610.0 3.7528e-08
1630.0 3.858e-08
1650.0 3.9659e-08
1670.0 4.0703e-08
1690.0 4.1733e-08
1710.0 4.2803e-08
1730.0 4.3878e-08
1750.0 4.4888e-08
1770.0 4.5928e-08
1790.0 4.6988e-08
1810.0 4.8012e-08
1830.0 4.9018e-08
1850.0 5.0085e-08
1870.0 5.1123e-08
1890.0 5.2123e-08
1910.0 5.3141e-08
1930.0 5.4182e-08
1950.0 5.5172e-08
1970.0 5.6146e-08
1990.0 5.7154e-08
2010.0 5.814e-08
2030.0 5.9084e-08
2050.0 6.0053e-08
2070.0 6.1041e-08
2090.0 6.1961e-08
2110.0 6.287e-08
2130.0 6.38e-08
2150.0 6.47e-08
2170.0 6.5546e-08
2190.0 6.6416e-08
2210.0 6.728e-08
2230.0 6.8089e-08
2250.0 6.888e-08
2270.0 6.9698e-08
2290.0 7.0469e-08
2310.0 7.1185e-08
2330.0 7.1921e-08
2350.0 7.2666e-08
2370.0 7.3391e-08
2390.0 7.4187e-08
2410.0 7.5173e-08
2430.0 7.6349e-08
2450.0 7.7814e-08
2470.0 7.9782e-08
2490.0 8.235e-08
2510.0 8.5312e-08
2530.0 8.8949e-08
2550.0 9.359e-08
2570.0 9.9423e-08
2590.0 1.0704e-07
2610.0 1.1849e-07
2630.0 1.3471e-07
2650.0 1.5567e-07
2670.0 1.8243e-07
2690.0 2.149e-07
2710.0 2.4896e-07
2730.0 2.8198e-07
2750.0 3.1389e-07
2770.0 3.4087e-07
2790.0 3.6143e-07
2810.0 3.7692e-07
2830.0 3.8819e-07
2850.0 3.9488e-07
2870.0 3.9896e-07
2890.0 4.0155e-07
2910.0 4.0304e-07
2930.0 4.0379e-07
2950.0 4.0439e-07
2970.0 4.0495e-07
2990.0 4.0538e-07
3010.0 1.2591e-05
3030.0 1.2604e-05
3050.0 1.2616e-05
3070.0 1.2618e-05
3090.0 1.2611e-05
3110.0 1.2582e-05
3130.0 1.2515e-05
3150.0 1.2397e-05
3170.0 1.2204e-05
3190.0 1.1938e-05
3210.0 1.162e-05
3230.0 1.1266e-05
3250.0 1.0904e-05
3270.0 1.0635e-05
3290.0 1.0445e-05
3310.0 1.0418e-05
3330.0 1.0514e-05
3350.0 1.0726e-05
3370.0 1.1052e-05
3390.0 1.1476e-05
3410.0 1.1946e-05
3430.0 1.248e-05
3450.0 1.3098e-05
3470.0 1.3778e-05
3490.0 1.4504e-05
3510.0 1.533e-05
3530.0 1.6225e-05
3550.0 1.7165e-05
3570.0 1.818e-05
3590.0 1.9299e-05
3610.0 2.0512e-05
3630.0 2.1713e-05
3650.0 2.2974e-05
3670.0 2.4112e-05
3690.0 2.4956e-05
3710.0 2.5396e-05
3730.0 2.5229e-05
3750.0 2.45e-05
3770.0 2.4909e-05
3790.0 2.4626e-05
3810.0 2.0909e-05
3830.0 2.0918e-05
3850.0 2.8022e-05
3870.0 2.8621e-05
3890.0 2.4072e-05
3910.0 2.2908e-05
3930.0 2.6202e-05
3950.0 2.9627e-05
3970.0 3.0769e-05
3990.0 2.2052e-05
4010.0 5.2663e-05
4030.0 5.763e-05
4050.0 6.5027e-05
4070.0 6.4423e-05
4090.0 5.9599e-05
4110.0 5.1115e-05
4130.0 5.5501e-05
4150.0 6.9334e-05
4170.0 5.8867e-05
4190.0 5.5979e-05
4210.0 6.012e-05
4230.0 7.014e-05
4250.0 8.4186e-05
4270.0 8.9426e-05
4290.0 7.969e-05
4310.0 7.673e-05
4330.0 7.7571e-05
4350.0 9.4625e-05
4370.0 0.00011283
4390.0 9.4641e-05
4410.0 5.8089e-05
4430.0 4.4383e-05
4450.0 4.1481e-05
4470.0 2.7309e-05
4490.0 3.9031e-05
4510.0 7.7163e-05
4530.0 9.2807e-05
4550.0 8.8134e-05
4570.0 8.463e-05
4590.0 9.2059e-05
4610.0 0.00016247
4630.0 0.00022426
4650.0 0.00022102
4670.0 0.00019708
4690.0 0.00019597
4710.0 0.00020515
4730.0 0.00017673
4750.0 0.00012074
4770.0 8.3888e-05
4790.0 8.7564e-05
4810.0 8.9771e-05
4830.0 8.6739e-05
4850.0 9.4209e-05
4870.0 0.0001247
4890.0 0.0001451
4910.0 0.00011737
4930.0 0.00011111
4950.0 0.00012632
4970.0 0.00016586
4990.0 0.0002244
5010.0 0.00025995
5030.0 0.00021436
5050.0 0.00013595
5070.0 9.4245e-05
5090.0 7.2369e-05
5110.0 6.9582e-05
5130.0 8.3011e-05
5150.0 8.3595e-05
5170.0 7.9714e-05
5190.0 7.1808e-05
5210.0 7.8797e-05
5230.0 9.29e-05
5250.0 0.00010592
5270.0 0.00010248
5290.0 0.00011116
5310.0 0.00014326
5330.0 0.00015593
5350.0 0.00015408
5370.0 0.00016943
5390.0 0.00020675
5410.0 0.00018545
5430.0 0.00014934
5450.0 0.00014627
5470.0 0.00016516
5490.0 0.00020474
5510.0 0.00025063
5530.0 0.00029002
5550.0 0.00026751
5570.0 0.00024113
5590.0 0.00020158
5610.0 0.00019853
5630.0 0.00021418
5650.0 0.00019847
5670.0 0.00018382
5690.0 0.00015278
5710.0 0.0001549
5730.0 0.00014819
5750.0 8.7451e-05
5770.0 6.3945e-05
5790.0 7.6936e-05
5810.0 8.2503e-05
5830.0 0.00011982
5850.0 0.000153
5870.0 0.00016644
5890.0 0.00016206
5910.0 0.00015829
5930.0 0.0001515
5950.0 0.0001556
5970.0 0.00018899
5990.0 0.00016135
6010.0 0.00012755
6030.0 0.00010532
6050.0 9.335e-05
6070.0 0.00010545
6090.0 0.00011714
6110.0 0.00012256
6130.0 0.0001166
6150.0 9.4223e-05
6170.0 7.5408e-05
6190.0 8.9064e-05
6210.0 0.00013406
6230.0 0.00019263
6250.0 0.00020856
6270.0 0.00016551
6290.0 0.00014115
6310.0 0.00010835
6330.0 8.0062e-05
6350.0 7.6529e-05
6370.0 8.0364e-05
6390.0 9.5021e-05
6410.0 0.00012168
6430.0 0.00014534
6450.0 0.00017506
6470.0 0.00018831
6490.0 0.0002257
6510.0 0.00025288
6530.0 0.00025623
6550.0 0.00023473
6570.0 0.00018996
6590.0 0.00017777
6610.0 0.00014866
6630.0 0.00014958
6650.0 0.00014477
6670.0 0.00012913
6690.0 0.00010339
6710.0 9.9319e-05
6730.0 4.913e-05
6750.0 6.0897e-05
6770.0 8.8418e-05
6790.0 0.00011385
6810.0 8.5014e-05
6830.0 8.6945e-05
6850.0 7.4148e-05
6870.0 6.8817e-05
6890.0 5.9905e-05
6910.0 7.094e-05
6930.0 6.6758e-05
6950.0 7.7205e-05
6970.0 8.0646e-05
6990.0 8.9983e-05
7010.0 8.7413e-05
7030.0 9.8074e-05
7050.0 8.6733e-05
7070.0 7.4361e-05
7090.0 7.8764e-05
7110.0 8.3342e-05
7130.0 9.4716e-05
7150.0 0.00010584
7170.0 0.0001184
7190.0 0.00012757
7210.0 0.00011623
7230.0 0.00011815
7250.0 0.00012644
7270.0 0.00013575
7290.0 0.00016633
7310.0 0.0001775
7330.0 0.00016782
7350.0 0.00015074
7370.0 0.00011615
7390.0 0.00011771
7410.0 0.0001393
7430.0 0.00015799
7450.0 0.00017067
7470.0 0.00015852
7490.0 0.00012938
7510.0 0.00019301
7530.0 0.00017937
7550.0 0.00016812
7570.0 0.00011782
7590.0 5.8703e-05
7610.0 4.4156e-05
7630.0 6.1241e-05
7650.0 7.9563e-05
7670.0 0.00011952
7690.0 0.00013261
7710.0 0.00012383
7730.0 0.00012487
7750.0 0.00015821
7770.0 0.00016232
7790.0 0.00014841
7810.0 0.00012311
7830.0 0.00013206
7850.0 0.00014112
7870.0 0.00013615
7890.0 0.00010792
7910.0 7.5827e-05
7930.0 7.7248e-05
7950.0 6.9977e-05
7970.0 6.0265e-05
7990.0 5.5843e-05
8010.0 2.1403e-05
8030.0 1.9395e-05
8050.0 2.1097e-05
8070.0 2.4201e-05
8090.0 3.0087e-05
8110.0 2.8297e-05
8130.0 1.6156e-05
8150.0 1.7063e-05
8170.0 8.8763e-06
8190.0 4.7577e-06
8210.0 1.5202e-05
8230.0 1.8624e-05
8250.0 6.3543e-06
8270.0 4.789e-06
8290.0 1.1007e-05
8310.0 1.0002e-05
8330.0 6.1241e-06
8350.0 4.928e-06
8370.0 8.5588e-07
8390.0 5.2662e-06
8410.0 6.0125e-06
8430.0 7.4555e-06
8450.0 8.4218e-06
8470.0 1.4626e-05
8490.0 1.1809e-05
8510.0 8.8717e-06
8530.0 4.014e-06
8550.0 1.6393e-05
8570.0 2.5741e-05
8590.0 1.7352e-05
8610.0 2.6561e-05
8630.0 2.8842e-05
8650.0 1.4633e-05
8670.0 2.2528e-05
8690.0 3.6055e-05
8710.0 3.0671e-05
8730.0 3.3176e-05
8750.0 2.5761e-05
8770.0 2.2743e-05
8790.0 2.5407e-05
8810.0 2.7803e-05
8830.0 1.4913e-05
8850.0 5.7262e-06
8870.0 3.881e-06
8890.0 1.1443e-05
8910.0 1.869e-05
8930.0 2.5096e-05
8950.0 2.7826e-05
8970.0 2.6684e-05
8990.0 1.9497e-05
9010.0 2.4976e-05
9030.0 1.936e-05
9050.0 1.9965e-05
9070.0 2.0625e-05
9090.0 2.1168e-05
9110.0 2.1832e-05
9130.0 2.2313e-05
9150.0 2.2656e-05
9170.0 2.3021e-05
9190.0 2.3411e-05
9210.0 2.3821e-05
9230.0 2.4255e-05
9250.0 2.4692e-05
9270.0 2.5143e-05
9290.0 2.5606e-05
9310.0 2.6067e-05
9330.0 2.6534e-05
9350.0 2.7018e-05
9370.0 2.7503e-05
9390.0 2.7989e-05
9410.0 2.8488e-05
9430.0 2.9001e-05
9450.0 2.9507e-05
9470.0 3.0021e-05
9490.0 3.055e-05
9510.0 3.1082e-05
9530.0 3.1614e-05
9550.0 3.2165e-05
9570.0 3.2724e-05
9590.0 3.3281e-05
9610.0 3.3846e-05
9630.0 3.4427e-05
9650.0 3.5011e-05
9670.0 3.5593e-05
9690.0 3.6192e-05
9710.0 3.6799e-05
9730.0 3.7405e-05
9750.0 3.8019e-05
9770.0 3.8654e-05
9790.0 3.9284e-05
9810.0 3.9917e-05
9830.0 4.0564e-05
9850.0 4.1219e-05
9870.0 4.1869e-05
9890.0 4.253e-05
9910.0 4.3205e-05
9930.0 4.3878e-05
9950.0 4.4553e-05
9970.0 4.5244e-05
9990.0 4.5941e-05
10010.0 4.0566e-05
10030.0 4.1173e-05
10050.0 4.1789e-05
10070.0 4.2401e-05
10090.0 4.3014e-05
10110.0 4.3642e-05
10130.0 4.427e-05
10150.0 4.4892e-05
10170.0 4.5521e-05
10190.0 4.6159e-05
10210.0 4.6789e-05
10230.0 4.7416e-05
10250.0 4.8054e-05
10270.0 4.8691e-05
10290.0 4.9319e-05
10310.0 4.9954e-05
10330.0 5.0597e-05
10350.0 5.1228e-05
10370.0 5.1856e-05
10390.0 5.2491e-05
10410.0 5.3123e-05
10430.0 5.3741e-05
10450.0 5.4366e-05
10470.0 5.4992e-05
10490.0 5.5605e-05
10510.0 5.6214e-05
10530.0 5.6833e-05
10550.0 5.7441e-05
10570.0 5.8034e-05
10590.0 5.863e-05
10610.0 5.9225e-05
10630.0 5.9802e-05
10650.0 6.0375e-05
10670.0 6.0953e-05
10690.0 6.1518e-05
10710.0 6.2069e-05
10730.0 6.262e-05
10750.0 6.3171e-05
10770.0 6.3697e-05
10790.0 6.4217e-05
10810.0 6.4737e-05
10830.0 6.5238e-05
10850.0 6.5715e-05
10870.0 6.6182e-05
10890.0 6.6604e-05
10910.0 6.6948e-05
10930.0 6.7189e-05
10950.0 6.7268e-05
10970.0 6.713e-05
10990.0 6.6752e-05
11010.0 6.4503e-05
11030.0 6.3509e-05
11050.0 6.2269e-05
11070.0 6.0768e-05
11090.0 5.8955e-05
11110.0 5.7074e-05
11130.0 5.5112e-05
11150.0 5.3006e-05
11170.0 5.0843e-05
11190.0 4.8752e-05
11210.0 4.6604e-05
11230.0 4.4412e-05
11250.0 4.2326e-05
11270.0 4.033e-05
11290.0 3.8337e-05
11310.0 3.6453e-05
11330.0 3.4792e-05
11350.0 3.3221e-05
11370.0 3.1764e-05
11390.0 3.0495e-05
11410.0 2.9374e-05
11430.0 2.8321e-05
11450.0 2.74e-05
11470.0 2.6589e-05
11490.0 2.5824e-05
11510.0 2.5079e-05
11530.0 2.4382e-05
11550.0 2.3687e-05
11570.0 2.2952e-05
11590.0 2.2197e-05
11610.0 2.1433e-05
11630.0 2.0613e-05
11650.0 1.9744e-05
11670.0 1.8893e-05
11690.0 1.8034e-05
11710.0 1.7154e-05
11730.0 1.6303e-05
11750.0 1.5513e-05
11770.0 1.4739e-05
11790.0 1.401e-05
11810.0 1.3364e-05
11830.0 1.278e-05
11850.0 1.2236e-05
11870.0 1.1774e-05
11890.0 1.138e-05
11910.0 1.1028e-05
11930.0 1.0718e-05
11950.0 1.0452e-05
11970.0 1.0211e-05
11990.0 9.9805e-06
12010.0 9.766e-06
12030.0 9.5596e-06
12050.0 9.3492e-06
12070.0 9.1334e-06
12090.0 8.9258e-06
12110.0 8.7161e-06
12130.0 8.5057e-06
12150.0 8.3082e-06
12170.0 8.1295e-06
12190.0 7.9659e-06
12210.0 7.8347e-06
12230.0 7.743e-06
12250.0 7.6924e-06
12270.0 7.692e-06
12290.0 7.7428e-06
12310.0 7.841e-06
12330.0 7.999e-06
12350.0 8.2099e-06
12370.0 8.4586e-06
12390.0 8.7529e-06
12410.0 9.1054e-06
12430.0 9.4655e-06
12450.0 9.8403e-06
12470.0 1.0241e-05
12490.0 1.0644e-05
12510.0 1.102e-05
12530.0 1.1393e-05
12550.0 1.1752e-05
12570.0 1.2066e-05
12590.0 1.2337e-05
12610.0 1.2576e-05
12630.0 1.2761e-05
12650.0 1.2879e-05
12670.0 1.2948e-05
12690.0 1.296e-05
12710.0 1.2912e-05
12730.0 1.2811e-05
12750.0 1.2652e-05
12770.0 1.2445e-05
12790.0 1.22e-05
12810.0 1.1913e-05
12830.0 1.1586e-05
12850.0 1.1246e-05
12870.0 1.0889e-05
12890.0 1.0507e-05
12910.0 1.0121e-05
12930.0 9.7421e-06
12950.0 9.3496e-06
12970.0 8.9525e-06
12990.0 8.5775e-06
13010.0 8.2084e-06
13030.0 7.8368e-06
13050.0 7.4801e-06
13070.0 7.1456e-06
13090.0 6.8103e-06
13110.0 6.4854e-06
13130.0 6.1846e-06
13150.0 5.8985e-06
13170.0 5.6172e-06
13190.0 5.3644e-06
13210.0 5.1392e-06
13230.0 4.9307e-06
13250.0 4.7474e-06
13270.0 4.598e-06
13290.0 4.4761e-06
13310.0 4.3838e-06
13330.0 4.3287e-06
13350.0 4.3084e-06
13370.0 4.3241e-06
13390.0 4.3786e-06
13410.0 4.4626e-06
13430.0 4.5795e-06
13450.0 4.7304e-06
13470.0 4.9026e-06
13490.0 5.0887e-06
13510.0 5.3032e-06
13530.0 5.5241e-06
13550.0 5.7385e-06
13570.0 5.953e-06
13590.0 6.1652e-06
13610.0 6.3565e-06
13630.0 6.5258e-06
13650.0 6.683e-06
13670.0 6.816e-06
13690.0 6.9209e-06
13710.0 7.0044e-06
13730.0 7.0671e-06
13750.0 7.1017e-06
13770.0 7.115e-06
13790.0 7.1083e-06
13810.0 7.0813e-06
13830.0 7.0376e-06
13850.0 6.9764e-06
13870.0 6.8976e-06
13890.0 6.8064e-06
13910.0 6.7031e-06
13930.0 6.5833e-06
13950.0 6.4524e-06
13970.0 6.3186e-06
13990.0 6.1732e-06
14010.0 6.0191e-06
14030.0 5.8656e-06
14050.0 5.7112e-06
14070.0 5.5487e-06
14090.0 5.393e-06
14110.0 5.2467e-06
14130.0 5.1048e-06
14150.0 4.9709e-06
14170.0 4.8561e-06
14190.0 4.7561e-06
14210.0 4.6704e-06
14230.0 4.6056e-06
14250.0 4.5621e-06
14270.0 4.5385e-06
14290.0 4.5379e-06
14310.0 4.5586e-06
14330.0 4.5996e-06
14350.0 4.6622e-06
14370.0 4.7422e-06
14390.0 4.8345e-06
14410.0 4.9448e-06
14430.0 5.0675e-06
14450.0 5.1944e-06
14470.0 5.3276e-06
14490.0 5.471e-06
14510.0 5.6098e-06
14530.0 5.7434e-06
14550.0 5.8783e-06
14570.0 6.0092e-06
14590.0 6.1298e-06
14610.0 6.2474e-06
14630.0 6.3644e-06
14650.0 6.474e-06
14670.0 6.5801e-06
14690.0 6.6904e-06
14710.0 6.8059e-06
14730.0 6.9211e-06
14750.0 7.0481e-06
14770.0 7.1912e-06
14790.0 7.3461e-06
14810.0 7.5136e-06
14830.0 7.7115e-06
14850.0 7.9266e-06
14870.0 8.1513e-06
14890.0 8.3939e-06
14910.0 8.6517e-06
14930.0 8.9006e-06
14950.0 9.1343e-06
14970.0 9.3565e-06
14990.0 9.5447e-06
15010.0 9.6911e-06
15030.0 9.8022e-06
15050.0 9.8793e-06
15070.0 9.9221e-06
15090.0 9.9437e-06
15110.0 9.9507e-06
15130.0 9.9482e-06
15150.0 9.9415e-06
15170.0 9.9317e-06
15190.0 9.9205e-06
15210.0 9.9097e-06
15230.0 9.899e-06
15250.0 9.8876e-06
15270.0 9.8765e-06
15290.0 9.8666e-06
15310.0 9.8563e-06
15330.0 9.8457e-06
15350.0 9.836e-06
15370.0 9.8266e-06
15390.0 9.8161e-06
15410.0 9.8063e-06
15430.0 9.7973e-06
15450.0 9.7878e-06
15470.0 9.7779e-06
15490.0 9.7692e-06
15510.0 9.7605e-06
15530.0 9.7511e-06
15550.0 9.7422e-06
15570.0 9.734e-06
15590.0 9.7249e-06
15610.0 9.7155e-06
15630.0 9.7073e-06
15650.0 9.6989e-06
15670.0 9.6899e-06
15690.0 9.6814e-06
15710.0 9.6736e-06
15730.0 9.6648e-06
15750.0 9.6559e-06
15770.0 9.6479e-06
15790.0 9.6396e-06
15810.0 9.6302e-06
15830.0 9.6218e-06
15850.0 9.6138e-06
15870.0 9.6051e-06
15890.0 9.5962e-06
15910.0 9.5882e-06
15930.0 9.5796e-06
15950.0 9.5702e-06
15970.0 9.5615e-06
15990.0 9.5531e-06
16010.0 9.5438e-06
16030.0 9.5343e-06
16050.0 9.5259e-06
16070.0 9.5169e-06
16090.0 9.5072e-06
16110.0 9.4981e-06
16130.0 9.4893e-06
16150.0 9.479e-06
16170.0 9.469e-06
16190.0 9.4597e-06
16210.0 9.4499e-06
16230.0 9.4392e-06
16250.0 9.4294e-06
16270.0 9.4197e-06
16290.0 9.4088e-06
16310.0 9.3981e-06
16330.0 9.3879e-06
16350.0 9.377e-06
16370.0 9.3649e-06
16390.0 9.3542e-06
16410.0 9.3433e-06
16430.0 9.3314e-06
16450.0 9.3196e-06
16470.0 9.3085e-06
16490.0 9.2963e-06
16510.0 9.2835e-06
16530.0 9.2714e-06
16550.0 9.2592e-06
16570.0 9.2457e-06
16590.0 9.2324e-06
16610.0 9.2201e-06
16630.0 9.2067e-06
16650.0 9.1927e-06
16670.0 9.1794e-06
16690.0 9.1659e-06
16710.0 9.1509e-06
16730.0 9.1364e-06
16750.0 9.1224e-06
16770.0 9.1074e-06
16790.0 9.0918e-06
16810.0 9.0772e-06
16830.0 9.0621e-06
16850.0 9.046e-06
16870.0 9.0301e-06
16890.0 9.0147e-06
16910.0 8.998e-06
16930.0 8.9807e-06
16950.0 8.9645e-06
16970.0 8.9478e-06
16990.0 8.9301e-06
17010.0 8.9128e-06
17030.0 8.8959e-06
17050.0 8.8776e-06
17070.0 8.8592e-06
17090.0 8.8413e-06
17110.0 8.823e-06
17130.0 8.8033e-06
17150.0 8.7844e-06
17170.0 8.7659e-06
17190.0 8.7462e-06
17210.0 8.7263e-06
17230.0 8.7071e-06
17250.0 8.6871e-06
17270.0 8.666e-06
17290.0 8.6457e-06
17310.0 8.6254e-06
17330.0 8.604e-06
17350.0 8.5823e-06
17370.0 8.5617e-06
17390.0 8.5402e-06
17410.0 8.5179e-06
17430.0 8.4962e-06
17450.0 8.4747e-06
17470.0 8.4513e-06
17490.0 8.4283e-06
17510.0 8.4061e-06
17530.0 8.383e-06
17550.0 8.3592e-06
17570.0 8.3361e-06
17590.0 8.3131e-06
17610.0 8.2887e-06
17630.0 8.2645e-06
17650.0 8.2409e-06
17670.0 8.2165e-06
17690.0 8.1907e-06
17710.0 8.1665e-06
17730.0 8.142e-06
17750.0 8.1164e-06
17770.0 8.091e-06
17790.0 8.0665e-06
17810.0 8.0405e-06
17830.0 8.0141e-06
17850.0 7.9884e-06
17870.0 7.9626e-06
17890.0 7.9356e-06
17910.0 7.9089e-06
17930.0 7.8831e-06
17950.0 7.8562e-06
17970.0 7.8289e-06
17990.0 7.8023e-06
18010.0 7.7756e-06
18030.0 7.7472e-06
18050.0 7.7197e-06
18070.0 7.6926e-06
18090.0 7.6646e-06
18110.0 7.6362e-06
18130.0 7.6088e-06
18150.0 7.581e-06
18170.0 7.5522e-06
18190.0 7.5239e-06
18210.0 7.4961e-06
18230.0 7.467e-06
18250.0 7.4375e-06
18270.0 7.4094e-06
18290.0 7.3806e-06
18310.0 7.3511e-06
18330.0 7.3221e-06
18350.0 7.2937e-06
18370.0 7.2639e-06
18390.0 7.2342e-06
18410.0 7.2052e-06
18430.0 7.1758e-06
18450.0 7.1452e-06
18470.0 7.1157e-06
18490.0 7.0866e-06
18510.0 7.0564e-06
18530.0 7.0262e-06
18550.0 6.997e-06
18570.0 6.9669e-06
18590.0 6.936e-06
18610.0 6.9061e-06
18630.0 6.8763e-06
18650.0 6.8456e-06
18670.0 6.8148e-06
18690.0 6.7853e-06
18710.0 6.7549e-06
18730.0 6.724e-06
18750.0 6.6938e-06
18770.0 6.6639e-06
18790.0 6.6324e-06
18810.0 6.6016e-06
18830.0 6.5716e-06
18850.0 6.5409e-06
18870.0 6.5096e-06
18890.0 6.4794e-06
18910.0 6.4493e-06
18930.0 6.418e-06
18950.0 6.3872e-06
18970.0 6.357e-06
18990.0 6.3262e-06
19010.0 6.2943e-06
19030.0 6.2642e-06
19050.0 6.2338e-06
19070.0 6.2026e-06
19090.0 6.1718e-06
19110.0 6.1419e-06
19130.0 6.1107e-06
19150.0 6.0795e-06
19170.0 6.0491e-06
19190.0 6.0187e-06
19210.0 5.9873e-06
19230.0 5.9564e-06
19250.0 5.9266e-06
19270.0 5.8957e-06
19290.0 5.8647e-06
19310.0 5.8347e-06
19330.0 5.8044e-06
19350.0 5.7729e-06
19370.0 5.7424e-06
19390.0 5.7125e-06
19410.0 5.6817e-06
19430.0 5.6508e-06
19450.0 5.6211e-06
19470.0 5.5909e-06
19490.0 5.5601e-06
19510.0 5.5299e-06
19530.0 5.5003e-06
19550.0 5.4695e-06
19570.0 5.4387e-06
19590.0 5.4092e-06
19610.0 5.3793e-06
19630.0 5.3487e-06
19650.0 5.319e-06
19670.0 5.2897e-06
19690.0 5.2593e-06
19710.0 5.2292e-06
19730.0 5.1999e-06
19750.0 5.1702e-06
19770.0 5.1396e-06
19790.0 5.1103e-06
19810.0 5.0812e-06
19830.0 5.0513e-06
19850.0 5.0213e-06
19870.0 4.9918e-06
19890.0 4.9607e-06
19910.0 4.9271e-06
19930.0 4.8918e-06
19950.0 4.8524e-06
19970.0 4.8054e-06
19990.0 4.7503e-06
20010.0 4.3193e-06
20030.0 4.2518e-06
20050.0 4.1741e-06
20070.0 4.0908e-06
20090.0 4.0019e-06
20110.0 3.9023e-06
20130.0 3.8021e-06
20150.0 3.7033e-06
20170.0 3.6013e-06
20190.0 3.4984e-06
20210.0 3.4014e-06
20230.0 3.3071e-06
20250.0 3.2127e-06
20270.0 3.1252e-06
20290.0 3.0451e-06
20310.0 2.9689e-06
20330.0 2.8975e-06
20350.0 2.8378e-06
20370.0 2.7843e-06
20390.0 2.7369e-06
20410.0 2.698e-06
20430.0 2.6672e-06
20450.0 2.642e-06
20470.0 2.624e-06
20490.0 2.6129e-06
20510.0 2.6076e-06
20530.0 2.6078e-06
20550.0 2.6131e-06
20570.0 2.6224e-06
20590.0 2.6361e-06
20610.0 2.6535e-06
20630.0 2.6731e-06
20650.0 2.6956e-06
20670.0 2.7219e-06
20690.0 2.7488e-06
20710.0 2.7769e-06
20730.0 2.8073e-06
20750.0 2.8392e-06
20770.0 2.8704e-06
20790.0 2.9031e-06
20810.0 2.9376e-06
20830.0 2.9716e-06
20850.0 3.0056e-06
20870.0 3.0418e-06
20890.0 3.0784e-06
20910.0 3.1134e-06
20930.0 3.1495e-06
20950.0 3.1868e-06
20970.0 3.2228e-06
20990.0 3.2582e-06
21010.0 3.2953e-06
21030.0 3.3314e-06
21050.0 3.3656e-06
21070.0 3.3997e-06
21090.0 3.4338e-06
21110.0 3.4647e-06
21130.0 3.4936e-06
21150.0 3.5217e-06
21170.0 3.5469e-06
21190.0 3.5684e-06
21210.0 3.5878e-06
21230.0 3.6038e-06
21250.0 3.615e-06
21270.0 3.6219e-06
21290.0 3.624e-06
21310.0 3.6206e-06
21330.0 3.6118e-06
21350.0 3.5968e-06
21370.0 3.5752e-06
21390.0 3.5477e-06
21410.0 3.5142e-06
21430.0 3.4719e-06
21450.0 3.4244e-06
21470.0 3.3725e-06
21490.0 3.3138e-06
21510.0 3.2494e-06
21530.0 3.1838e-06
21550.0 3.115e-06
21570.0 3.0416e-06
21590.0 2.9692e-06
21610.0 2.8991e-06
21630.0 2.8287e-06
21650.0 2.7598e-06
21670.0 2.6997e-06
21690.0 2.644e-06
21710.0 2.5935e-06
21730.0 2.5516e-06
21750.0 2.5186e-06
21770.0 2.4927e-06
21790.0 2.4766e-06
21810.0 2.4699e-06
21830.0 2.4721e-06
21850.0 2.4838e-06
21870.0 2.5037e-06
21890.0 2.5303e-06
21910.0 2.5653e-06
21930.0 2.607e-06
21950.0 2.6525e-06
21970.0 2.7032e-06
21990.0 2.7607e-06
22010.0 2.8183e-06
22030.0 2.877e-06
22050.0 2.939e-06
22070.0 3.0016e-06
22090.0 3.061e-06
22110.0 3.1211e-06
22130.0 3.1813e-06
22150.0 3.2377e-06
22170.0 3.291e-06
22190.0 3.344e-06
22210.0 3.3934e-06
22230.0 3.4369e-06
22250.0 3.4779e-06
22270.0 3.5156e-06
22290.0 3.5479e-06
22310.0 3.5754e-06
22330.0 3.5997e-06
22350.0 3.6183e-06
22370.0 3.6313e-06
22390.0 3.6392e-06
22410.0 3.6413e-06
22430.0 3.6373e-06
22450.0 3.6275e-06
22470.0 3.611e-06
22490.0 3.588e-06
22510.0 3.5596e-06
22530.0 3.5235e-06
22550.0 3.4797e-06
22570.0 3.4312e-06
22590.0 3.3766e-06
22610.0 3.3139e-06
