#lamb flux
1010.0 7.044e-08
1030.0 7.7076e-08
1050.0 8.471e-08
1070.0 9.3303e-08
1090.0 1.0306e-07
1110.0 1.1307e-07
1130.0 1.2315e-07
1150.0 1.337e-07
1170.0 1.4459e-07
1190.0 1.5491e-07
1210.0 1.6538e-07
1230.0 1.7619e-07
1250.0 1.8678e-07
1270.0 1.9707e-07
1290.0 2.0793e-07
1310.0 2.188e-07
1330.0 2.2921e-07
1350.0 2.3974e-07
1370.0 2.5062e-07
1390.0 2.6122e-07
1410.0 2.715e-07
1430.0 2.8225e-07
1450.0 2.93e-07
1470.0 3.0339e-07
1490.0 3.1389e-07
1510.0 3.2498e-07
1530.0 3.3549e-07
1550.0 3.4585e-07
1570.0 3.5656e-07
1590.0 3.6729e-07
1610.0 3.7753e-07
1630.0 3.8809e-07
1650.0 3.9892e-07
1670.0 4.0939e-07
1690.0 4.1972e-07
1710.0 4.3045e-07
1730.0 4.4122e-07
1750.0 4.5134e-07
1770.0 4.6174e-07
1790.0 4.7234e-07
1810.0 4.8259e-07
1830.0 4.9262e-07
1850.0 5.0327e-07
1870.0 5.136e-07
1890.0 5.2355e-07
1910.0 5.3366e-07
1930.0 5.4398e-07
1950.0 5.5377e-07
1970.0 5.6338e-07
1990.0 5.733e-07
2010.0 5.8298e-07
2030.0 5.9221e-07
2050.0 6.0165e-07
2070.0 6.1125e-07
2090.0 6.2013e-07
2110.0 6.2886e-07
2130.0 6.3776e-07
2150.0 6.4631e-07
2170.0 6.5426e-07
2190.0 6.6241e-07
2210.0 6.7043e-07
2230.0 6.7786e-07
2250.0 6.8503e-07
2270.0 6.9241e-07
2290.0 6.9925e-07
2310.0 7.0547e-07
2330.0 7.1181e-07
2350.0 7.1817e-07
2370.0 7.2423e-07
2390.0 7.3089e-07
2410.0 7.393e-07
2430.0 7.4943e-07
2450.0 7.6221e-07
2470.0 7.7972e-07
2490.0 8.0287e-07
2510.0 8.297e-07
2530.0 8.6297e-07
2550.0 9.0592e-07
2570.0 9.6044e-07
2590.0 1.0322e-06
2610.0 1.1406e-06
2630.0 1.2943e-06
2650.0 1.4921e-06
2670.0 1.7434e-06
2690.0 2.0465e-06
2710.0 2.3618e-06
2730.0 2.6648e-06
2750.0 2.9547e-06
2770.0 3.1963e-06
2790.0 3.3765e-06
2810.0 3.5087e-06
2830.0 3.601e-06
2850.0 3.6508e-06
2870.0 3.6765e-06
2890.0 3.6885e-06
2910.0 3.6906e-06
2930.0 3.686e-06
2950.0 3.6803e-06
2970.0 3.6744e-06
2990.0 3.6676e-06
3010.0 0.00011652
3030.0 0.00011632
3050.0 0.00011613
3070.0 0.00011585
3090.0 0.00011551
3110.0 0.00011498
3130.0 0.0001141
3150.0 0.00011278
3170.0 0.00011079
3190.0 0.00010816
3210.0 0.00010508
3230.0 0.00010168
3250.0 9.8197e-05
3270.0 9.5591e-05
3290.0 9.3649e-05
3310.0 9.3259e-05
3330.0 9.3952e-05
3350.0 9.5685e-05
3370.0 9.8446e-05
3390.0 0.0001021
3410.0 0.00010617
3430.0 0.00011081
3450.0 0.00011621
3470.0 0.00012217
3490.0 0.00012855
3510.0 0.00013583
3530.0 0.00014376
3550.0 0.00015219
3570.0 0.00016142
3590.0 0.00017167
3610.0 0.00018297
3630.0 0.00019416
3650.0 0.00020597
3670.0 0.00021661
3690.0 0.00022449
3710.0 0.00022849
3730.0 0.0002264
3750.0 0.00021852
3770.0 0.00022343
3790.0 0.00021984
3810.0 0.00017649
3830.0 0.00017328
3850.0 0.00024722
3870.0 0.00024649
3890.0 0.00019433
3910.0 0.00018399
3930.0 0.00022292
3950.0 0.00026173
3970.0 0.00028594
3990.0 0.00019641
4010.0 0.00041571
4030.0 0.00042724
4050.0 0.00047058
4070.0 0.00050068
4090.0 0.00046868
4110.0 0.00040326
4130.0 0.00047074
4150.0 0.00061697
4170.0 0.00050038
4190.0 0.00045484
4210.0 0.00050369
4230.0 0.00060944
4250.0 0.00073205
4270.0 0.00078927
4290.0 0.0006993
4310.0 0.0006562
4330.0 0.00065323
4350.0 0.00082152
4370.0 0.00099321
4390.0 0.00080354
4410.0 0.00046098
4430.0 0.00033541
4450.0 0.00031475
4470.0 0.00019486
4490.0 0.00031994
4510.0 0.00068123
4530.0 0.00082815
4550.0 0.00077804
4570.0 0.00071111
4590.0 0.00076282
4610.0 0.0014634
4630.0 0.0020478
4650.0 0.0019624
4670.0 0.0017313
4690.0 0.0017521
4710.0 0.001832
4730.0 0.0015271
4750.0 0.0010069
4770.0 0.00068952
4790.0 0.00075159
4810.0 0.00078684
4830.0 0.00077295
4850.0 0.0008385
4870.0 0.0011106
4890.0 0.0012881
4910.0 0.0010132
4930.0 0.00097775
4950.0 0.0011228
4970.0 0.0014882
4990.0 0.0020113
5010.0 0.0023292
5030.0 0.0018788
5050.0 0.0011623
5070.0 0.00081978
5090.0 0.00062306
5110.0 0.00058636
5130.0 0.00070487
5150.0 0.00069012
5170.0 0.00065046
5190.0 0.00057899
5210.0 0.00064447
5230.0 0.00079154
5250.0 0.00091889
5270.0 0.00085879
5290.0 0.00092665
5310.0 0.0012348
5330.0 0.0013317
5350.0 0.0013134
5370.0 0.001468
5390.0 0.0018229
5410.0 0.0015798
5430.0 0.0012273
5450.0 0.0012295
5470.0 0.0014198
5490.0 0.0017726
5510.0 0.0021602
5530.0 0.0025054
5550.0 0.0022746
5570.0 0.0020426
5590.0 0.0016847
5610.0 0.0016978
5630.0 0.0018911
5650.0 0.0017436
5670.0 0.0016058
5690.0 0.001305
5710.0 0.0013389
5730.0 0.0012971
5750.0 0.00071753
5770.0 0.00051393
5790.0 0.00063378
5810.0 0.00066948
5830.0 0.001031
5850.0 0.0013426
5870.0 0.0014477
5890.0 0.0013875
5910.0 0.0013516
5930.0 0.0012986
5950.0 0.0013386
5970.0 0.0016564
5990.0 0.001372
6010.0 0.0010617
6030.0 0.00086834
6050.0 0.00077412
6070.0 0.00091338
6090.0 0.0010246
6110.0 0.0010501
6130.0 0.00097435
6150.0 0.00077011
6170.0 0.00059958
6190.0 0.00072662
6210.0 0.0011434
6230.0 0.0016833
6250.0 0.0018165
6270.0 0.0013977
6290.0 0.0011964
6310.0 0.00091353
6330.0 0.00066701
6350.0 0.00065263
6370.0 0.00068517
6390.0 0.00081798
6410.0 0.0010575
6430.0 0.0012718
6450.0 0.0015563
6470.0 0.0016474
6490.0 0.0019731
6510.0 0.002213
6530.0 0.002257
6550.0 0.0020757
6570.0 0.001666
6590.0 0.0015819
6610.0 0.0013116
6630.0 0.0013578
6650.0 0.001319
6670.0 0.0011546
6690.0 0.0008969
6710.0 0.00087504
6730.0 0.00038361
6750.0 0.00051497
6770.0 0.00080808
6790.0 0.0010688
6810.0 0.00076295
6830.0 0.00077905
6850.0 0.00064892
6870.0 0.0006071
6890.0 0.00051311
6910.0 0.00062427
6930.0 0.00058769
6950.0 0.00070249
6970.0 0.00072982
6990.0 0.0008102
7010.0 0.00078264
7030.0 0.00089591
7050.0 0.00077653
7070.0 0.00064776
7090.0 0.00069475
7110.0 0.00073713
7130.0 0.00084833
7150.0 0.00096142
7170.0 0.0010779
7190.0 0.0011511
7210.0 0.0010262
7230.0 0.0010392
7250.0 0.0011139
7270.0 0.0011957
7290.0 0.0014731
7310.0 0.0015572
7330.0 0.0014567
7350.0 0.0013047
7370.0 0.00096769
7390.0 0.00099808
7410.0 0.0012224
7430.0 0.0013931
7450.0 0.001501
7470.0 0.0013734
7490.0 0.0010967
7510.0 0.0017679
7530.0 0.0016109
7550.0 0.0015194
7570.0 0.0010322
7590.0 0.0004581
7610.0 0.0003234
7630.0 0.00049094
7650.0 0.00066008
7670.0 0.0010507
7690.0 0.0011706
7710.0 0.0010578
7730.0 0.00105
7750.0 0.0013783
7770.0 0.0014165
7790.0 0.0012951
7810.0 0.0010469
7830.0 0.0011344
7850.0 0.0012431
7870.0 0.0012155
7890.0 0.00095006
7910.0 0.00063857
7930.0 0.00066157
7950.0 0.0005976
7970.0 0.00050339
7990.0 0.00045509
8010.0 0.0002391
8030.0 0.00021818
8050.0 0.00023689
8070.0 0.00026848
8090.0 0.00032966
8110.0 0.00030918
8130.0 0.0001809
8150.0 0.00018845
8170.0 0.00010247
8190.0 5.9158e-05
8210.0 0.00016724
8230.0 0.00020317
8250.0 7.4409e-05
8270.0 5.7387e-05
8290.0 0.00012
8310.0 0.0001069
8330.0 6.5227e-05
8350.0 5.2694e-05
8370.0 1.0855e-05
8390.0 5.6285e-05
8410.0 6.4935e-05
8430.0 8.0718e-05
8450.0 9.0866e-05
8470.0 0.00015512
8490.0 0.00012529
8510.0 9.4779e-05
8530.0 4.3737e-05
8550.0 0.00017186
8570.0 0.00027046
8590.0 0.00018394
8610.0 0.00027967
8630.0 0.00030286
8650.0 0.00015417
8670.0 0.00023558
8690.0 0.00037689
8710.0 0.00032194
8730.0 0.00034879
8750.0 0.00027199
8770.0 0.00024072
8790.0 0.00026904
8810.0 0.0002937
8830.0 0.00015906
8850.0 6.4112e-05
8870.0 4.455e-05
8890.0 0.00012376
8910.0 0.00019967
8930.0 0.0002662
8950.0 0.00029728
8970.0 0.00028579
8990.0 0.00021184
9010.0 0.00020148
9030.0 0.00015211
9050.0 0.00015814
9070.0 0.00016444
9090.0 0.00016958
9110.0 0.00017579
9130.0 0.00018028
9150.0 0.00018348
9170.0 0.00018688
9190.0 0.00019052
9210.0 0.00019434
9230.0 0.00019839
9250.0 0.00020247
9270.0 0.00020668
9290.0 0.000211
9310.0 0.00021531
9330.0 0.00021968
9350.0 0.00022419
9370.0 0.00022873
9390.0 0.00023328
9410.0 0.00023794
9430.0 0.00024274
9450.0 0.00024747
9470.0 0.00025229
9490.0 0.00025724
9510.0 0.00026222
9530.0 0.0002672
9550.0 0.00027236
9570.0 0.0002776
9590.0 0.00028282
9610.0 0.00028812
9630.0 0.00029356
9650.0 0.00029903
9670.0 0.00030449
9690.0 0.0003101
9710.0 0.00031579
9730.0 0.00032147
9750.0 0.00032724
9770.0 0.00033319
9790.0 0.0003391
9810.0 0.00034503
9830.0 0.0003511
9850.0 0.00035724
9870.0 0.00036334
9890.0 0.00036954
9910.0 0.00037587
9930.0 0.00038219
9950.0 0.00038852
9970.0 0.00039499
9990.0 0.00040153
10010.0 0.00035771
10030.0 0.00036343
10050.0 0.00036923
10070.0 0.00037497
10090.0 0.00038075
10110.0 0.00038667
10130.0 0.00039258
10150.0 0.00039845
10170.0 0.00040436
10190.0 0.00041037
10210.0 0.00041629
10230.0 0.0004222
10250.0 0.00042819
10270.0 0.00043417
10290.0 0.00044007
10310.0 0.00044604
10330.0 0.00045206
10350.0 0.00045798
10370.0 0.00046387
10390.0 0.00046983
10410.0 0.00047574
10430.0 0.00048153
10450.0 0.00048737
10470.0 0.00049322
10490.0 0.00049896
10510.0 0.00050464
10530.0 0.00051041
10550.0 0.00051608
10570.0 0.00052161
10590.0 0.00052715
10610.0 0.00053268
10630.0 0.00053805
10650.0 0.00054337
10670.0 0.00054872
10690.0 0.00055395
10710.0 0.00055905
10730.0 0.00056414
10750.0 0.00056922
10770.0 0.00057407
10790.0 0.00057886
10810.0 0.00058363
10830.0 0.00058823
10850.0 0.0005926
10870.0 0.00059687
10890.0 0.00060073
10910.0 0.00060389
10930.0 0.00060611
10950.0 0.00060686
10970.0 0.00060566
10990.0 0.00060231
11010.0 0.0005988
11030.0 0.00058968
11050.0 0.00057825
11070.0 0.00056437
11090.0 0.00054757
11110.0 0.00053013
11130.0 0.00051194
11150.0 0.0004924
11170.0 0.00047235
11190.0 0.00045298
11210.0 0.00043309
11230.0 0.00041283
11250.0 0.00039358
11270.0 0.00037517
11290.0 0.00035682
11310.0 0.00033949
11330.0 0.00032422
11350.0 0.00030978
11370.0 0.00029639
11390.0 0.0002847
11410.0 0.00027435
11430.0 0.00026462
11450.0 0.00025606
11470.0 0.00024849
11490.0 0.00024132
11510.0 0.00023431
11530.0 0.00022771
11550.0 0.00022114
11570.0 0.00021417
11590.0 0.00020703
11610.0 0.00019981
11630.0 0.00019208
11650.0 0.0001839
11670.0 0.0001759
11690.0 0.00016785
11710.0 0.00015961
11730.0 0.00015164
11750.0 0.00014425
11770.0 0.00013701
11790.0 0.00013019
11810.0 0.00012413
11830.0 0.00011865
11850.0 0.00011354
11870.0 0.00010916
11890.0 0.00010543
11910.0 0.00010206
11930.0 9.9089e-05
11950.0 9.6522e-05
11970.0 9.4172e-05
11990.0 9.1923e-05
12010.0 8.9818e-05
12030.0 8.7789e-05
12050.0 8.5719e-05
12070.0 8.3597e-05
12090.0 8.1552e-05
12110.0 7.9486e-05
12130.0 7.7408e-05
12150.0 7.5446e-05
12170.0 7.3654e-05
12190.0 7.1988e-05
12210.0 7.061e-05
12230.0 6.9588e-05
12250.0 6.893e-05
12270.0 6.8713e-05
12290.0 6.8954e-05
12310.0 6.9619e-05
12330.0 7.0807e-05
12350.0 7.2463e-05
12370.0 7.4456e-05
12390.0 7.6849e-05
12410.0 7.9747e-05
12430.0 8.2718e-05
12450.0 8.5816e-05
12470.0 8.9139e-05
12490.0 9.2478e-05
12510.0 9.5584e-05
12530.0 9.8669e-05
12550.0 0.00010163
12570.0 0.00010419
12590.0 0.0001064
12610.0 0.00010833
12630.0 0.00010979
12650.0 0.0001107
12670.0 0.00011118
12690.0 0.00011118
12710.0 0.00011067
12730.0 0.00010973
12750.0 0.0001083
12770.0 0.00010646
12790.0 0.0001043
12810.0 0.0001018
12830.0 9.8961e-05
12850.0 9.6021e-05
12870.0 9.2946e-05
12890.0 8.9663e-05
12910.0 8.6349e-05
12930.0 8.3097e-05
12950.0 7.9737e-05
12970.0 7.6342e-05
12990.0 7.3132e-05
13010.0 6.9974e-05
13030.0 6.6795e-05
13050.0 6.3741e-05
13070.0 6.0871e-05
13090.0 5.7993e-05
13110.0 5.52e-05
13130.0 5.2607e-05
13150.0 5.0135e-05
13170.0 4.7701e-05
13190.0 4.5504e-05
13210.0 4.3539e-05
13230.0 4.1712e-05
13250.0 4.0094e-05
13270.0 3.8763e-05
13290.0 3.766e-05
13310.0 3.6804e-05
13330.0 3.626e-05
13350.0 3.6008e-05
13370.0 3.6057e-05
13390.0 3.6429e-05
13410.0 3.7053e-05
13430.0 3.7952e-05
13450.0 3.9138e-05
13470.0 4.0507e-05
13490.0 4.1999e-05
13510.0 4.3733e-05
13530.0 4.5529e-05
13550.0 4.7281e-05
13570.0 4.9041e-05
13590.0 5.0792e-05
13610.0 5.2377e-05
13630.0 5.3785e-05
13650.0 5.51e-05
13670.0 5.6216e-05
13690.0 5.71e-05
13710.0 5.7808e-05
13730.0 5.8345e-05
13750.0 5.8644e-05
13770.0 5.8763e-05
13790.0 5.8716e-05
13810.0 5.8498e-05
13830.0 5.8137e-05
13850.0 5.763e-05
13870.0 5.6978e-05
13890.0 5.6223e-05
13910.0 5.5367e-05
13930.0 5.4377e-05
13950.0 5.3298e-05
13970.0 5.2197e-05
13990.0 5.1003e-05
14010.0 4.974e-05
14030.0 4.8485e-05
14050.0 4.7225e-05
14070.0 4.5901e-05
14090.0 4.4635e-05
14110.0 4.3445e-05
14130.0 4.2292e-05
14150.0 4.1204e-05
14170.0 4.027e-05
14190.0 3.9455e-05
14210.0 3.8754e-05
14230.0 3.8221e-05
14250.0 3.7859e-05
14270.0 3.7656e-05
14290.0 3.7637e-05
14310.0 3.7792e-05
14330.0 3.811e-05
14350.0 3.8605e-05
14370.0 3.9243e-05
14390.0 3.9984e-05
14410.0 4.0874e-05
14430.0 4.187e-05
14450.0 4.2906e-05
14470.0 4.4e-05
14490.0 4.5183e-05
14510.0 4.6338e-05
14530.0 4.7455e-05
14550.0 4.8591e-05
14570.0 4.9703e-05
14590.0 5.0735e-05
14610.0 5.1749e-05
14630.0 5.2767e-05
14650.0 5.3728e-05
14670.0 5.4664e-05
14690.0 5.5641e-05
14710.0 5.6666e-05
14730.0 5.7688e-05
14750.0 5.8812e-05
14770.0 6.0073e-05
14790.0 6.1431e-05
14810.0 6.2893e-05
14830.0 6.4609e-05
14850.0 6.6466e-05
14870.0 6.8399e-05
14890.0 7.0479e-05
14910.0 7.2682e-05
14930.0 7.4805e-05
14950.0 7.6796e-05
14970.0 7.8689e-05
14990.0 8.0295e-05
15010.0 8.1549e-05
15030.0 8.2507e-05
15050.0 8.318e-05
15070.0 8.3567e-05
15090.0 8.3777e-05
15110.0 8.3864e-05
15130.0 8.3873e-05
15150.0 8.3847e-05
15170.0 8.3795e-05
15190.0 8.3732e-05
15210.0 8.3672e-05
15230.0 8.3614e-05
15250.0 8.355e-05
15270.0 8.3488e-05
15290.0 8.3438e-05
15310.0 8.3383e-05
15330.0 8.3327e-05
15350.0 8.3278e-05
15370.0 8.3232e-05
15390.0 8.3176e-05
15410.0 8.3127e-05
15430.0 8.3085e-05
15450.0 8.3038e-05
15470.0 8.2988e-05
15490.0 8.2948e-05
15510.0 8.2909e-05
15530.0 8.2863e-05
15550.0 8.2821e-05
15570.0 8.2785e-05
15590.0 8.2741e-05
15610.0 8.2695e-05
15630.0 8.2659e-05
15650.0 8.2622e-05
15670.0 8.2578e-05
15690.0 8.2539e-05
15710.0 8.2506e-05
15730.0 8.2464e-05
15750.0 8.2422e-05
15770.0 8.2386e-05
15790.0 8.2348e-05
15810.0 8.2301e-05
15830.0 8.2261e-05
15850.0 8.2225e-05
15870.0 8.2182e-05
15890.0 8.2138e-05
15910.0 8.2101e-05
15930.0 8.2059e-05
15950.0 8.2009e-05
15970.0 8.1965e-05
15990.0 8.1923e-05
16010.0 8.1874e-05
16030.0 8.1821e-05
16050.0 8.1779e-05
16070.0 8.1731e-05
16090.0 8.1676e-05
16110.0 8.1626e-05
16130.0 8.1579e-05
16150.0 8.1517e-05
16170.0 8.1458e-05
16190.0 8.1405e-05
16210.0 8.1347e-05
16230.0 8.1281e-05
16250.0 8.1222e-05
16270.0 8.1164e-05
16290.0 8.1094e-05
16310.0 8.1026e-05
16330.0 8.0962e-05
16350.0 8.0892e-05
16370.0 8.081e-05
16390.0 8.074e-05
16410.0 8.0668e-05
16430.0 8.0587e-05
16450.0 8.0505e-05
16470.0 8.0431e-05
16490.0 8.0345e-05
16510.0 8.0254e-05
16530.0 8.0168e-05
16550.0 8.0081e-05
16570.0 7.9983e-05
16590.0 7.9885e-05
16610.0 7.9796e-05
16630.0 7.9696e-05
16650.0 7.9591e-05
16670.0 7.9492e-05
16690.0 7.939e-05
16710.0 7.9273e-05
16730.0 7.9162e-05
16750.0 7.9054e-05
16770.0 7.8937e-05
16790.0 7.8814e-05
16810.0 7.8699e-05
16830.0 7.858e-05
16850.0 7.845e-05
16870.0 7.8323e-05
16890.0 7.8199e-05
16910.0 7.8063e-05
16930.0 7.7921e-05
16950.0 7.7789e-05
16970.0 7.7652e-05
16990.0 7.7505e-05
17010.0 7.7361e-05
17030.0 7.7221e-05
17050.0 7.7067e-05
17070.0 7.6912e-05
17090.0 7.6762e-05
17110.0 7.6606e-05
17130.0 7.6438e-05
17150.0 7.6277e-05
17170.0 7.6119e-05
17190.0 7.5949e-05
17210.0 7.5777e-05
17230.0 7.5612e-05
17250.0 7.5439e-05
17270.0 7.5255e-05
17290.0 7.5077e-05
17310.0 7.49e-05
17330.0 7.4712e-05
17350.0 7.4521e-05
17370.0 7.434e-05
17390.0 7.415e-05
17410.0 7.3953e-05
17430.0 7.376e-05
17450.0 7.3569e-05
17470.0 7.336e-05
17490.0 7.3155e-05
17510.0 7.2956e-05
17530.0 7.275e-05
17550.0 7.2536e-05
17570.0 7.2328e-05
17590.0 7.2121e-05
17610.0 7.1901e-05
17630.0 7.1682e-05
17650.0 7.1469e-05
17670.0 7.1247e-05
17690.0 7.1013e-05
17710.0 7.0793e-05
17730.0 7.057e-05
17750.0 7.0337e-05
17770.0 7.0105e-05
17790.0 6.988e-05
17810.0 6.9643e-05
17830.0 6.9401e-05
17850.0 6.9166e-05
17870.0 6.8929e-05
17890.0 6.8681e-05
17910.0 6.8435e-05
17930.0 6.8198e-05
17950.0 6.795e-05
17970.0 6.7699e-05
17990.0 6.7454e-05
18010.0 6.7206e-05
18030.0 6.6945e-05
18050.0 6.669e-05
18070.0 6.644e-05
18090.0 6.6181e-05
18110.0 6.5917e-05
18130.0 6.5663e-05
18150.0 6.5405e-05
18170.0 6.5138e-05
18190.0 6.4875e-05
18210.0 6.4617e-05
18230.0 6.4346e-05
18250.0 6.4073e-05
18270.0 6.381e-05
18290.0 6.3543e-05
18310.0 6.3268e-05
18330.0 6.2998e-05
18350.0 6.2733e-05
18370.0 6.2456e-05
18390.0 6.2179e-05
18410.0 6.1908e-05
18430.0 6.1634e-05
18450.0 6.1349e-05
18470.0 6.1073e-05
18490.0 6.0801e-05
18510.0 6.052e-05
18530.0 6.0238e-05
18550.0 5.9965e-05
18570.0 5.9684e-05
18590.0 5.9396e-05
18610.0 5.9116e-05
18630.0 5.8838e-05
18650.0 5.8551e-05
18670.0 5.8263e-05
18690.0 5.7987e-05
18710.0 5.7704e-05
18730.0 5.7415e-05
18750.0 5.7133e-05
18770.0 5.6854e-05
18790.0 5.656e-05
18810.0 5.6272e-05
18830.0 5.5991e-05
18850.0 5.5705e-05
18870.0 5.5414e-05
18890.0 5.5131e-05
18910.0 5.485e-05
18930.0 5.4558e-05
18950.0 5.427e-05
18970.0 5.3989e-05
18990.0 5.3701e-05
19010.0 5.3404e-05
19030.0 5.3123e-05
19050.0 5.284e-05
19070.0 5.2549e-05
19090.0 5.2262e-05
19110.0 5.1983e-05
19130.0 5.1693e-05
19150.0 5.1402e-05
19170.0 5.1119e-05
19190.0 5.0836e-05
19210.0 5.0544e-05
19230.0 5.0257e-05
19250.0 4.9979e-05
19270.0 4.9693e-05
19290.0 4.9405e-05
19310.0 4.9126e-05
19330.0 4.8845e-05
19350.0 4.8552e-05
19370.0 4.827e-05
19390.0 4.7991e-05
19410.0 4.7707e-05
19430.0 4.742e-05
19450.0 4.7144e-05
19470.0 4.6865e-05
19490.0 4.658e-05
19510.0 4.6301e-05
19530.0 4.6026e-05
19550.0 4.5742e-05
19570.0 4.5458e-05
19590.0 4.5185e-05
19610.0 4.4909e-05
19630.0 4.4628e-05
19650.0 4.4353e-05
19670.0 4.4083e-05
19690.0 4.3803e-05
19710.0 4.3526e-05
19730.0 4.3256e-05
19750.0 4.2983e-05
19770.0 4.2703e-05
19790.0 4.2433e-05
19810.0 4.2166e-05
19830.0 4.1891e-05
19850.0 4.1616e-05
19870.0 4.1347e-05
19890.0 4.1063e-05
19910.0 4.0759e-05
19930.0 4.0442e-05
19950.0 4.0091e-05
19970.0 3.9679e-05
19990.0 3.92e-05
20010.0 3.6134e-05
20030.0 3.5549e-05
20050.0 3.488e-05
20070.0 3.4166e-05
20090.0 3.3407e-05
20110.0 3.2562e-05
20130.0 3.1713e-05
20150.0 3.0878e-05
20170.0 3.002e-05
20190.0 2.9155e-05
20210.0 2.834e-05
20230.0 2.7549e-05
20250.0 2.6758e-05
20270.0 2.6025e-05
20290.0 2.5354e-05
20310.0 2.4715e-05
20330.0 2.4115e-05
20350.0 2.3611e-05
20370.0 2.3159e-05
20390.0 2.2756e-05
20410.0 2.2423e-05
20430.0 2.2157e-05
20450.0 2.1936e-05
20470.0 2.1776e-05
20490.0 2.1673e-05
20510.0 2.1617e-05
20530.0 2.1609e-05
20550.0 2.1643e-05
20570.0 2.1712e-05
20590.0 2.1818e-05
20610.0 2.1956e-05
20630.0 2.2114e-05
20650.0 2.2297e-05
20670.0 2.2512e-05
20690.0 2.2733e-05
20710.0 2.2965e-05
20730.0 2.3216e-05
20750.0 2.348e-05
20770.0 2.3737e-05
20790.0 2.4007e-05
20810.0 2.4291e-05
20830.0 2.457e-05
20850.0 2.4848e-05
20870.0 2.5143e-05
20890.0 2.5441e-05
20910.0 2.5724e-05
20930.0 2.6015e-05
20950.0 2.6315e-05
20970.0 2.6604e-05
20990.0 2.6887e-05
21010.0 2.7184e-05
21030.0 2.7472e-05
21050.0 2.7744e-05
21070.0 2.8015e-05
21090.0 2.8287e-05
21110.0 2.8533e-05
21130.0 2.8762e-05
21150.0 2.8985e-05
21170.0 2.9186e-05
21190.0 2.9358e-05
21210.0 2.9513e-05
21230.0 2.9643e-05
21250.0 2.9733e-05
21270.0 2.979e-05
21290.0 2.9811e-05
21310.0 2.9787e-05
21330.0 2.972e-05
21350.0 2.9605e-05
21370.0 2.9437e-05
21390.0 2.9221e-05
21410.0 2.8957e-05
21430.0 2.8622e-05
21450.0 2.8244e-05
21470.0 2.783e-05
21490.0 2.736e-05
21510.0 2.6843e-05
21530.0 2.6314e-05
21550.0 2.5758e-05
21570.0 2.5163e-05
21590.0 2.4574e-05
21610.0 2.4001e-05
21630.0 2.3425e-05
21650.0 2.2858e-05
21670.0 2.2361e-05
21690.0 2.1897e-05
21710.0 2.1474e-05
21730.0 2.1118e-05
21750.0 2.0833e-05
21770.0 2.0604e-05
21790.0 2.0451e-05
21810.0 2.0376e-05
21830.0 2.037e-05
21850.0 2.044e-05
21870.0 2.0577e-05
21890.0 2.0768e-05
21910.0 2.1027e-05
21930.0 2.1339e-05
21950.0 2.1684e-05
21970.0 2.2072e-05
21990.0 2.2515e-05
22010.0 2.2962e-05
22030.0 2.342e-05
22050.0 2.3905e-05
22070.0 2.4398e-05
22090.0 2.4867e-05
22110.0 2.5344e-05
22130.0 2.5824e-05
22150.0 2.6275e-05
22170.0 2.6703e-05
22190.0 2.713e-05
22210.0 2.7529e-05
22230.0 2.7881e-05
22250.0 2.8214e-05
22270.0 2.8522e-05
22290.0 2.8785e-05
22310.0 2.9011e-05
22330.0 2.921e-05
22350.0 2.9363e-05
22370.0 2.947e-05
22390.0 2.9535e-05
22410.0 2.9555e-05
22430.0 2.9524e-05
22450.0 2.9445e-05
22470.0 2.9313e-05
22490.0 2.9128e-05
22510.0 2.8899e-05
22530.0 2.8608e-05
22550.0 2.8255e-05
22570.0 2.7864e-05
22590.0 2.7424e-05
22610.0 2.6919e-05
22630.0 2.6372e-05
22650.0 2.5806e-05
22670.0 2.5182e-05
22690.0 2.4515e-05
22710.0 2.3841e-05
22730.0 2.3147e-05
