#lamb flux
1010.0 1.2191e-07
1030.0 1.3069e-07
1050.0 1.4082e-07
1070.0 1.5224e-07
1090.0 1.6521e-07
1110.0 1.7853e-07
1130.0 1.9197e-07
1150.0 2.0607e-07
1170.0 2.2065e-07
1190.0 2.3452e-07
1210.0 2.486e-07
1230.0 2.632e-07
1250.0 2.7755e-07
1270.0 2.9154e-07
1290.0 3.0635e-07
1310.0 3.2121e-07
1330.0 3.3553e-07
1350.0 3.5006e-07
1370.0 3.6512e-07
1390.0 3.7987e-07
1410.0 3.9427e-07
1430.0 4.0936e-07
1450.0 4.2452e-07
1470.0 4.3925e-07
1490.0 4.542e-07
1510.0 4.7002e-07
1530.0 4.851e-07
1550.0 5.0004e-07
1570.0 5.1551e-07
1590.0 5.3103e-07
1610.0 5.4592e-07
1630.0 5.6126e-07
1650.0 5.7699e-07
1670.0 5.9221e-07
1690.0 6.0722e-07
1710.0 6.2273e-07
1730.0 6.3826e-07
1750.0 6.5282e-07
1770.0 6.6769e-07
1790.0 6.8273e-07
1810.0 6.9715e-07
1830.0 7.1115e-07
1850.0 7.2585e-07
1870.0 7.3995e-07
1890.0 7.5334e-07
1910.0 7.6677e-07
1930.0 7.803e-07
1950.0 7.9289e-07
1970.0 8.0504e-07
1990.0 8.1742e-07
2010.0 8.2927e-07
2030.0 8.4032e-07
2050.0 8.5148e-07
2070.0 8.627e-07
2090.0 8.7281e-07
2110.0 8.8259e-07
2130.0 8.9251e-07
2150.0 9.0189e-07
2170.0 9.1045e-07
2190.0 9.1926e-07
2210.0 9.2795e-07
2230.0 9.3591e-07
2250.0 9.4364e-07
2270.0 9.518e-07
2290.0 9.5942e-07
2310.0 9.6641e-07
2330.0 9.7373e-07
2350.0 9.8109e-07
2370.0 9.8791e-07
2390.0 9.9485e-07
2410.0 1.0024e-06
2430.0 1.0096e-06
2450.0 1.0168e-06
2470.0 1.0247e-06
2490.0 1.0337e-06
2510.0 1.0443e-06
2530.0 1.0601e-06
2550.0 1.0873e-06
2570.0 1.1327e-06
2590.0 1.2039e-06
2610.0 1.321e-06
2630.0 1.4897e-06
2650.0 1.7017e-06
2670.0 1.9597e-06
2690.0 2.2552e-06
2710.0 2.5488e-06
2730.0 2.8214e-06
2750.0 3.0776e-06
2770.0 3.2949e-06
2790.0 3.4706e-06
2810.0 3.6221e-06
2830.0 3.7628e-06
2850.0 3.8866e-06
2870.0 4.0075e-06
2890.0 4.135e-06
2910.0 4.2661e-06
2930.0 4.3963e-06
2950.0 4.5359e-06
2970.0 4.6833e-06
2990.0 4.8307e-06
3010.0 2.1843e-05
3030.0 2.2535e-05
3050.0 2.322e-05
3070.0 2.383e-05
3090.0 2.4343e-05
3110.0 2.4613e-05
3130.0 2.4467e-05
3150.0 2.3726e-05
3170.0 2.2031e-05
3190.0 1.9356e-05
3210.0 1.5762e-05
3230.0 1.1742e-05
3250.0 1.5767e-05
3270.0 1.1371e-05
3290.0 2.0977e-05
3310.0 1.0755e-05
3330.0 1.0742e-05
3350.0 1.2137e-05
3370.0 1.3829e-05
3390.0 1.5698e-05
3410.0 1.7578e-05
3430.0 1.9563e-05
3450.0 2.1579e-05
3470.0 2.3456e-05
3490.0 2.4831e-05
3510.0 2.8938e-05
3530.0 3.5993e-05
3550.0 3.534e-05
3570.0 3.0299e-05
3590.0 3.9029e-05
3610.0 2.7729e-05
3630.0 4.1431e-05
3650.0 4.7521e-05
3670.0 5.8666e-05
3690.0 5.4933e-05
3710.0 3.8961e-05
3730.0 4.794e-05
3750.0 4.8812e-05
3770.0 5.2773e-05
3790.0 5.2794e-05
3810.0 5.6602e-05
3830.0 8.6936e-05
3850.0 0.00010826
3870.0 0.00013213
3890.0 0.00013092
3910.0 0.00011929
3930.0 0.00012016
3950.0 0.00012819
3970.0 0.00013317
3990.0 8.2432e-05
4010.0 4.643e-05
4030.0 8.3175e-05
4050.0 0.00011265
4070.0 0.00011592
4090.0 7.6143e-05
4110.0 5.0582e-05
4130.0 8.5213e-05
4150.0 9.0194e-05
4170.0 8.0381e-05
4190.0 7.0681e-05
4210.0 0.00010182
4230.0 8.0186e-05
4250.0 8.3164e-05
4270.0 8.2566e-05
4290.0 7.6604e-05
4310.0 9.7335e-05
4330.0 0.0001076
4350.0 9.5896e-05
4370.0 8.2934e-05
4390.0 9.651e-05
4410.0 9.6545e-05
4430.0 7.1004e-05
4450.0 6.1311e-05
4470.0 7.5685e-05
4490.0 6.1485e-05
4510.0 8.7712e-05
4530.0 9.057e-05
4550.0 0.00010178
4570.0 0.00013859
4590.0 0.00014338
4610.0 0.00013096
4630.0 0.00019622
4650.0 0.00024561
4670.0 0.00023909
4690.0 0.00018867
4710.0 0.00019493
4730.0 0.00020241
4750.0 0.00016063
4770.0 0.00012506
4790.0 8.8037e-05
4810.0 0.00011178
4830.0 0.00013131
4850.0 0.00011973
4870.0 6.7236e-05
4890.0 0.00013934
4910.0 0.00017012
4930.0 0.00018546
4950.0 0.000199
4970.0 0.00015934
4990.0 0.00018344
5010.0 0.00020445
5030.0 0.00020903
5050.0 0.00018637
5070.0 0.00013236
5090.0 0.00010846
5110.0 0.00010662
5130.0 0.00010471
5150.0 0.00010516
5170.0 9.6168e-05
5190.0 0.0001103
5210.0 0.00011286
5230.0 0.00012535
5250.0 0.00014439
5270.0 0.00012485
5290.0 0.00013513
5310.0 0.00019001
5330.0 0.00021602
5350.0 0.00018772
5370.0 0.00017558
5390.0 0.00020018
5410.0 0.00022705
5430.0 0.00023638
5450.0 0.00024869
5470.0 0.00025755
5490.0 0.00027826
5510.0 0.00033444
5530.0 0.00034858
5550.0 0.00036282
5570.0 0.00037528
5590.0 0.00036747
5610.0 0.00034599
5630.0 0.00034209
5650.0 0.00035572
5670.0 0.00034723
5690.0 0.0003031
5710.0 0.00030109
5730.0 0.00029556
5750.0 0.00029551
5770.0 0.00025753
5790.0 0.00025435
5810.0 0.0002645
5830.0 0.00028851
5850.0 0.00027406
5870.0 0.00027392
5890.0 0.00030913
5910.0 0.00028798
5930.0 0.00024603
5950.0 0.00023049
5970.0 0.00024896
5990.0 0.00022445
6010.0 0.00020061
6030.0 0.00019
6050.0 0.00017319
6070.0 0.00014181
6090.0 0.00014019
6110.0 0.00017213
6130.0 0.00018716
6150.0 0.00019197
6170.0 0.00019048
6190.0 0.0001882
6210.0 0.00020284
6230.0 0.00024375
6250.0 0.00022553
6270.0 0.00020082
6290.0 0.00017976
6310.0 0.00015839
6330.0 0.00014469
6350.0 0.00013218
6370.0 0.00013614
6390.0 0.0001562
6410.0 0.00019212
6430.0 0.00023029
6450.0 0.00024246
6470.0 0.00025241
6490.0 0.00030027
6510.0 0.00033934
6530.0 0.00032448
6550.0 0.00030851
6570.0 0.00031252
6590.0 0.00030995
6610.0 0.00032142
6630.0 0.00030054
6650.0 0.00026377
6670.0 0.00024706
6690.0 0.00024425
6710.0 0.00027565
6730.0 0.00024376
6750.0 0.0002024
6770.0 0.00018741
6790.0 0.00019947
6810.0 0.00022786
6830.0 0.0002283
6850.0 0.000206
6870.0 0.00021097
6890.0 0.00020936
6910.0 0.00019682
6930.0 0.00021242
6950.0 0.00020059
6970.0 0.00019
6990.0 0.00019106
7010.0 0.00019635
7030.0 0.00019201
7050.0 0.00018127
7070.0 0.00018795
7090.0 0.00017232
7110.0 0.00014669
7130.0 0.00013176
7150.0 0.00013331
7170.0 0.00016033
7190.0 0.00016708
7210.0 0.00015936
7230.0 0.00016979
7250.0 0.00017068
7270.0 0.00016987
7290.0 0.00018011
7310.0 0.00019179
7330.0 0.00018504
7350.0 0.00017161
7370.0 0.00015864
7390.0 0.00015741
7410.0 0.00017834
7430.0 0.00020299
7450.0 0.00021812
7470.0 0.00022691
7490.0 0.00025732
7510.0 0.00025487
7530.0 0.00022273
7550.0 0.00020438
7570.0 0.00017449
7590.0 0.00016172
7610.0 0.00015626
7630.0 0.00014653
7650.0 0.00015718
7670.0 0.00017538
7690.0 0.0001911
7710.0 0.00021801
7730.0 0.00022718
7750.0 0.00023529
7770.0 0.00024741
7790.0 0.00026479
7810.0 0.00026401
7830.0 0.00023748
7850.0 0.00023738
7870.0 0.00022929
7890.0 0.00022967
7910.0 0.00021504
7930.0 0.00021044
7950.0 0.00017544
7970.0 0.00017365
7990.0 0.00016928
8010.0 0.00018823
8030.0 0.00018742
8050.0 0.00019869
8070.0 0.00019098
8090.0 0.0001914
8110.0 0.00018816
8130.0 0.00018423
8150.0 0.00017183
8170.0 0.00016881
8190.0 0.00016869
8210.0 0.00017007
8230.0 0.00014941
8250.0 0.00013676
8270.0 0.00012059
8290.0 0.00010222
8310.0 8.8994e-05
8330.0 6.947e-05
8350.0 5.5494e-05
8370.0 5.2773e-05
8390.0 5.1453e-05
8410.0 5.4458e-05
8430.0 7.0084e-05
8450.0 7.6517e-05
8470.0 8.2427e-05
8490.0 9.5892e-05
8510.0 0.00010412
8530.0 0.0001176
8550.0 0.00013887
8570.0 0.00015262
8590.0 0.00016046
8610.0 0.00017904
8630.0 0.00020443
8650.0 0.00021006
8670.0 0.00021429
8690.0 0.00022083
8710.0 0.00021583
8730.0 0.00020784
8750.0 0.00019084
8770.0 0.00019016
8790.0 0.00018663
8810.0 0.0001714
8830.0 0.00017016
8850.0 0.00015411
8870.0 0.000146
8890.0 0.00013076
8910.0 0.00014609
8930.0 0.00013235
8950.0 0.00013302
8970.0 0.00013589
8990.0 0.00013214
9010.0 0.00013532
9030.0 0.00012846
9050.0 0.00012788
9070.0 0.00012797
9090.0 0.00012804
9110.0 0.0001282
9130.0 0.00012824
9150.0 0.00012822
9170.0 0.00012786
9190.0 0.00012702
9210.0 0.00012902
9230.0 0.00012852
9250.0 0.00012826
9270.0 0.00012805
9290.0 0.00012787
9310.0 0.00012772
9330.0 0.00012757
9350.0 0.00012742
9370.0 0.00012727
9390.0 0.00012711
9410.0 0.00012695
9430.0 0.00012678
9450.0 0.00012659
9470.0 0.00012641
9490.0 0.00012621
9510.0 0.00012601
9530.0 0.00012581
9550.0 0.0001256
9570.0 0.00012539
9590.0 0.00012518
9610.0 0.00012496
9630.0 0.00012475
9650.0 0.00012454
9670.0 0.00012431
9690.0 0.0001241
9710.0 0.00012389
9730.0 0.00012367
9750.0 0.00012346
9770.0 0.00012326
9790.0 0.00012305
9810.0 0.00012285
9830.0 0.00012265
9850.0 0.00012247
9870.0 0.00012227
9890.0 0.00012209
9910.0 0.00012192
9930.0 0.00012174
9950.0 0.0001214
9970.0 0.0001213
9990.0 0.00012119
10010.0 0.00012107
10030.0 0.00012095
10050.0 0.00012078
10070.0 0.00012037
10090.0 0.00012035
10110.0 0.00012033
10130.0 0.00012029
10150.0 0.00012024
10170.0 0.00012017
10190.0 0.00012009
10210.0 0.00012003
10230.0 0.00011996
10250.0 0.0001199
10270.0 0.00011985
10290.0 0.0001198
10310.0 0.00011976
10330.0 0.00011972
10350.0 0.0001197
10370.0 0.00011968
10390.0 0.00011967
10410.0 0.00011966
10430.0 0.00011966
10450.0 0.00011967
10470.0 0.00011967
10490.0 0.00011969
10510.0 0.00011972
10530.0 0.00011974
10550.0 0.00011978
10570.0 0.00011982
10590.0 0.00011986
10610.0 0.00011991
10630.0 0.00011996
10650.0 0.00012003
10670.0 0.00012008
10690.0 0.00012015
10710.0 0.00012022
10730.0 0.0001203
10750.0 0.00012037
10770.0 0.00012046
10790.0 0.00012054
10810.0 0.00012063
10830.0 0.00012071
10850.0 0.00012079
10870.0 0.00012085
10890.0 0.00012085
10910.0 0.00012077
10930.0 0.00012054
10950.0 0.00012006
10970.0 0.00011928
10990.0 0.00011816
11010.0 0.00012065
11030.0 0.00011844
11050.0 0.00011586
11070.0 0.00011287
11090.0 0.00010941
11110.0 0.00010597
11130.0 0.00010253
11150.0 9.902e-05
11170.0 9.5615e-05
11190.0 9.2526e-05
11210.0 8.9561e-05
11230.0 8.6758e-05
11250.0 8.4296e-05
11270.0 8.2116e-05
11290.0 8.0096e-05
11310.0 7.8316e-05
11330.0 7.683e-05
11350.0 7.5464e-05
11370.0 7.4198e-05
11390.0 7.3055e-05
11410.0 7.1971e-05
11430.0 7.0831e-05
11450.0 6.9684e-05
11470.0 6.8522e-05
11490.0 6.7268e-05
11510.0 6.5893e-05
11530.0 6.45e-05
11550.0 6.3052e-05
11570.0 6.1483e-05
11590.0 5.9883e-05
11610.0 5.8308e-05
11630.0 5.6661e-05
11650.0 5.4975e-05
11670.0 5.3387e-05
11690.0 5.183e-05
11710.0 5.0264e-05
11730.0 4.8768e-05
11750.0 4.7386e-05
11770.0 4.6008e-05
11790.0 4.4675e-05
11810.0 4.3444e-05
11830.0 4.2269e-05
11850.0 4.1085e-05
11870.0 3.9983e-05
11890.0 3.8957e-05
11910.0 3.7931e-05
11930.0 3.6921e-05
11950.0 3.5974e-05
11970.0 3.5037e-05
11990.0 3.4077e-05
12010.0 3.3159e-05
12030.0 3.228e-05
12050.0 3.1395e-05
12070.0 3.0519e-05
12090.0 2.9733e-05
12110.0 2.8977e-05
12130.0 2.8257e-05
12150.0 2.7621e-05
12170.0 2.708e-05
12190.0 2.66e-05
12210.0 2.6236e-05
12230.0 2.6e-05
12250.0 2.5884e-05
12270.0 2.5903e-05
12290.0 2.606e-05
12310.0 2.6341e-05
12330.0 2.6764e-05
12350.0 2.7311e-05
12370.0 2.7943e-05
12390.0 2.8669e-05
12410.0 2.9504e-05
12430.0 3.0339e-05
12450.0 3.1181e-05
12470.0 3.2046e-05
12490.0 3.2881e-05
12510.0 3.3637e-05
12530.0 3.4355e-05
12550.0 3.5015e-05
12570.0 3.5572e-05
12590.0 3.604e-05
12610.0 3.6437e-05
12630.0 3.6743e-05
12650.0 3.6953e-05
12670.0 3.7093e-05
12690.0 3.7162e-05
12710.0 3.7164e-05
12730.0 3.711e-05
12750.0 3.6997e-05
12770.0 3.6838e-05
12790.0 3.6643e-05
12810.0 3.6403e-05
12830.0 3.6116e-05
12850.0 3.5806e-05
12870.0 3.5462e-05
12890.0 3.5063e-05
12910.0 3.4629e-05
12930.0 3.4168e-05
12950.0 3.3642e-05
12970.0 3.3057e-05
12990.0 3.2456e-05
13010.0 3.1815e-05
13030.0 3.1114e-05
13050.0 3.0393e-05
13070.0 2.9683e-05
13090.0 2.8932e-05
13110.0 2.8176e-05
13130.0 2.7464e-05
13150.0 2.6778e-05
13170.0 2.6101e-05
13190.0 2.5504e-05
13210.0 2.499e-05
13230.0 2.453e-05
13250.0 2.4147e-05
13270.0 2.386e-05
13290.0 2.3646e-05
13310.0 2.3501e-05
13330.0 2.343e-05
13350.0 2.3417e-05
13370.0 2.3447e-05
13390.0 2.3509e-05
13410.0 2.3582e-05
13430.0 2.3656e-05
13450.0 2.3717e-05
13470.0 2.3753e-05
13490.0 2.3756e-05
13510.0 2.3719e-05
13530.0 2.364e-05
13550.0 2.3525e-05
13570.0 2.3375e-05
13590.0 2.3191e-05
13610.0 2.2992e-05
13630.0 2.2787e-05
13650.0 2.2569e-05
13670.0 2.2356e-05
13690.0 2.2159e-05
13710.0 2.1973e-05
13730.0 2.1794e-05
13750.0 2.1643e-05
13770.0 2.1506e-05
13790.0 2.1377e-05
13810.0 2.1256e-05
13830.0 2.1144e-05
13850.0 2.1026e-05
13870.0 2.0899e-05
13890.0 2.0767e-05
13910.0 2.0624e-05
13930.0 2.0463e-05
13950.0 2.0288e-05
13970.0 2.0112e-05
13990.0 1.9924e-05
14010.0 1.9729e-05
14030.0 1.9542e-05
14050.0 1.9362e-05
14070.0 1.9185e-05
14090.0 1.9027e-05
14110.0 1.8889e-05
14130.0 1.8768e-05
14150.0 1.8666e-05
14170.0 1.8588e-05
14190.0 1.8529e-05
14210.0 1.8488e-05
14230.0 1.8468e-05
14250.0 1.8465e-05
14270.0 1.8482e-05
14290.0 1.852e-05
14310.0 1.8574e-05
14330.0 1.8647e-05
14350.0 1.8742e-05
14370.0 1.8851e-05
14390.0 1.897e-05
14410.0 1.9108e-05
14430.0 1.9257e-05
14450.0 1.9406e-05
14470.0 1.956e-05
14490.0 1.9727e-05
14510.0 1.9887e-05
14530.0 2.0044e-05
14550.0 2.021e-05
14570.0 2.0384e-05
14590.0 2.0559e-05
14610.0 2.0752e-05
14630.0 2.0974e-05
14650.0 2.1213e-05
14670.0 2.1476e-05
14690.0 2.1783e-05
14710.0 2.2134e-05
14730.0 2.2497e-05
14750.0 2.2904e-05
14770.0 2.3359e-05
14790.0 2.383e-05
14810.0 2.4311e-05
14830.0 2.4843e-05
14850.0 2.5373e-05
14870.0 2.5876e-05
14890.0 2.6373e-05
14910.0 2.6853e-05
14930.0 2.727e-05
14950.0 2.7621e-05
14970.0 2.792e-05
14990.0 2.8136e-05
15010.0 2.8266e-05
15030.0 2.8329e-05
15050.0 2.833e-05
15070.0 2.8278e-05
15090.0 2.8193e-05
15110.0 2.8084e-05
15130.0 2.7962e-05
15150.0 2.7835e-05
15170.0 2.7702e-05
15190.0 2.7567e-05
15210.0 2.7434e-05
15230.0 2.7301e-05
15250.0 2.7166e-05
15270.0 2.7032e-05
15290.0 2.6901e-05
15310.0 2.6769e-05
15330.0 2.6635e-05
15350.0 2.6505e-05
15370.0 2.6375e-05
15390.0 2.6242e-05
15410.0 2.6112e-05
15430.0 2.5984e-05
15450.0 2.5854e-05
15470.0 2.5724e-05
15490.0 2.5597e-05
15510.0 2.547e-05
15530.0 2.5342e-05
15550.0 2.5215e-05
15570.0 2.5091e-05
15590.0 2.4965e-05
15610.0 2.4838e-05
15630.0 2.4715e-05
15650.0 2.4592e-05
15670.0 2.4468e-05
15690.0 2.4345e-05
15710.0 2.4225e-05
15730.0 2.4103e-05
15750.0 2.3981e-05
15770.0 2.3863e-05
15790.0 2.3744e-05
15810.0 2.3622e-05
15830.0 2.3504e-05
15850.0 2.3388e-05
15870.0 2.3271e-05
15890.0 2.3154e-05
15910.0 2.304e-05
15930.0 2.2925e-05
15950.0 2.2809e-05
15970.0 2.2695e-05
15990.0 2.2583e-05
16010.0 2.2469e-05
16030.0 2.2356e-05
16050.0 2.2247e-05
16070.0 2.2136e-05
16090.0 2.2025e-05
16110.0 2.1916e-05
16130.0 2.1809e-05
16150.0 2.1698e-05
16170.0 2.159e-05
16190.0 2.1484e-05
16210.0 2.1378e-05
16230.0 2.127e-05
16250.0 2.1166e-05
16270.0 2.1063e-05
16290.0 2.0957e-05
16310.0 2.0853e-05
16330.0 2.0751e-05
16350.0 2.0649e-05
16370.0 2.0544e-05
16390.0 2.0444e-05
16410.0 2.0344e-05
16430.0 2.0243e-05
16450.0 2.0143e-05
16470.0 2.0046e-05
16490.0 1.9947e-05
16510.0 1.9847e-05
16530.0 1.975e-05
16550.0 1.9654e-05
16570.0 1.9556e-05
16590.0 1.9459e-05
16610.0 1.9365e-05
16630.0 1.9269e-05
16650.0 1.9174e-05
16670.0 1.9081e-05
16690.0 1.8988e-05
16710.0 1.8892e-05
16730.0 1.8799e-05
16750.0 1.8708e-05
16770.0 1.8616e-05
16790.0 1.8523e-05
16810.0 1.8433e-05
16830.0 1.8343e-05
16850.0 1.8252e-05
16870.0 1.8162e-05
16890.0 1.8074e-05
16910.0 1.7984e-05
16930.0 1.7893e-05
16950.0 1.7806e-05
16970.0 1.7719e-05
16990.0 1.763e-05
17010.0 1.7543e-05
17030.0 1.7458e-05
17050.0 1.737e-05
17070.0 1.7283e-05
17090.0 1.7199e-05
17110.0 1.7114e-05
17130.0 1.7026e-05
17150.0 1.6942e-05
17170.0 1.6859e-05
17190.0 1.6774e-05
17210.0 1.669e-05
17230.0 1.6608e-05
17250.0 1.6525e-05
17270.0 1.644e-05
17290.0 1.6358e-05
17310.0 1.6277e-05
17330.0 1.6194e-05
17350.0 1.6111e-05
17370.0 1.6031e-05
17390.0 1.595e-05
17410.0 1.5868e-05
17430.0 1.5788e-05
17450.0 1.571e-05
17470.0 1.5627e-05
17490.0 1.5547e-05
17510.0 1.5469e-05
17530.0 1.539e-05
17550.0 1.5309e-05
17570.0 1.5231e-05
17590.0 1.5154e-05
17610.0 1.5075e-05
17630.0 1.4996e-05
17650.0 1.492e-05
17670.0 1.4842e-05
17690.0 1.4762e-05
17710.0 1.4687e-05
17730.0 1.4611e-05
17750.0 1.4533e-05
17770.0 1.4457e-05
17790.0 1.4383e-05
17810.0 1.4306e-05
17830.0 1.4229e-05
17850.0 1.4154e-05
17870.0 1.408e-05
17890.0 1.4003e-05
17910.0 1.3928e-05
17930.0 1.3855e-05
17950.0 1.3781e-05
17970.0 1.3706e-05
17990.0 1.3633e-05
18010.0 1.356e-05
18030.0 1.3485e-05
18050.0 1.3411e-05
18070.0 1.334e-05
18090.0 1.3266e-05
18110.0 1.3192e-05
18130.0 1.3121e-05
18150.0 1.305e-05
18170.0 1.2977e-05
18190.0 1.2905e-05
18210.0 1.2835e-05
18230.0 1.2763e-05
18250.0 1.269e-05
18270.0 1.262e-05
18290.0 1.255e-05
18310.0 1.2478e-05
18330.0 1.2408e-05
18350.0 1.234e-05
18370.0 1.2269e-05
18390.0 1.2198e-05
18410.0 1.213e-05
18430.0 1.2061e-05
18450.0 1.199e-05
18470.0 1.1921e-05
18490.0 1.1854e-05
18510.0 1.1785e-05
18530.0 1.1716e-05
18550.0 1.165e-05
18570.0 1.1582e-05
18590.0 1.1512e-05
18610.0 1.1445e-05
18630.0 1.1379e-05
18650.0 1.1311e-05
18670.0 1.1243e-05
18690.0 1.1178e-05
18710.0 1.1112e-05
18730.0 1.1045e-05
18750.0 1.0979e-05
18770.0 1.0915e-05
18790.0 1.0847e-05
18810.0 1.0781e-05
18830.0 1.0717e-05
18850.0 1.0652e-05
18870.0 1.0586e-05
18890.0 1.0523e-05
18910.0 1.046e-05
18930.0 1.0394e-05
18950.0 1.033e-05
18970.0 1.0267e-05
18990.0 1.0203e-05
19010.0 1.0138e-05
19030.0 1.0076e-05
19050.0 1.0014e-05
19070.0 9.9499e-06
19090.0 9.8872e-06
19110.0 9.8268e-06
19130.0 9.7636e-06
19150.0 9.7004e-06
19170.0 9.6395e-06
19190.0 9.5786e-06
19210.0 9.5156e-06
19230.0 9.454e-06
19250.0 9.3948e-06
19270.0 9.3336e-06
19290.0 9.2722e-06
19310.0 9.2131e-06
19330.0 9.1536e-06
19350.0 9.0914e-06
19370.0 9.0317e-06
19390.0 8.9733e-06
19410.0 8.9132e-06
19430.0 8.8528e-06
19450.0 8.7953e-06
19470.0 8.7371e-06
19490.0 8.6772e-06
19510.0 8.619e-06
19530.0 8.5621e-06
19550.0 8.5027e-06
19570.0 8.4434e-06
19590.0 8.3871e-06
19610.0 8.3299e-06
19630.0 8.2714e-06
19650.0 8.2148e-06
19670.0 8.1594e-06
19690.0 8.1014e-06
19710.0 8.0441e-06
19730.0 7.9888e-06
19750.0 7.9327e-06
19770.0 7.8746e-06
19790.0 7.8193e-06
19810.0 7.7648e-06
19830.0 7.7082e-06
19850.0 7.6516e-06
19870.0 7.5964e-06
19890.0 7.5375e-06
19910.0 7.4733e-06
19930.0 7.4057e-06
19950.0 7.33e-06
19970.0 7.239e-06
19990.0 7.1328e-06
20010.0 7.016e-06
20030.0 6.8796e-06
20050.0 6.7264e-06
20070.0 6.5682e-06
20090.0 6.4061e-06
20110.0 6.233e-06
20130.0 6.0687e-06
20150.0 5.916e-06
20170.0 5.7678e-06
20190.0 5.6275e-06
20210.0 5.504e-06
20230.0 5.3913e-06
20250.0 5.2861e-06
20270.0 5.1955e-06
20290.0 5.119e-06
20310.0 5.0523e-06
20330.0 4.9964e-06
20350.0 4.9563e-06
20370.0 4.9271e-06
20390.0 4.9094e-06
20410.0 4.9043e-06
20430.0 4.9109e-06
20450.0 4.9301e-06
20470.0 4.9621e-06
20490.0 5.0049e-06
20510.0 5.0593e-06
20530.0 5.1276e-06
20550.0 5.2051e-06
20570.0 5.2889e-06
20590.0 5.3845e-06
20610.0 5.4875e-06
20630.0 5.5919e-06
20650.0 5.7007e-06
20670.0 5.8166e-06
20690.0 5.9267e-06
20710.0 6.0325e-06
20730.0 6.1375e-06
20750.0 6.2371e-06
20770.0 6.3257e-06
20790.0 6.4092e-06
20810.0 6.4875e-06
20830.0 6.5562e-06
20850.0 6.6176e-06
20870.0 6.6759e-06
20890.0 6.7293e-06
20910.0 6.7764e-06
20930.0 6.8221e-06
20950.0 6.8668e-06
20970.0 6.9085e-06
20990.0 6.9481e-06
21010.0 6.9879e-06
21030.0 7.0247e-06
21050.0 7.0572e-06
21070.0 7.0862e-06
21090.0 7.111e-06
21110.0 7.1286e-06
21130.0 7.1398e-06
21150.0 7.1446e-06
21170.0 7.142e-06
21190.0 7.1328e-06
21210.0 7.1167e-06
21230.0 7.0937e-06
21250.0 7.0661e-06
21270.0 7.034e-06
21290.0 6.9967e-06
21310.0 6.9566e-06
21330.0 6.9163e-06
21350.0 6.8732e-06
21370.0 6.8289e-06
21390.0 6.7863e-06
21410.0 6.7447e-06
21430.0 6.7023e-06
21450.0 6.6635e-06
21470.0 6.6283e-06
21490.0 6.595e-06
21510.0 6.5648e-06
21530.0 6.5395e-06
21550.0 6.5178e-06
21570.0 6.4997e-06
21590.0 6.4867e-06
21610.0 6.4786e-06
21630.0 6.4753e-06
21650.0 6.4777e-06
21670.0 6.4855e-06
21690.0 6.4989e-06
21710.0 6.5188e-06
21730.0 6.5444e-06
21750.0 6.5751e-06
21770.0 6.6141e-06
21790.0 6.6596e-06
21810.0 6.7096e-06
21830.0 6.766e-06
21850.0 6.8307e-06
21870.0 6.8994e-06
21890.0 6.9709e-06
21910.0 7.0501e-06
21930.0 7.1337e-06
21950.0 7.2178e-06
21970.0 7.306e-06
21990.0 7.4005e-06
22010.0 7.4918e-06
22030.0 7.5819e-06
22050.0 7.6742e-06
22070.0 7.7646e-06
22090.0 7.8479e-06
22110.0 7.9293e-06
22130.0 8.0073e-06
22150.0 8.0764e-06
22170.0 8.1372e-06
22190.0 8.192e-06
22210.0 8.2361e-06
22230.0 8.2676e-06
22250.0 8.2887e-06
22270.0 8.2975e-06
22290.0 8.2933e-06
22310.0 8.2766e-06
22330.0 8.245e-06
22350.0 8.1999e-06
22370.0 8.143e-06
22390.0 8.0718e-06
22410.0 7.9848e-06
22430.0 7.8901e-06
22450.0 7.7853e-06
22470.0 7.6664e-06
22490.0 7.5397e-06
22510.0 7.41e-06
22530.0 7.2683e-06
22550.0 7.1184e-06
22570.0 6.9712e-06
22590.0 6.8216e-06
22610.0 6.6655e-06
22630.0 6.5115e-06
