#lamb flux
1010.0 0.00044816
1030.0 0.00057508
1050.0 0.00072957
1070.0 0.00091449
1090.0 0.0011378
1110.0 0.0013863
1130.0 0.0016563
1150.0 0.0019384
1170.0 0.0022443
1190.0 0.0025536
1210.0 0.0028872
1230.0 0.0032408
1250.0 0.0035967
1270.0 0.0039464
1290.0 0.0043066
1310.0 0.0046557
1330.0 0.0049752
1350.0 0.0052734
1370.0 0.005551
1390.0 0.0057872
1410.0 0.0059786
1430.0 0.0061447
1450.0 0.0062735
1470.0 0.0063586
1490.0 0.0064156
1510.0 0.0064768
1530.0 0.0065109
1550.0 0.0065114
1570.0 0.0064249
1590.0 0.0063305
1610.0 0.0062254
1630.0 0.0061298
1650.0 0.006046
1670.0 0.0059663
1690.0 0.0058973
1710.0 0.0058487
1730.0 0.0058156
1750.0 0.0057886
1770.0 0.0057815
1790.0 0.0057924
1810.0 0.0058132
1830.0 0.0058459
1850.0 0.0059049
1870.0 0.0059767
1890.0 0.0060548
1910.0 0.0061458
1930.0 0.0062498
1950.0 0.0063502
1970.0 0.0064579
1990.0 0.0065833
2010.0 0.0067189
2030.0 0.0068617
2050.0 0.0070199
2070.0 0.0071815
2090.0 0.0073411
2110.0 0.007507
2130.0 0.0076833
2150.0 0.0078633
2170.0 0.0080434
2190.0 0.0082335
2210.0 0.008433
2230.0 0.0086358
2250.0 0.0088425
2270.0 0.009059
2290.0 0.0092746
2310.0 0.0094871
2330.0 0.0097058
2350.0 0.0099267
2370.0 0.010142
2390.0 0.010358
2410.0 0.010579
2430.0 0.010794
2450.0 0.011008
2470.0 0.011231
2490.0 0.011475
2510.0 0.011739
2530.0 0.012061
2550.0 0.012485
2570.0 0.013041
2590.0 0.013769
2610.0 0.014809
2630.0 0.016196
2650.0 0.017903
2670.0 0.020024
2690.0 0.022612
2710.0 0.025455
2730.0 0.028439
2750.0 0.031659
2770.0 0.034812
2790.0 0.037664
2810.0 0.040249
2830.0 0.042563
2850.0 0.044339
2870.0 0.045757
2890.0 0.046947
2910.0 0.047923
2930.0 0.048714
2950.0 0.049462
2970.0 0.050183
2990.0 0.050839
3010.0 0.051471
3030.0 0.052131
3050.0 0.052785
3070.0 0.053376
3090.0 0.053993
3110.0 0.054645
3130.0 0.055346
3150.0 0.055899
3170.0 0.056986
3190.0 0.058679
3210.0 0.061227
3230.0 0.065092
3250.0 0.070871
3270.0 0.077131
3290.0 0.085812
3310.0 0.10107
3330.0 0.10497
3350.0 0.10603
3370.0 0.10699
3390.0 0.10793
3410.0 0.10875
3430.0 0.10946
3450.0 0.11015
3470.0 0.11086
3490.0 0.11132
3510.0 0.11072
3530.0 0.10623
3550.0 0.10141
3570.0 0.10469
3590.0 0.11397
3610.0 0.12456
3630.0 0.1328
3650.0 0.12843
3670.0 0.11557
3690.0 0.10598
3710.0 0.10474
3730.0 0.10826
3750.0 0.11067
3770.0 0.11487
3790.0 0.11968
3810.0 0.12075
3830.0 0.11329
3850.0 0.10547
3870.0 0.10227
3890.0 0.10423
3910.0 0.10484
3930.0 0.10554
3950.0 0.11111
3970.0 0.11756
3990.0 0.12057
4010.0 0.11987
4030.0 0.11601
4050.0 0.11409
4070.0 0.1129
4090.0 0.11302
4110.0 0.11256
4130.0 0.10904
4150.0 0.1048
4170.0 0.10327
4190.0 0.099717
4210.0 0.092578
4230.0 0.085014
4250.0 0.077142
4270.0 0.071021
4290.0 0.067597
4310.0 0.066278
4330.0 0.067788
4350.0 0.071106
4370.0 0.073418
4390.0 0.078612
4410.0 0.082678
4430.0 0.082206
4450.0 0.075614
4470.0 0.069305
4490.0 0.06658
4510.0 0.064772
4530.0 0.06409
4550.0 0.063405
4570.0 0.063593
4590.0 0.064928
4610.0 0.066502
4630.0 0.067466
4650.0 0.067636
4670.0 0.066016
4690.0 0.061613
4710.0 0.057346
4730.0 0.054135
4750.0 0.052052
4770.0 0.05094
4790.0 0.050335
4810.0 0.04868
4830.0 0.046499
4850.0 0.048443
4870.0 0.046188
4890.0 0.046087
4910.0 0.045276
4930.0 0.042202
4950.0 0.036831
4970.0 0.033998
4990.0 0.031572
5010.0 0.02976
5030.0 0.029765
5050.0 0.031136
5070.0 0.031592
5090.0 0.032868
5110.0 0.032838
5130.0 0.032407
5150.0 0.032603
5170.0 0.031666
5190.0 0.031529
5210.0 0.03182
5230.0 0.030636
5250.0 0.030933
5270.0 0.031776
5290.0 0.031368
5310.0 0.030216
5330.0 0.0294
5350.0 0.028216
5370.0 0.027761
5390.0 0.02744
5410.0 0.026838
5430.0 0.027136
5450.0 0.026877
5470.0 0.027275
5490.0 0.029271
5510.0 0.030091
5530.0 0.030529
5550.0 0.030874
5570.0 0.031417
5590.0 0.031425
5610.0 0.031439
5630.0 0.031714
5650.0 0.031682
5670.0 0.031307
5690.0 0.03092
5710.0 0.030868
5730.0 0.031793
5750.0 0.030953
5770.0 0.02975
5790.0 0.028362
5810.0 0.025752
5830.0 0.027854
5850.0 0.030589
5870.0 0.031508
5890.0 0.032282
5910.0 0.033604
5930.0 0.034096
5950.0 0.03444
5970.0 0.034809
5990.0 0.035285
6010.0 0.034894
6030.0 0.034585
6050.0 0.034769
6070.0 0.035048
6090.0 0.035512
6110.0 0.035245
6130.0 0.034654
6150.0 0.034064
6170.0 0.033473
6190.0 0.032128
6210.0 0.031728
6230.0 0.032075
6250.0 0.031998
6270.0 0.031919
6290.0 0.032467
6310.0 0.033101
6330.0 0.032977
6350.0 0.032375
6370.0 0.032347
6390.0 0.031858
6410.0 0.031521
6430.0 0.030916
6450.0 0.030684
6470.0 0.030451
6490.0 0.030341
6510.0 0.029798
6530.0 0.029346
6550.0 0.028886
6570.0 0.028441
6590.0 0.028693
6610.0 0.028632
6630.0 0.027803
6650.0 0.026927
6670.0 0.02657
6690.0 0.026091
6710.0 0.025363
6730.0 0.025014
6750.0 0.025115
6770.0 0.026245
6790.0 0.028256
6810.0 0.026963
6830.0 0.024044
6850.0 0.022756
6870.0 0.022211
6890.0 0.021968
6910.0 0.021763
6930.0 0.021493
6950.0 0.021285
6970.0 0.020468
6990.0 0.020008
7010.0 0.019992
7030.0 0.019897
7050.0 0.019317
7070.0 0.018519
7090.0 0.018054
7110.0 0.018069
7130.0 0.017912
7150.0 0.017711
7170.0 0.017467
7190.0 0.017206
7210.0 0.01732
7230.0 0.017408
7250.0 0.017266
7270.0 0.017119
7290.0 0.017152
7310.0 0.01691
7330.0 0.016395
7350.0 0.015685
7370.0 0.01535
7390.0 0.015242
7410.0 0.014647
7430.0 0.014581
7450.0 0.014356
7470.0 0.014481
7490.0 0.014176
7510.0 0.013583
7530.0 0.013602
7550.0 0.013139
7570.0 0.012742
7590.0 0.012187
7610.0 0.012166
7630.0 0.012401
7650.0 0.012591
7670.0 0.012034
7690.0 0.012025
7710.0 0.012348
7730.0 0.012569
7750.0 0.012677
7770.0 0.012569
7790.0 0.012263
7810.0 0.012508
7830.0 0.013002
7850.0 0.012774
7870.0 0.013126
7890.0 0.012857
7910.0 0.012609
7930.0 0.012304
7950.0 0.012462
7970.0 0.012489
7990.0 0.011737
8010.0 0.018068
8030.0 0.017669
8050.0 0.017384
8070.0 0.016852
8090.0 0.015179
8110.0 0.014982
8130.0 0.016664
8150.0 0.01762
8170.0 0.018105
8190.0 0.018856
8210.0 0.018186
8230.0 0.018221
8250.0 0.018144
8270.0 0.018052
8290.0 0.017779
8310.0 0.016913
8330.0 0.016565
8350.0 0.017059
8370.0 0.017262
8390.0 0.016868
8410.0 0.01667
8430.0 0.01612
8450.0 0.015814
8470.0 0.0169
8490.0 0.017002
8510.0 0.01599
8530.0 0.015777
8550.0 0.015586
8570.0 0.014626
8590.0 0.014723
8610.0 0.014871
8630.0 0.015327
8650.0 0.015358
8670.0 0.015384
8690.0 0.015086
8710.0 0.014628
8730.0 0.014193
8750.0 0.013925
8770.0 0.013893
8790.0 0.014321
8810.0 0.013593
8830.0 0.01346
8850.0 0.014061
8870.0 0.013333
8890.0 0.01242
8910.0 0.012204
8930.0 0.012175
8950.0 0.011392
8970.0 0.010925
8990.0 0.010683
9010.0 0.010089
9030.0 0.0099413
9050.0 0.0098909
9070.0 0.0098454
9090.0 0.0097995
9110.0 0.0097526
9130.0 0.0097055
9150.0 0.0096587
9170.0 0.0096113
9190.0 0.0095636
9210.0 0.0095153
9230.0 0.0094668
9250.0 0.009418
9270.0 0.0093689
9290.0 0.0093195
9310.0 0.0092742
9330.0 0.0092351
9350.0 0.0091958
9370.0 0.0091562
9390.0 0.0091162
9410.0 0.0090761
9430.0 0.0090358
9450.0 0.0089951
9470.0 0.0089589
9490.0 0.0089202
9510.0 0.0088765
9530.0 0.0088331
9550.0 0.0087908
9570.0 0.0087489
9590.0 0.0087068
9610.0 0.008671
9630.0 0.0086361
9650.0 0.0086008
9670.0 0.0085649
9690.0 0.0085294
9710.0 0.0084939
9730.0 0.0084578
9750.0 0.0084217
9770.0 0.0083864
9790.0 0.0083504
9810.0 0.008314
9830.0 0.0082782
9850.0 0.008238
9870.0 0.0081942
9890.0 0.0081632
9910.0 0.0081303
9930.0 0.0080913
9950.0 0.0080557
9970.0 0.0080225
9990.0 0.0079882
10010.0 0.0079536
10030.0 0.0079186
10050.0 0.0078833
10070.0 0.007848
10090.0 0.0078129
10110.0 0.0077777
10130.0 0.0077426
10150.0 0.0077078
10170.0 0.0076732
10190.0 0.0076386
10210.0 0.0076043
10230.0 0.0075702
10250.0 0.0075362
10270.0 0.0075024
10290.0 0.007469
10310.0 0.0074356
10330.0 0.0074023
10350.0 0.0073694
10370.0 0.0073368
10390.0 0.0073038
10410.0 0.0072661
10430.0 0.0072269
10450.0 0.0072012
10470.0 0.0071723
10490.0 0.0071431
10510.0 0.0071136
10530.0 0.0070828
10550.0 0.0070524
10570.0 0.0070228
10590.0 0.0069928
10610.0 0.0069627
10630.0 0.0069336
10650.0 0.0069047
10670.0 0.0068753
10690.0 0.0068466
10710.0 0.0068186
10730.0 0.0067903
10750.0 0.0067617
10770.0 0.0067346
10790.0 0.0067076
10810.0 0.0066802
10830.0 0.0066534
10850.0 0.0066274
10870.0 0.0066006
10890.0 0.0065738
10910.0 0.0065477
10930.0 0.006521
10950.0 0.0064929
10970.0 0.0064642
10990.0 0.006435
11010.0 0.0062484
11030.0 0.0062158
11050.0 0.0061822
11070.0 0.0061463
11090.0 0.0061068
11110.0 0.0060676
11130.0 0.0060278
11150.0 0.0059856
11170.0 0.0059423
11190.0 0.0059
11210.0 0.0058562
11230.0 0.0058108
11250.0 0.0057667
11270.0 0.0057235
11290.0 0.0056792
11310.0 0.0056359
11330.0 0.005596
11350.0 0.0055567
11370.0 0.0055183
11390.0 0.0054827
11410.0 0.0054492
11430.0 0.0054156
11450.0 0.0053839
11470.0 0.0053542
11490.0 0.0053247
11510.0 0.005295
11530.0 0.0052665
11550.0 0.0052382
11570.0 0.0052087
11590.0 0.0051788
11610.0 0.0051492
11630.0 0.0051179
11650.0 0.005085
11670.0 0.0050526
11690.0 0.0050194
11710.0 0.0049844
11730.0 0.0049491
11750.0 0.0049145
11770.0 0.0048782
11790.0 0.0048413
11810.0 0.0048053
11830.0 0.0047696
11850.0 0.0047324
11870.0 0.0046968
11890.0 0.004663
11910.0 0.0046292
11930.0 0.0045962
11950.0 0.0045656
11970.0 0.0045362
11990.0 0.0045074
12010.0 0.0044809
12030.0 0.0044567
12050.0 0.0044335
12070.0 0.0044118
12090.0 0.0043929
12110.0 0.0043753
12130.0 0.0043589
12150.0 0.0043441
12170.0 0.0043307
12190.0 0.0043177
12210.0 0.0043053
12230.0 0.0042937
12250.0 0.0042818
12270.0 0.0042693
12290.0 0.0042563
12310.0 0.0042426
12330.0 0.0042271
12350.0 0.00421
12370.0 0.0041917
12390.0 0.0041713
12410.0 0.0041478
12430.0 0.0041234
12450.0 0.0040973
12470.0 0.0040686
12490.0 0.004038
12510.0 0.0040071
12530.0 0.0039739
12550.0 0.0039387
12570.0 0.0039034
12590.0 0.0038676
12610.0 0.0038298
12630.0 0.0037915
12650.0 0.003755
12670.0 0.0037176
12690.0 0.0036797
12710.0 0.0036435
12730.0 0.0036083
12750.0 0.0035721
12770.0 0.0035379
12790.0 0.0035058
12810.0 0.0034744
12830.0 0.0034437
12850.0 0.003416
12870.0 0.0033901
12890.0 0.003365
12910.0 0.0033422
12930.0 0.003322
12950.0 0.0033031
12970.0 0.003286
12990.0 0.0032718
13010.0 0.0032597
13030.0 0.0032494
13050.0 0.0032413
13070.0 0.0032352
13090.0 0.0032306
13110.0 0.0032274
13130.0 0.0032253
13150.0 0.0032239
13170.0 0.0032227
13190.0 0.0032214
13210.0 0.0032197
13230.0 0.003217
13250.0 0.0032131
13270.0 0.003208
13290.0 0.0032012
13310.0 0.0031923
13330.0 0.0031818
13350.0 0.0031698
13370.0 0.0031556
13390.0 0.0031391
13410.0 0.003122
13430.0 0.003103
13450.0 0.0030818
13470.0 0.0030597
13490.0 0.003037
13510.0 0.0030115
13530.0 0.0029853
13550.0 0.0029591
13570.0 0.0029317
13590.0 0.0029028
13610.0 0.0028742
13630.0 0.002846
13650.0 0.0028161
13670.0 0.0027862
13690.0 0.0027571
13710.0 0.0027275
13730.0 0.0026965
13750.0 0.0026675
13770.0 0.0026389
13790.0 0.0026097
13810.0 0.0025812
13830.0 0.0025545
13850.0 0.0025275
13870.0 0.0025007
13890.0 0.0024756
13910.0 0.0024514
13930.0 0.0024272
13950.0 0.0024039
13970.0 0.0023827
13990.0 0.0023617
14010.0 0.0023411
14030.0 0.0023222
14050.0 0.0023042
14070.0 0.002286
14090.0 0.0022693
14110.0 0.0022539
14130.0 0.0022389
14150.0 0.0022244
14170.0 0.0022114
14190.0 0.002199
14210.0 0.0021867
14230.0 0.0021752
14250.0 0.0021645
14270.0 0.0021538
14290.0 0.0021433
14310.0 0.0021336
14330.0 0.0021241
14350.0 0.0021145
14370.0 0.0021053
14390.0 0.0020967
14410.0 0.0020879
14430.0 0.0020792
14450.0 0.002071
14470.0 0.0020629
14490.0 0.0020544
14510.0 0.0020465
14530.0 0.0020388
14550.0 0.0020308
14570.0 0.0020229
14590.0 0.0020152
14610.0 0.0020073
14630.0 0.0019991
14650.0 0.001991
14670.0 0.001983
14690.0 0.0019745
14710.0 0.0019658
14730.0 0.0019576
14750.0 0.0019489
14770.0 0.0019399
14790.0 0.0019309
14810.0 0.001922
14830.0 0.0019122
14850.0 0.0019024
14870.0 0.0018928
14890.0 0.0018829
14910.0 0.0018727
14930.0 0.0018631
14950.0 0.001854
14970.0 0.0018451
14990.0 0.0018371
15010.0 0.0018302
15030.0 0.001824
15050.0 0.0018184
15070.0 0.0018138
15090.0 0.0018097
15110.0 0.0018057
15130.0 0.001802
15150.0 0.0017986
15170.0 0.001795
15190.0 0.0017914
15210.0 0.001788
15230.0 0.0017845
15250.0 0.0017809
15270.0 0.0017773
15290.0 0.0017739
15310.0 0.0017703
15330.0 0.0017667
15350.0 0.0017631
15370.0 0.0017596
15390.0 0.0017558
15410.0 0.0017522
15430.0 0.0017486
15450.0 0.0017449
15470.0 0.0017411
15490.0 0.0017375
15510.0 0.0017339
15530.0 0.0017301
15550.0 0.0017263
15570.0 0.0017227
15590.0 0.0017189
15610.0 0.0017149
15630.0 0.0017112
15650.0 0.0017074
15670.0 0.0017035
15690.0 0.0016996
15710.0 0.0016959
15730.0 0.0016919
15750.0 0.0016879
15770.0 0.0016841
15790.0 0.0016802
15810.0 0.001676
15830.0 0.0016721
15850.0 0.0016682
15870.0 0.0016641
15890.0 0.00166
15910.0 0.0016561
15930.0 0.0016521
15950.0 0.0016478
15970.0 0.0016438
15990.0 0.0016397
16010.0 0.0016355
16030.0 0.0016313
16050.0 0.0016272
16070.0 0.0016231
16090.0 0.0016188
16110.0 0.0016146
16130.0 0.0016105
16150.0 0.0016061
16170.0 0.0016018
16190.0 0.0015976
16210.0 0.0015933
16230.0 0.0015889
16250.0 0.0015846
16270.0 0.0015804
16290.0 0.0015759
16310.0 0.0015715
16330.0 0.0015672
16350.0 0.0015628
16370.0 0.0015582
16390.0 0.0015539
16410.0 0.0015495
16430.0 0.001545
16450.0 0.0015405
16470.0 0.0015362
16490.0 0.0015317
16510.0 0.001527
16530.0 0.0015226
16550.0 0.0015181
16570.0 0.0015135
16590.0 0.0015088
16610.0 0.0015044
16630.0 0.0014998
16650.0 0.0014952
16670.0 0.0014907
16690.0 0.0014862
16710.0 0.0014814
16730.0 0.0014767
16750.0 0.0014722
16770.0 0.0014675
16790.0 0.0014628
16810.0 0.0014582
16830.0 0.0014536
16850.0 0.0014489
16870.0 0.0014442
16890.0 0.0014396
16910.0 0.0014348
16930.0 0.00143
16950.0 0.0014254
16970.0 0.0014207
16990.0 0.0014159
17010.0 0.0014112
17030.0 0.0014066
17050.0 0.0014018
17070.0 0.0013969
17090.0 0.0013923
17110.0 0.0013875
17130.0 0.0013826
17150.0 0.0013779
17170.0 0.0013732
17190.0 0.0013684
17210.0 0.0013636
17230.0 0.0013589
17250.0 0.0013541
17270.0 0.0013492
17290.0 0.0013444
17310.0 0.0013397
17330.0 0.0013348
17350.0 0.0013299
17370.0 0.0013253
17390.0 0.0013205
17410.0 0.0013156
17430.0 0.0013108
17450.0 0.0013062
17470.0 0.0013012
17490.0 0.0012963
17510.0 0.0012916
17530.0 0.0012868
17550.0 0.0012819
17570.0 0.0012771
17590.0 0.0012724
17610.0 0.0012675
17630.0 0.0012627
17650.0 0.001258
17670.0 0.0012531
17690.0 0.0012481
17710.0 0.0012434
17730.0 0.0012387
17750.0 0.0012338
17770.0 0.0012289
17790.0 0.0012243
17810.0 0.0012194
17830.0 0.0012145
17850.0 0.0012098
17870.0 0.001205
17890.0 0.0012001
17910.0 0.0011953
17930.0 0.0011906
17950.0 0.0011858
17970.0 0.0011809
17990.0 0.0011762
18010.0 0.0011715
18030.0 0.0011666
18050.0 0.0011618
18070.0 0.0011571
18090.0 0.0011523
18110.0 0.0011474
18130.0 0.0011427
18150.0 0.001138
18170.0 0.0011332
18190.0 0.0011284
18210.0 0.0011238
18230.0 0.0011189
18250.0 0.0011141
18270.0 0.0011094
18290.0 0.0011047
18310.0 0.0010999
18330.0 0.0010952
18350.0 0.0010906
18370.0 0.0010857
18390.0 0.001081
18410.0 0.0010763
18430.0 0.0010716
18450.0 0.0010668
18470.0 0.0010621
18490.0 0.0010575
18510.0 0.0010527
18530.0 0.001048
18550.0 0.0010434
18570.0 0.0010387
18590.0 0.0010339
18610.0 0.0010293
18630.0 0.0010247
18650.0 0.0010199
18670.0 0.0010152
18690.0 0.0010107
18710.0 0.001006
18730.0 0.0010013
18750.0 0.00099671
18770.0 0.00099218
18790.0 0.00098738
18810.0 0.0009827
18830.0 0.00097818
18850.0 0.00097355
18870.0 0.00096884
18890.0 0.0009643
18910.0 0.00095979
18930.0 0.00095509
18950.0 0.00095047
18970.0 0.00094598
18990.0 0.00094137
19010.0 0.0009366
19030.0 0.00093213
19050.0 0.00092762
19070.0 0.00092297
19090.0 0.0009184
19110.0 0.00091399
19130.0 0.00090936
19150.0 0.00090472
19170.0 0.00090024
19190.0 0.00089574
19210.0 0.00089109
19230.0 0.00088652
19250.0 0.00088213
19270.0 0.00087758
19290.0 0.000873
19310.0 0.00086858
19330.0 0.00086413
19350.0 0.00085945
19370.0 0.00085496
19390.0 0.00085055
19410.0 0.00084602
19430.0 0.00084144
19450.0 0.00083707
19470.0 0.00083264
19490.0 0.00082807
19510.0 0.00082362
19530.0 0.00081925
19550.0 0.00081469
19570.0 0.00081012
19590.0 0.00080578
19610.0 0.00080135
19630.0 0.00079682
19650.0 0.00079241
19670.0 0.00078809
19690.0 0.00078356
19710.0 0.00077908
19730.0 0.00077474
19750.0 0.00077032
19770.0 0.00076575
19790.0 0.00076137
19810.0 0.00075706
19830.0 0.0007526
19850.0 0.00074817
19870.0 0.00074393
19890.0 0.00073959
19910.0 0.00073522
19930.0 0.00073116
19950.0 0.00072732
19970.0 0.00072364
19990.0 0.00072035
20010.0 0.0007176
20030.0 0.00071519
20050.0 0.00071315
20070.0 0.00071154
20090.0 0.00071021
20110.0 0.00070903
20130.0 0.00070803
20150.0 0.00070714
20170.0 0.00070626
20190.0 0.00070539
20210.0 0.00070454
20230.0 0.00070367
20250.0 0.00070274
20270.0 0.00070179
20290.0 0.00070082
20310.0 0.00069977
20330.0 0.00069864
20350.0 0.00069751
20370.0 0.00069632
20390.0 0.00069504
20410.0 0.00069373
20430.0 0.00069241
20450.0 0.00069099
20470.0 0.00068954
20490.0 0.00068812
20510.0 0.00068668
20530.0 0.00068519
20550.0 0.00068375
20570.0 0.00068238
20590.0 0.00068098
20610.0 0.00067961
20630.0 0.00067832
20650.0 0.00067704
20670.0 0.00067572
20690.0 0.00067445
20710.0 0.0006732
20730.0 0.00067189
20750.0 0.00067053
20770.0 0.00066917
20790.0 0.00066771
20810.0 0.00066612
20830.0 0.00066446
20850.0 0.00066271
20870.0 0.00066076
20890.0 0.00065868
20910.0 0.00065657
20930.0 0.0006543
20950.0 0.00065187
20970.0 0.00064941
20990.0 0.00064692
21010.0 0.00064424
21030.0 0.00064155
21050.0 0.00063892
21070.0 0.00063622
21090.0 0.00063344
21110.0 0.00063079
21130.0 0.00062819
21150.0 0.00062551
21170.0 0.00062288
21190.0 0.00062035
21210.0 0.00061775
21230.0 0.00061508
21250.0 0.00061251
21270.0 0.00060993
21290.0 0.00060722
21310.0 0.00060449
21330.0 0.00060182
21350.0 0.000599
21370.0 0.00059606
21390.0 0.00059318
21410.0 0.00059024
21430.0 0.00058705
21450.0 0.00058388
21470.0 0.00058072
21490.0 0.00057741
21510.0 0.00057399
21530.0 0.00057063
21550.0 0.00056721
21570.0 0.00056362
21590.0 0.00056006
21610.0 0.00055655
21630.0 0.00055292
21650.0 0.00054918
21670.0 0.00054565
21690.0 0.00054206
21710.0 0.00053838
21730.0 0.00053476
21750.0 0.00053125
21770.0 0.00052755
21790.0 0.00052386
21810.0 0.00052029
21830.0 0.00051669
21850.0 0.00051296
21870.0 0.00050932
21890.0 0.00050577
21910.0 0.00050209
21930.0 0.00049842
21950.0 0.00049487
21970.0 0.00049129
21990.0 0.00048759
22010.0 0.00048409
22030.0 0.00048068
22050.0 0.00047724
22070.0 0.00047374
22090.0 0.00047023
22110.0 0.00046675
22130.0 0.00046329
22150.0 0.00046003
22170.0 0.00045691
22190.0 0.00045379
22210.0 0.00045079
22230.0 0.00044799
22250.0 0.00044524
22270.0 0.00044253
22290.0 0.00043995
22310.0 0.00043744
22330.0 0.0004349
22350.0 0.00043243
22370.0 0.00043002
22390.0 0.00042759
22410.0 0.00042511
22430.0 0.00042269
22450.0 0.00042026
22470.0 0.00041776
22490.0 0.00041526
22510.0 0.00041277
22530.0 0.0004102
22550.0 0.00040758
22570.0 0.000405
22590.0 0.0004024
22610.0 0.00039974
22630.0 0.00039709
22650.0 0.00039451
22670.0 0.00039188
22690.0 0.00038925
22710.0 0.00038669
22730.0 0.00038416
22750.0 0.0003816
22770.0 0.00037912
22790.0 0.00037672
22810.0 0.00037433
22830.0 0.00037198
22850.0 0.0003697
22870.0 0.00036746
22890.0 0.00036523
22910.0 0.00036305
22930.0 0.00036091
22950.0 0.00035876
22970.0 0.00035663
22990.0 0.00035452
23010.0 0.0003524
23030.0 0.00035026
23050.0 0.00034813
23070.0 0.00034598
23090.0 0.00034382
23110.0 0.00034321
23130.0 0.00034274
23150.0 0.00034232
23170.0 0.00034194
23190.0 0.00034161
23210.0 0.00034134
23230.0 0.00034113
23250.0 0.00034098
23270.0 0.00034089
23290.0 0.00034086
23310.0 0.0003409
23330.0 0.00034098
23350.0 0.00034108
23370.0 0.00034122
23390.0 0.00034138
23410.0 0.00034151
23430.0 0.00034165
23450.0 0.00034177
23470.0 0.00034184
23490.0 0.00034186
23510.0 0.00034185
23530.0 0.00034178
23550.0 0.00034163
23570.0 0.00034144
23590.0 0.00034121
23610.0 0.00034092
23630.0 0.00034059
23650.0 0.00034024
23670.0 0.00033986
23690.0 0.00033946
23710.0 0.00033905
23730.0 0.00033865
23750.0 0.00033823
23770.0 0.00033782
23790.0 0.00033742
23810.0 0.00033703
23830.0 0.00033663
23850.0 0.00033625
23870.0 0.00033588
23890.0 0.00033549
23910.0 0.00033509
23930.0 0.00033472
