#lamb flux
1010.0 9.2303e-05
1030.0 9.668e-05
1050.0 0.00010751
1070.0 0.00011956
1090.0 0.00013214
1110.0 0.00014472
1130.0 0.00015701
1150.0 0.00016967
1170.0 0.00018242
1190.0 0.00019391
1210.0 0.00020515
1230.0 0.00021638
1250.0 0.00022697
1270.0 0.00023661
1290.0 0.00024648
1310.0 0.00025583
1330.0 0.00026421
1350.0 0.00027249
1370.0 0.00028112
1390.0 0.00028956
1410.0 0.00029805
1430.0 0.00030775
1450.0 0.00031839
1470.0 0.00032983
1490.0 0.00034287
1510.0 0.00035834
1530.0 0.00037512
1550.0 0.00039392
1570.0 0.00041554
1590.0 0.00043977
1610.0 0.00046618
1630.0 0.00049617
1650.0 0.0005295
1670.0 0.00056533
1690.0 0.0006039
1710.0 0.00064594
1730.0 0.00069079
1750.0 0.00073702
1770.0 0.00078582
1790.0 0.00083668
1810.0 0.00088807
1830.0 0.00093965
1850.0 0.00099239
1870.0 0.0010438
1890.0 0.0010929
1910.0 0.0011401
1930.0 0.0011849
1950.0 0.0012249
1970.0 0.0012603
1990.0 0.0012916
2010.0 0.0013173
2030.0 0.0013365
2050.0 0.0013508
2070.0 0.00136
2090.0 0.0013622
2110.0 0.001359
2130.0 0.0013516
2150.0 0.0013394
2170.0 0.0013223
2190.0 0.0013028
2210.0 0.0012807
2230.0 0.0012559
2250.0 0.0012297
2270.0 0.0012035
2290.0 0.0011765
2310.0 0.0011492
2330.0 0.0011233
2350.0 0.0010988
2370.0 0.0010754
2390.0 0.0010542
2410.0 0.0010364
2430.0 0.0010212
2450.0 0.0010092
2470.0 0.0010019
2490.0 0.00099988
2510.0 0.0010024
2530.0 0.0010127
2550.0 0.0010348
2570.0 0.0010721
2590.0 0.0011295
2610.0 0.001222
2630.0 0.0013531
2650.0 0.0015177
2670.0 0.0017207
2690.0 0.0019592
2710.0 0.0022068
2730.0 0.0024513
2750.0 0.0026998
2770.0 0.0029361
2790.0 0.0031567
2810.0 0.0033773
2830.0 0.003612
2850.0 0.0038487
2870.0 0.0041001
2890.0 0.0043773
2910.0 0.0046745
2930.0 0.0049822
2950.0 0.0053171
2970.0 0.0056772
2990.0 0.0060494
3010.0 0.0067127
3030.0 0.0071482
3050.0 0.0076006
3070.0 0.0080478
3090.0 0.0085004
3110.0 0.0089331
3130.0 0.0093109
3150.0 0.009616
3170.0 0.0098152
3190.0 0.009972
3210.0 0.010289
3230.0 0.010731
3250.0 0.010854
3270.0 0.010578
3290.0 0.010205
3310.0 0.010038
3330.0 0.010015
3350.0 0.010084
3370.0 0.0102
3390.0 0.010394
3410.0 0.010531
3430.0 0.010419
3450.0 0.010438
3470.0 0.010532
3490.0 0.011642
3510.0 0.014831
3530.0 0.018341
3550.0 0.020883
3570.0 0.022882
3590.0 0.024008
3610.0 0.02379
3630.0 0.023244
3650.0 0.02479
3670.0 0.028807
3690.0 0.032748
3710.0 0.035702
3730.0 0.038334
3750.0 0.040823
3770.0 0.040223
3790.0 0.037421
3810.0 0.034741
3830.0 0.032384
3850.0 0.031842
3870.0 0.034213
3890.0 0.037363
3910.0 0.039804
3930.0 0.042359
3950.0 0.047272
3970.0 0.051212
3990.0 0.049119
4010.0 0.043429
4030.0 0.037953
4050.0 0.035814
4070.0 0.035408
4090.0 0.034715
4110.0 0.03449
4130.0 0.034175
4150.0 0.034338
4170.0 0.036448
4190.0 0.039542
4210.0 0.039432
4230.0 0.038139
4250.0 0.037816
4270.0 0.038678
4290.0 0.040965
4310.0 0.043128
4330.0 0.041412
4350.0 0.036498
4370.0 0.03228
4390.0 0.02875
4410.0 0.025582
4430.0 0.024987
4450.0 0.026452
4470.0 0.027934
4490.0 0.029939
4510.0 0.03427
4530.0 0.043696
4550.0 0.05725
4570.0 0.066061
4590.0 0.071333
4610.0 0.080126
4630.0 0.087118
4650.0 0.082819
4670.0 0.069621
4690.0 0.057336
4710.0 0.050618
4730.0 0.047595
4750.0 0.043873
4770.0 0.040809
4790.0 0.04269
4810.0 0.046571
4830.0 0.047558
4850.0 0.045267
4870.0 0.045341
4890.0 0.048752
4910.0 0.051843
4930.0 0.052969
4950.0 0.052082
4970.0 0.049057
4990.0 0.044246
5010.0 0.039735
5030.0 0.036638
5050.0 0.034837
5070.0 0.033492
5090.0 0.032172
5110.0 0.031686
5130.0 0.03167
5150.0 0.032522
5170.0 0.03561
5190.0 0.040113
5210.0 0.045384
5230.0 0.049323
5250.0 0.051916
5270.0 0.055085
5290.0 0.058835
5310.0 0.060654
5330.0 0.059299
5350.0 0.056467
5370.0 0.055963
5390.0 0.058966
5410.0 0.063869
5430.0 0.067856
5450.0 0.069942
5470.0 0.070125
5490.0 0.068581
5510.0 0.066883
5530.0 0.065795
5550.0 0.065107
5570.0 0.064048
5590.0 0.062388
5610.0 0.060022
5630.0 0.056248
5650.0 0.051431
5670.0 0.047773
5690.0 0.046089
5710.0 0.045288
5730.0 0.04426
5750.0 0.043211
5770.0 0.042525
5790.0 0.04247
5810.0 0.0422
5830.0 0.042091
5850.0 0.042049
5870.0 0.040973
5890.0 0.039365
5910.0 0.037264
5930.0 0.033721
5950.0 0.03015
5970.0 0.028283
5990.0 0.028053
6010.0 0.028058
6030.0 0.027142
6050.0 0.026277
6070.0 0.027285
6090.0 0.029382
6110.0 0.030601
6130.0 0.030124
6150.0 0.028887
6170.0 0.028039
6190.0 0.027324
6210.0 0.026004
6230.0 0.024041
6250.0 0.022615
6270.0 0.022322
6290.0 0.022345
6310.0 0.023263
6330.0 0.025379
6350.0 0.027927
6370.0 0.029567
6390.0 0.030459
6410.0 0.031398
6430.0 0.032136
6450.0 0.032811
6470.0 0.033597
6490.0 0.034403
6510.0 0.03505
6530.0 0.035283
6550.0 0.035274
6570.0 0.034488
6590.0 0.032853
6610.0 0.03152
6630.0 0.030655
6650.0 0.02953
6670.0 0.028035
6690.0 0.026769
6710.0 0.0261
6730.0 0.025534
6750.0 0.025032
6770.0 0.024816
6790.0 0.024606
6810.0 0.024051
6830.0 0.023578
6850.0 0.023986
6870.0 0.024345
6890.0 0.023993
6910.0 0.023634
6930.0 0.023353
6950.0 0.022822
6970.0 0.022012
6990.0 0.021251
7010.0 0.02078
7030.0 0.020349
7050.0 0.019421
7070.0 0.018229
7090.0 0.017923
7110.0 0.018598
7130.0 0.019662
7150.0 0.020633
7170.0 0.021385
7190.0 0.021571
7210.0 0.020952
7230.0 0.020542
7250.0 0.020801
7270.0 0.020705
7290.0 0.020445
7310.0 0.020631
7330.0 0.021331
7350.0 0.022297
7370.0 0.022905
7390.0 0.023132
7410.0 0.023129
7430.0 0.022672
7450.0 0.021936
7470.0 0.021268
7490.0 0.020484
7510.0 0.019832
7530.0 0.019683
7550.0 0.019721
7570.0 0.019792
7590.0 0.020043
7610.0 0.020104
7630.0 0.020151
7650.0 0.020777
7670.0 0.021689
7690.0 0.02259
7710.0 0.023343
7730.0 0.024041
7750.0 0.024798
7770.0 0.025532
7790.0 0.026166
7810.0 0.026455
7830.0 0.026099
7850.0 0.025301
7870.0 0.024271
7890.0 0.023254
7910.0 0.022802
7930.0 0.022513
7950.0 0.022093
7970.0 0.021673
7990.0 0.021579
8010.0 0.020381
8030.0 0.020276
8050.0 0.020132
8070.0 0.01988
8090.0 0.019641
8110.0 0.019626
8130.0 0.019724
8150.0 0.01966
8170.0 0.019509
8190.0 0.018986
8210.0 0.017949
8230.0 0.016935
8250.0 0.016435
8270.0 0.015857
8290.0 0.014907
8310.0 0.01408
8330.0 0.013593
8350.0 0.013224
8370.0 0.013407
8390.0 0.014231
8410.0 0.015192
8430.0 0.016253
8450.0 0.01751
8470.0 0.018495
8490.0 0.019503
8510.0 0.020436
8530.0 0.021346
8550.0 0.022114
8570.0 0.022685
8590.0 0.023153
8610.0 0.023738
8630.0 0.023941
8650.0 0.023534
8670.0 0.023606
8690.0 0.024315
8710.0 0.025186
8730.0 0.025417
8750.0 0.024986
8770.0 0.024937
8790.0 0.024918
8810.0 0.02437
8830.0 0.022676
8850.0 0.020579
8870.0 0.01907
8890.0 0.018455
8910.0 0.017687
8930.0 0.016478
8950.0 0.015524
8970.0 0.01528
8990.0 0.015474
9010.0 0.015483
9030.0 0.015337
9050.0 0.01522
9070.0 0.015134
9090.0 0.015054
9110.0 0.014975
9130.0 0.014896
9150.0 0.014819
9170.0 0.014741
9190.0 0.014666
9210.0 0.014593
9230.0 0.014516
9250.0 0.01444
9270.0 0.014366
9290.0 0.014292
9310.0 0.014219
9330.0 0.014147
9350.0 0.014075
9370.0 0.014004
9390.0 0.013934
9410.0 0.013864
9430.0 0.013792
9450.0 0.013711
9470.0 0.013634
9490.0 0.013578
9510.0 0.013516
9530.0 0.013454
9550.0 0.01339
9570.0 0.013325
9590.0 0.013261
9610.0 0.013197
9630.0 0.013132
9650.0 0.013069
9670.0 0.013006
9690.0 0.012943
9710.0 0.01288
9730.0 0.012819
9750.0 0.012758
9770.0 0.012695
9790.0 0.012634
9810.0 0.012574
9830.0 0.012513
9850.0 0.012449
9870.0 0.01239
9890.0 0.012331
9910.0 0.012271
9930.0 0.012212
9950.0 0.012147
9970.0 0.012089
9990.0 0.01203
10010.0 0.011968
10030.0 0.011907
10050.0 0.01185
10070.0 0.011793
10090.0 0.011736
10110.0 0.011672
10130.0 0.011586
10150.0 0.011531
10170.0 0.01148
10190.0 0.011424
10210.0 0.011368
10230.0 0.011312
10250.0 0.011251
10270.0 0.011189
10290.0 0.01113
10310.0 0.011067
10330.0 0.011001
10350.0 0.010939
10370.0 0.010877
10390.0 0.010811
10410.0 0.010745
10430.0 0.010683
10450.0 0.010617
10470.0 0.010548
10490.0 0.010483
10510.0 0.010417
10530.0 0.010345
10550.0 0.010275
10570.0 0.010208
10590.0 0.010137
10610.0 0.010064
10630.0 0.0099942
10650.0 0.0099232
10670.0 0.0098471
10690.0 0.0097726
10710.0 0.0096997
10730.0 0.0096231
10750.0 0.0095427
10770.0 0.0094677
10790.0 0.0093907
10810.0 0.0093096
10830.0 0.0092296
10850.0 0.009152
10870.0 0.0090678
10890.0 0.008983
10910.0 0.0089015
10930.0 0.0088186
10950.0 0.0087318
10970.0 0.0086475
10990.0 0.0085669
11010.0 0.0082207
11030.0 0.0081307
11050.0 0.0080467
11070.0 0.0079647
11090.0 0.007881
11110.0 0.0078055
11130.0 0.0077345
11150.0 0.0076648
11170.0 0.0075992
11190.0 0.0075408
11210.0 0.0074851
11230.0 0.0074324
11250.0 0.007386
11270.0 0.0073446
11290.0 0.0073056
11310.0 0.0072706
11330.0 0.007241
11350.0 0.0072132
11370.0 0.007187
11390.0 0.0071631
11410.0 0.0071402
11430.0 0.0071158
11450.0 0.007091
11470.0 0.0070655
11490.0 0.0070371
11510.0 0.007005
11530.0 0.0069709
11550.0 0.0069336
11570.0 0.0068909
11590.0 0.0068444
11610.0 0.0067952
11630.0 0.0067397
11650.0 0.006678
11670.0 0.0066141
11690.0 0.0065456
11710.0 0.0064696
11730.0 0.0063891
11750.0 0.0063068
11770.0 0.0062162
11790.0 0.0061192
11810.0 0.0060204
11830.0 0.0059175
11850.0 0.005805
11870.0 0.0056922
11890.0 0.0055807
11910.0 0.0054643
11930.0 0.005346
11950.0 0.0052328
11970.0 0.0051202
11990.0 0.0050055
12010.0 0.0048972
12030.0 0.0047949
12050.0 0.0046942
12070.0 0.0045966
12090.0 0.0045096
12110.0 0.0044266
12130.0 0.004347
12150.0 0.0042749
12170.0 0.0042105
12190.0 0.0041488
12210.0 0.0040943
12230.0 0.0040482
12250.0 0.0040082
12270.0 0.0039742
12290.0 0.0039478
12310.0 0.0039281
12330.0 0.003914
12350.0 0.0039057
12370.0 0.0039023
12390.0 0.0039031
12410.0 0.0039084
12430.0 0.0039159
12450.0 0.0039255
12470.0 0.0039373
12490.0 0.0039502
12510.0 0.0039627
12530.0 0.003976
12550.0 0.0039894
12570.0 0.0040014
12590.0 0.0040118
12610.0 0.0040212
12630.0 0.004028
12650.0 0.0040311
12670.0 0.004031
12690.0 0.0040269
12710.0 0.0040182
12730.0 0.0040049
12750.0 0.003986
12770.0 0.0039621
12790.0 0.0039339
12810.0 0.0039007
12830.0 0.0038625
12850.0 0.0038224
12870.0 0.0037799
12890.0 0.0037342
12910.0 0.0036879
12930.0 0.0036426
12950.0 0.003596
12970.0 0.0035496
12990.0 0.0035063
13010.0 0.0034644
13030.0 0.0034233
13050.0 0.0033845
13070.0 0.0033487
13090.0 0.0033135
13110.0 0.0032799
13130.0 0.0032488
13150.0 0.0032192
13170.0 0.00319
13190.0 0.0031631
13210.0 0.0031381
13230.0 0.0031138
13250.0 0.0030907
13270.0 0.0030695
13290.0 0.003049
13310.0 0.0030289
13330.0 0.0030099
13350.0 0.0029917
13370.0 0.0029732
13390.0 0.0029544
13410.0 0.0029362
13430.0 0.0029171
13450.0 0.0028968
13470.0 0.002876
13490.0 0.0028545
13510.0 0.0028306
13530.0 0.0028057
13550.0 0.0027803
13570.0 0.0027534
13590.0 0.0027246
13610.0 0.0026957
13630.0 0.0026667
13650.0 0.002636
13670.0 0.0026051
13690.0 0.0025748
13710.0 0.0025441
13730.0 0.0025121
13750.0 0.002482
13770.0 0.0024523
13790.0 0.0024221
13810.0 0.0023926
13830.0 0.0023647
13850.0 0.0023365
13870.0 0.0023086
13890.0 0.0022825
13910.0 0.0022575
13930.0 0.0022328
13950.0 0.0022094
13970.0 0.0021885
13990.0 0.0021683
14010.0 0.0021492
14030.0 0.0021321
14050.0 0.0021164
14070.0 0.0021012
14090.0 0.0020876
14110.0 0.0020753
14130.0 0.0020636
14150.0 0.0020524
14170.0 0.0020424
14190.0 0.0020328
14210.0 0.0020232
14230.0 0.0020141
14250.0 0.0020055
14270.0 0.0019966
14290.0 0.0019876
14310.0 0.0019791
14330.0 0.0019705
14350.0 0.0019616
14370.0 0.0019528
14390.0 0.0019443
14410.0 0.0019355
14430.0 0.0019265
14450.0 0.001918
14470.0 0.0019096
14490.0 0.0019008
14510.0 0.0018925
14530.0 0.0018845
14550.0 0.0018762
14570.0 0.0018677
14590.0 0.0018595
14610.0 0.0018509
14630.0 0.0018416
14650.0 0.0018324
14670.0 0.0018232
14690.0 0.0018138
14710.0 0.0018047
14730.0 0.001797
14750.0 0.0017906
14770.0 0.0017861
14790.0 0.0017844
14810.0 0.001786
14830.0 0.0017917
14850.0 0.0018019
14870.0 0.0018164
14890.0 0.0018354
14910.0 0.0018589
14930.0 0.0018846
14950.0 0.0019111
14970.0 0.0019384
14990.0 0.0019634
15010.0 0.0019845
15030.0 0.0020022
15050.0 0.0020162
15070.0 0.002026
15090.0 0.0020333
15110.0 0.0020387
15130.0 0.002043
15150.0 0.0020467
15170.0 0.0020501
15190.0 0.0020533
15210.0 0.0020566
15230.0 0.00206
15250.0 0.0020634
15270.0 0.0020669
15290.0 0.0020705
15310.0 0.0020741
15330.0 0.0020778
15350.0 0.0020816
15370.0 0.0020855
15390.0 0.0020894
15410.0 0.0020934
15430.0 0.0020975
15450.0 0.0021017
15470.0 0.0021059
15490.0 0.0021102
15510.0 0.0021145
15530.0 0.0021189
15550.0 0.0021234
15570.0 0.002128
15590.0 0.0021326
15610.0 0.0021372
15630.0 0.002142
15650.0 0.0021468
15670.0 0.0021516
15690.0 0.0021565
15710.0 0.0021615
15730.0 0.0021665
15750.0 0.0021715
15770.0 0.0021767
15790.0 0.0021819
15810.0 0.0021871
15830.0 0.0021923
15850.0 0.0021977
15870.0 0.002203
15890.0 0.0022084
15910.0 0.0022139
15930.0 0.0022194
15950.0 0.0022249
15970.0 0.0022304
15990.0 0.002236
16010.0 0.0022417
16030.0 0.0022473
16050.0 0.002253
16070.0 0.0022588
16090.0 0.0022645
16110.0 0.0022703
16130.0 0.0022761
16150.0 0.002282
16170.0 0.0022878
16190.0 0.0022937
16210.0 0.0022996
16230.0 0.0023055
16250.0 0.0023114
16270.0 0.0023173
16290.0 0.0023233
16310.0 0.0023292
16330.0 0.0023352
16350.0 0.0023411
16370.0 0.0023471
16390.0 0.002353
16410.0 0.002359
16430.0 0.0023649
16450.0 0.0023709
16470.0 0.0023768
16490.0 0.0023828
16510.0 0.0023887
16530.0 0.0023946
16550.0 0.0024005
16570.0 0.0024063
16590.0 0.0024121
16610.0 0.002418
16630.0 0.0024238
16650.0 0.0024295
16670.0 0.0024353
16690.0 0.002441
16710.0 0.0024467
16730.0 0.0024523
16750.0 0.0024579
16770.0 0.0024635
16790.0 0.002469
16810.0 0.0024744
16830.0 0.0024799
16850.0 0.0024852
16870.0 0.0024905
16890.0 0.0024958
16910.0 0.002501
16930.0 0.0025062
16950.0 0.0025113
16970.0 0.0025163
16990.0 0.0025213
17010.0 0.0025262
17030.0 0.002531
17050.0 0.0025357
17070.0 0.0025404
17090.0 0.002545
17110.0 0.0025496
17130.0 0.002554
17150.0 0.0025584
17170.0 0.0025627
17190.0 0.0025669
17210.0 0.002571
17230.0 0.002575
17250.0 0.0025789
17270.0 0.0025828
17290.0 0.0025865
17310.0 0.0025902
17330.0 0.0025937
17350.0 0.0025971
17370.0 0.0026005
17390.0 0.0026037
17410.0 0.0026068
17430.0 0.0026099
17450.0 0.0026128
17470.0 0.0026156
17490.0 0.0026182
17510.0 0.0026208
17530.0 0.0026233
17550.0 0.0026256
17570.0 0.0026278
17590.0 0.0026299
17610.0 0.0026319
17630.0 0.0026337
17650.0 0.0026354
17670.0 0.002637
17690.0 0.0026385
17710.0 0.0026398
17730.0 0.002641
17750.0 0.0026421
17770.0 0.002643
17790.0 0.0026439
17810.0 0.0026445
17830.0 0.0026451
17850.0 0.0026455
17870.0 0.0026457
17890.0 0.0026459
17910.0 0.0026458
17930.0 0.0026457
17950.0 0.0026454
17970.0 0.002645
17990.0 0.0026444
18010.0 0.0026437
18030.0 0.0026428
18050.0 0.0026418
18070.0 0.0026407
18090.0 0.0026394
18110.0 0.0026379
18130.0 0.0026364
18150.0 0.0026346
18170.0 0.0026327
18190.0 0.0026307
18210.0 0.0026286
18230.0 0.0026263
18250.0 0.0026238
18270.0 0.0026212
18290.0 0.0026185
18310.0 0.0026156
18330.0 0.0026125
18350.0 0.0026094
18370.0 0.002606
18390.0 0.0026026
18410.0 0.002599
18430.0 0.0025952
18450.0 0.0025913
18470.0 0.0025873
18490.0 0.0025831
18510.0 0.0025788
18530.0 0.0025743
18550.0 0.0025697
18570.0 0.002565
18590.0 0.0025601
18610.0 0.0025551
18630.0 0.0025499
18650.0 0.0025446
18670.0 0.0025392
18690.0 0.0025336
18710.0 0.002528
18730.0 0.0025221
18750.0 0.0025162
18770.0 0.0025101
18790.0 0.0025039
18810.0 0.0024975
18830.0 0.0024911
18850.0 0.0024845
18870.0 0.0024777
18890.0 0.0024709
18910.0 0.002464
18930.0 0.0024569
18950.0 0.0024497
18970.0 0.0024424
18990.0 0.0024349
19010.0 0.0024274
19030.0 0.0024197
19050.0 0.002412
19070.0 0.0024041
19090.0 0.0023961
19110.0 0.002388
19130.0 0.0023798
19150.0 0.0023715
19170.0 0.0023631
19190.0 0.0023546
19210.0 0.002346
19230.0 0.0023373
19250.0 0.0023285
19270.0 0.0023196
19290.0 0.0023106
19310.0 0.0023015
19330.0 0.0022924
19350.0 0.0022831
19370.0 0.0022738
19390.0 0.0022644
19410.0 0.0022549
19430.0 0.0022453
19450.0 0.0022357
19470.0 0.002226
19490.0 0.0022162
19510.0 0.0022063
19530.0 0.0021964
19550.0 0.0021864
19570.0 0.0021763
19590.0 0.0021662
19610.0 0.002156
19630.0 0.0021457
19650.0 0.0021354
19670.0 0.0021251
19690.0 0.0021146
19710.0 0.0021041
19730.0 0.0020936
19750.0 0.002083
19770.0 0.0020724
19790.0 0.0020617
19810.0 0.002051
19830.0 0.0020402
19850.0 0.0020293
19870.0 0.0020182
19890.0 0.0020067
19910.0 0.0019945
19930.0 0.0019814
19950.0 0.0019667
19970.0 0.0019498
19990.0 0.0019301
20010.0 0.0019081
20030.0 0.0018828
20050.0 0.0018545
20070.0 0.0018244
20090.0 0.001793
20110.0 0.0017591
20130.0 0.0017255
20150.0 0.0016925
20170.0 0.0016592
20190.0 0.001626
20210.0 0.0015943
20230.0 0.0015633
20250.0 0.0015322
20270.0 0.0015026
20290.0 0.0014744
20310.0 0.0014467
20330.0 0.0014196
20350.0 0.0013948
20370.0 0.001371
20390.0 0.0013481
20410.0 0.0013267
20430.0 0.001307
20450.0 0.001288
20470.0 0.0012703
20490.0 0.0012542
20510.0 0.0012393
20530.0 0.0012253
20550.0 0.0012126
20570.0 0.001201
20590.0 0.0011902
20610.0 0.0011803
20630.0 0.0011712
20650.0 0.0011627
20670.0 0.0011547
20690.0 0.0011472
20710.0 0.0011399
20730.0 0.0011329
20750.0 0.001126
20770.0 0.001119
20790.0 0.0011119
20810.0 0.0011047
20830.0 0.0010972
20850.0 0.0010894
20870.0 0.0010813
20890.0 0.0010726
20910.0 0.0010636
20930.0 0.0010541
20950.0 0.0010441
20970.0 0.0010336
20990.0 0.0010229
21010.0 0.0010115
21030.0 0.00099978
21050.0 0.00098787
21070.0 0.00097557
21090.0 0.00096283
21110.0 0.00095015
21130.0 0.00093738
21150.0 0.00092429
21170.0 0.00091119
21190.0 0.00089831
21210.0 0.00088521
21230.0 0.00087204
21250.0 0.00085923
21270.0 0.00084657
21290.0 0.00083385
21310.0 0.00082139
21330.0 0.00080942
21350.0 0.00079748
21370.0 0.00078574
21390.0 0.00077449
21410.0 0.00076358
21430.0 0.00075273
21450.0 0.00074244
21470.0 0.00073267
21490.0 0.00072317
21510.0 0.00071404
21530.0 0.00070546
21550.0 0.00069724
21570.0 0.00068932
21590.0 0.00068185
21610.0 0.00067477
21630.0 0.00066796
21650.0 0.00066141
21670.0 0.00065522
21690.0 0.00064923
21710.0 0.00064341
21730.0 0.00063776
21750.0 0.00063225
21770.0 0.00062681
21790.0 0.00062144
21810.0 0.00061613
21830.0 0.00061083
21850.0 0.00060553
21870.0 0.00060023
21890.0 0.00059494
21910.0 0.0005896
21930.0 0.00058422
21950.0 0.00057883
21970.0 0.00057339
21990.0 0.00056785
22010.0 0.00056229
22030.0 0.00055669
22050.0 0.00055098
22070.0 0.00054518
22090.0 0.00053937
22110.0 0.00053343
22130.0 0.00052735
22150.0 0.00052122
22170.0 0.00051502
22190.0 0.00050861
22210.0 0.0005021
22230.0 0.00049561
22250.0 0.00048896
22270.0 0.00048215
22290.0 0.00047535
22310.0 0.00046852
22330.0 0.00046144
22350.0 0.00045436
22370.0 0.00044733
22390.0 0.00044019
22410.0 0.00043289
22430.0 0.00042577
22450.0 0.00041866
22470.0 0.00041142
22490.0 0.00040425
22510.0 0.00039726
22530.0 0.00039016
22550.0 0.00038306
22570.0 0.00037623
22590.0 0.00036951
22610.0 0.00036278
22630.0 0.00035626
22650.0 0.00035005
22670.0 0.00034389
22690.0 0.00033789
22710.0 0.00033222
22730.0 0.00032678
22750.0 0.00032139
22770.0 0.00031637
22790.0 0.00031165
22810.0 0.00030709
22830.0 0.00030274
22850.0 0.00029871
22870.0 0.00029486
22890.0 0.00029116
22910.0 0.0002877
22930.0 0.00028444
22950.0 0.0002813
22970.0 0.00027829
22990.0 0.00027547
23010.0 0.00027275
23030.0 0.0002701
23050.0 0.00026756
23070.0 0.00026511
23090.0 0.00026268
23110.0 0.00026031
23130.0 0.00025799
23150.0 0.0002557
23170.0 0.00025341
23190.0 0.00025114
23210.0 0.00024889
23230.0 0.0002466
23250.0 0.00024428
23270.0 0.00024196
23290.0 0.00023958
23310.0 0.0002371
23330.0 0.00023461
23350.0 0.00023207
23370.0 0.00022942
23390.0 0.00022673
23410.0 0.00022404
23430.0 0.00022129
23450.0 0.00021849
23470.0 0.00021575
23490.0 0.00021306
23510.0 0.00021035
23530.0 0.00020774
23550.0 0.00020531
23570.0 0.00020296
23590.0 0.00020075
23610.0 0.00019874
23630.0 0.00019693
23650.0 0.00019528
23670.0 0.00019387
23690.0 0.0001927
23710.0 0.00019176
23730.0 0.00019108
23750.0 0.00019065
23770.0 0.00019047
23790.0 0.0001906
23810.0 0.00019099
23830.0 0.00019161
23850.0 0.00019258
23870.0 0.00019387
23890.0 0.00019533
23910.0 0.00019702
23930.0 0.00019902
23950.0 0.00020114
23970.0 0.00020326
23990.0 0.00020557
24010.0 0.00020792
24030.0 0.00021013
