#lamb flux
1010.0 9.9761e-08
1030.0 1.0828e-07
1050.0 1.1808e-07
1070.0 1.2912e-07
1090.0 1.4167e-07
1110.0 1.5454e-07
1130.0 1.6751e-07
1150.0 1.811e-07
1170.0 1.9514e-07
1190.0 2.0846e-07
1210.0 2.2197e-07
1230.0 2.3596e-07
1250.0 2.4967e-07
1270.0 2.6301e-07
1290.0 2.7712e-07
1310.0 2.9124e-07
1330.0 3.0481e-07
1350.0 3.1855e-07
1370.0 3.3276e-07
1390.0 3.4663e-07
1410.0 3.6013e-07
1430.0 3.7425e-07
1450.0 3.884e-07
1470.0 4.021e-07
1490.0 4.1597e-07
1510.0 4.3063e-07
1530.0 4.4456e-07
1550.0 4.5832e-07
1570.0 4.7256e-07
1590.0 4.8682e-07
1610.0 5.0046e-07
1630.0 5.1452e-07
1650.0 5.2894e-07
1670.0 5.4289e-07
1690.0 5.5664e-07
1710.0 5.7088e-07
1730.0 5.8517e-07
1750.0 5.9858e-07
1770.0 6.1232e-07
1790.0 6.2628e-07
1810.0 6.3971e-07
1830.0 6.5283e-07
1850.0 6.6667e-07
1870.0 6.8003e-07
1890.0 6.9281e-07
1910.0 7.0573e-07
1930.0 7.1883e-07
1950.0 7.3115e-07
1970.0 7.4314e-07
1990.0 7.5546e-07
2010.0 7.6736e-07
2030.0 7.7858e-07
2050.0 7.8999e-07
2070.0 8.0152e-07
2090.0 8.1204e-07
2110.0 8.2229e-07
2130.0 8.3268e-07
2150.0 8.4257e-07
2170.0 8.5164e-07
2190.0 8.6092e-07
2210.0 8.7e-07
2230.0 8.7829e-07
2250.0 8.8625e-07
2270.0 8.9447e-07
2290.0 9.02e-07
2310.0 9.0873e-07
2330.0 9.1555e-07
2350.0 9.2216e-07
2370.0 9.2798e-07
2390.0 9.3365e-07
2410.0 9.3964e-07
2430.0 9.4508e-07
2450.0 9.5022e-07
2470.0 9.5595e-07
2490.0 9.6284e-07
2510.0 9.7119e-07
2530.0 9.8488e-07
2550.0 1.0101e-06
2570.0 1.0532e-06
2590.0 1.1215e-06
2610.0 1.2343e-06
2630.0 1.3958e-06
2650.0 1.5965e-06
2670.0 1.838e-06
2690.0 2.1104e-06
2710.0 2.3754e-06
2730.0 2.6145e-06
2750.0 2.8321e-06
2770.0 3.0076e-06
2790.0 3.1396e-06
2810.0 3.2449e-06
2830.0 3.3358e-06
2850.0 3.4086e-06
2870.0 3.4758e-06
2890.0 3.5454e-06
2910.0 3.6152e-06
2930.0 3.6818e-06
2950.0 3.7533e-06
2970.0 3.8282e-06
2990.0 3.9007e-06
3010.0 2.6768e-05
3030.0 2.7282e-05
3050.0 2.7784e-05
3070.0 2.821e-05
3090.0 2.8563e-05
3110.0 2.8736e-05
3130.0 2.86e-05
3150.0 2.8041e-05
3170.0 2.6837e-05
3190.0 2.4979e-05
3210.0 2.2541e-05
3230.0 1.9847e-05
3250.0 2.1907e-05
3270.0 1.9215e-05
3290.0 2.4778e-05
3310.0 1.8934e-05
3330.0 1.9152e-05
3350.0 2.0303e-05
3370.0 2.1749e-05
3390.0 2.3396e-05
3410.0 2.507e-05
3430.0 2.6847e-05
3450.0 2.8692e-05
3470.0 3.0463e-05
3490.0 3.1938e-05
3510.0 3.5052e-05
3530.0 3.9884e-05
3550.0 4.0191e-05
3570.0 3.7983e-05
3590.0 4.3926e-05
3610.0 3.833e-05
3630.0 4.7364e-05
3650.0 5.1948e-05
3670.0 5.9159e-05
3690.0 5.7219e-05
3710.0 4.7739e-05
3730.0 5.2622e-05
3750.0 5.2986e-05
3770.0 5.7216e-05
3790.0 6.0251e-05
3810.0 6.8021e-05
3830.0 9.5606e-05
3850.0 0.00011966
3870.0 0.00014242
3890.0 0.00014729
3910.0 0.00014132
3930.0 0.0001427
3950.0 0.0001493
3970.0 0.00013904
3990.0 8.4586e-05
4010.0 5.7195e-05
4030.0 9.4281e-05
4050.0 0.00012816
4070.0 0.00012134
4090.0 7.2286e-05
4110.0 5.7153e-05
4130.0 9.3957e-05
4150.0 0.00010542
4170.0 8.805e-05
4190.0 7.386e-05
4210.0 0.00010598
4230.0 9.7466e-05
4250.0 9.3988e-05
4270.0 9.3577e-05
4290.0 8.4317e-05
4310.0 0.00010226
4330.0 0.00011793
4350.0 0.0001215
4370.0 0.00011219
4390.0 0.00011802
4410.0 0.00011099
4430.0 8.3318e-05
4450.0 6.5488e-05
4470.0 7.7922e-05
4490.0 7.3713e-05
4510.0 0.00010617
4530.0 0.00010922
4550.0 0.00011124
4570.0 0.00013881
4590.0 0.00016129
4610.0 0.00019099
4630.0 0.00025378
4650.0 0.00027954
4670.0 0.00028318
4690.0 0.00027143
4710.0 0.00026942
4730.0 0.0002385
4750.0 0.00017612
4770.0 0.00014302
4790.0 0.00011265
4810.0 0.00012117
4830.0 0.00013925
4850.0 0.00014079
4870.0 0.0001265
4890.0 0.00017296
4910.0 0.0001778
4930.0 0.00019264
4950.0 0.00022618
4970.0 0.00023371
4990.0 0.00026583
5010.0 0.00027549
5030.0 0.00025402
5050.0 0.00020327
5070.0 0.00014656
5090.0 0.00012346
5110.0 0.00012516
5130.0 0.00013092
5150.0 0.00012425
5170.0 0.00011956
5190.0 0.00012624
5210.0 0.00012984
5230.0 0.00014284
5250.0 0.00015328
5270.0 0.00014742
5290.0 0.00017045
5310.0 0.00021325
5330.0 0.00023319
5350.0 0.00021946
5370.0 0.00022103
5390.0 0.00023916
5410.0 0.00023986
5430.0 0.00023294
5450.0 0.00024229
5470.0 0.00026817
5490.0 0.00031904
5510.0 0.00038221
5530.0 0.00039839
5550.0 0.00039773
5570.0 0.00039197
5590.0 0.00037547
5610.0 0.0003556
5630.0 0.0003576
5650.0 0.00037113
5670.0 0.00035885
5690.0 0.00032527
5710.0 0.00032063
5730.0 0.00029672
5750.0 0.0002648
5770.0 0.00023587
5790.0 0.00025022
5810.0 0.00026773
5830.0 0.00029522
5850.0 0.00029106
5870.0 0.00028501
5890.0 0.00029297
5910.0 0.00027067
5930.0 0.00024989
5950.0 0.00025048
5970.0 0.00026159
5990.0 0.00023097
6010.0 0.00019537
6030.0 0.00016986
6050.0 0.00015373
6070.0 0.00014494
6090.0 0.00015489
6110.0 0.00017171
6130.0 0.00017249
6150.0 0.00017398
6170.0 0.00018251
6190.0 0.00019695
6210.0 0.00022633
6230.0 0.00026364
6250.0 0.0002458
6270.0 0.00021533
6290.0 0.00018583
6310.0 0.00015407
6330.0 0.00013548
6350.0 0.00013001
6370.0 0.00013883
6390.0 0.00015491
6410.0 0.00018576
6430.0 0.00022819
6450.0 0.00026463
6470.0 0.00029324
6490.0 0.00033396
6510.0 0.00036402
6530.0 0.00035167
6550.0 0.00033641
6570.0 0.00033955
6590.0 0.00033932
6610.0 0.00033634
6630.0 0.00031644
6650.0 0.00028567
6670.0 0.00027603
6690.0 0.00027061
6710.0 0.00027406
6730.0 0.00023968
6750.0 0.00020575
6770.0 0.00020224
6790.0 0.00021569
6810.0 0.00024115
6830.0 0.00024439
6850.0 0.00022463
6870.0 0.00022379
6890.0 0.0002208
6910.0 0.00020797
6930.0 0.00021087
6950.0 0.00020639
6970.0 0.00020357
6990.0 0.00020953
7010.0 0.00022251
7030.0 0.00021907
7050.0 0.00020135
7070.0 0.00019322
7090.0 0.00017074
7110.0 0.00014791
7130.0 0.00014568
7150.0 0.00015465
7170.0 0.00016877
7190.0 0.00016962
7210.0 0.00016471
7230.0 0.00018063
7250.0 0.00019479
7270.0 0.00020203
7290.0 0.00020657
7310.0 0.00020661
7330.0 0.0001946
7350.0 0.00018044
7370.0 0.00016805
7390.0 0.00016471
7410.0 0.00018071
7430.0 0.000209
7450.0 0.00022949
7470.0 0.00025089
7490.0 0.00029055
7510.0 0.00028632
7530.0 0.00023937
7550.0 0.00020772
7570.0 0.0001741
7590.0 0.00015216
7610.0 0.00014784
7630.0 0.00014675
7650.0 0.00015895
7670.0 0.00018073
7690.0 0.00019831
7710.0 0.00022597
7730.0 0.0002346
7750.0 0.00024279
7770.0 0.00026006
7790.0 0.00027056
7810.0 0.00026648
7830.0 0.00024487
7850.0 0.00024289
7870.0 0.00023644
7890.0 0.00022604
7910.0 0.00020941
7930.0 0.00019824
7950.0 0.00016595
7970.0 0.00016022
7990.0 0.00016094
8010.0 0.00018685
8030.0 0.00018717
8050.0 0.00019739
8070.0 0.00019211
8090.0 0.00019262
8110.0 0.00018919
8130.0 0.00018202
8150.0 0.00016901
8170.0 0.00016728
8190.0 0.00016872
8210.0 0.0001705
8230.0 0.00015394
8250.0 0.00014262
8270.0 0.00012575
8290.0 0.00010557
8310.0 8.8499e-05
8330.0 6.6608e-05
8350.0 5.1842e-05
8370.0 4.852e-05
8390.0 4.9598e-05
8410.0 5.5139e-05
8430.0 7.052e-05
8450.0 7.7693e-05
8470.0 8.3893e-05
8490.0 9.5625e-05
8510.0 0.00010361
8530.0 0.00011601
8550.0 0.00013727
8570.0 0.00015325
8590.0 0.0001637
8610.0 0.00018573
8630.0 0.00021405
8650.0 0.00022251
8670.0 0.00022719
8690.0 0.00023085
8710.0 0.00022498
8730.0 0.00021604
8750.0 0.0001998
8770.0 0.00019813
8790.0 0.00019332
8810.0 0.00017831
8830.0 0.00017346
8850.0 0.00015421
8870.0 0.00014431
8890.0 0.00013093
8910.0 0.00014614
8930.0 0.00013483
8950.0 0.00013668
8970.0 0.00013992
8990.0 0.00013751
9010.0 0.00014004
9030.0 0.00013362
9050.0 0.00013313
9070.0 0.00013327
9090.0 0.00013339
9110.0 0.00013361
9130.0 0.00013372
9150.0 0.00013378
9170.0 0.00013356
9190.0 0.00013296
9210.0 0.00013479
9230.0 0.00013446
9250.0 0.00013434
9270.0 0.00013427
9290.0 0.00013425
9310.0 0.00013424
9330.0 0.00013425
9350.0 0.00013427
9370.0 0.00013429
9390.0 0.0001343
9410.0 0.00013432
9430.0 0.00013434
9450.0 0.00013435
9470.0 0.00013436
9490.0 0.00013437
9510.0 0.00013438
9530.0 0.00013439
9550.0 0.00013441
9570.0 0.00013442
9590.0 0.00013444
9610.0 0.00013445
9630.0 0.00013448
9650.0 0.0001345
9670.0 0.00013452
9690.0 0.00013455
9710.0 0.00013459
9730.0 0.00013462
9750.0 0.00013466
9770.0 0.00013472
9790.0 0.00013477
9810.0 0.00013482
9830.0 0.00013489
9850.0 0.00013496
9870.0 0.00013503
9890.0 0.0001351
9910.0 0.00013519
9930.0 0.00013528
9950.0 0.00013524
9970.0 0.00013539
9990.0 0.00013554
10010.0 0.00013566
10030.0 0.0001358
10050.0 0.00013588
10070.0 0.00013567
10090.0 0.00013592
10110.0 0.00013617
10130.0 0.00013639
10150.0 0.00013659
10170.0 0.00013677
10190.0 0.00013694
10210.0 0.00013711
10230.0 0.00013729
10250.0 0.00013746
10270.0 0.00013763
10290.0 0.00013782
10310.0 0.00013799
10330.0 0.00013817
10350.0 0.00013836
10370.0 0.00013855
10390.0 0.00013873
10410.0 0.00013892
10430.0 0.00013912
10450.0 0.00013931
10470.0 0.0001395
10490.0 0.00013969
10510.0 0.00013989
10530.0 0.00014008
10550.0 0.00014027
10570.0 0.00014046
10590.0 0.00014065
10610.0 0.00014083
10630.0 0.00014102
10650.0 0.00014121
10670.0 0.00014139
10690.0 0.00014156
10710.0 0.00014174
10730.0 0.00014191
10750.0 0.00014208
10770.0 0.00014225
10790.0 0.00014241
10810.0 0.00014256
10830.0 0.00014271
10850.0 0.00014284
10870.0 0.00014293
10890.0 0.00014294
10910.0 0.00014286
10930.0 0.00014258
10950.0 0.00014198
10970.0 0.000141
10990.0 0.00013961
11010.0 0.00014266
11030.0 0.00013983
11050.0 0.00013655
11070.0 0.00013279
11090.0 0.00012845
11110.0 0.00012414
11130.0 0.00011985
11150.0 0.00011547
11170.0 0.00011123
11190.0 0.00010741
11210.0 0.00010377
11230.0 0.00010035
11250.0 9.7377e-05
11270.0 9.478e-05
11290.0 9.2412e-05
11310.0 9.036e-05
11330.0 8.8674e-05
11350.0 8.7145e-05
11370.0 8.5736e-05
11390.0 8.4461e-05
11410.0 8.3236e-05
11430.0 8.1922e-05
11450.0 8.0568e-05
11470.0 7.9161e-05
11490.0 7.7612e-05
11510.0 7.5889e-05
11530.0 7.4122e-05
11550.0 7.2274e-05
11570.0 7.0275e-05
11590.0 6.8241e-05
11610.0 6.6248e-05
11630.0 6.4187e-05
11650.0 6.2106e-05
11670.0 6.017e-05
11690.0 5.8302e-05
11710.0 5.6456e-05
11730.0 5.4721e-05
11750.0 5.3139e-05
11770.0 5.1586e-05
11790.0 5.0101e-05
11810.0 4.8738e-05
11830.0 4.744e-05
11850.0 4.6134e-05
11870.0 4.4909e-05
11890.0 4.3753e-05
11910.0 4.2583e-05
11930.0 4.1413e-05
11950.0 4.0293e-05
11970.0 3.9166e-05
11990.0 3.7996e-05
12010.0 3.6859e-05
12030.0 3.5756e-05
12050.0 3.4638e-05
12070.0 3.3527e-05
12090.0 3.2522e-05
12110.0 3.156e-05
12130.0 3.0648e-05
12150.0 2.9849e-05
12170.0 2.9176e-05
12190.0 2.8593e-05
12210.0 2.8164e-05
12230.0 2.7901e-05
12250.0 2.7793e-05
12270.0 2.7859e-05
12290.0 2.8092e-05
12310.0 2.8471e-05
12330.0 2.9021e-05
12350.0 2.971e-05
12370.0 3.0485e-05
12390.0 3.1359e-05
12410.0 3.2349e-05
12430.0 3.3313e-05
12450.0 3.4266e-05
12470.0 3.5227e-05
12490.0 3.6132e-05
12510.0 3.6924e-05
12530.0 3.7655e-05
12550.0 3.8299e-05
12570.0 3.8809e-05
12590.0 3.9203e-05
12610.0 3.95e-05
12630.0 3.968e-05
12650.0 3.9743e-05
12670.0 3.9717e-05
12690.0 3.96e-05
12710.0 3.9404e-05
12730.0 3.9144e-05
12750.0 3.8809e-05
12770.0 3.8425e-05
12790.0 3.8004e-05
12810.0 3.7535e-05
12830.0 3.7016e-05
12850.0 3.6481e-05
12870.0 3.5914e-05
12890.0 3.529e-05
12910.0 3.4634e-05
12930.0 3.3958e-05
12950.0 3.3213e-05
12970.0 3.2408e-05
12990.0 3.1596e-05
13010.0 3.0746e-05
13030.0 2.9837e-05
13050.0 2.8919e-05
13070.0 2.8024e-05
13090.0 2.7098e-05
13110.0 2.6183e-05
13130.0 2.5331e-05
13150.0 2.4527e-05
13170.0 2.375e-05
13190.0 2.3079e-05
13210.0 2.251e-05
13230.0 2.2016e-05
13250.0 2.1619e-05
13270.0 2.1329e-05
13290.0 2.1125e-05
13310.0 2.1002e-05
13330.0 2.0958e-05
13350.0 2.0974e-05
13370.0 2.1038e-05
13390.0 2.1136e-05
13410.0 2.1242e-05
13430.0 2.135e-05
13450.0 2.1449e-05
13470.0 2.1523e-05
13490.0 2.1567e-05
13510.0 2.158e-05
13530.0 2.1555e-05
13550.0 2.15e-05
13570.0 2.1417e-05
13590.0 2.131e-05
13610.0 2.1192e-05
13630.0 2.107e-05
13650.0 2.0944e-05
13670.0 2.0825e-05
13690.0 2.0719e-05
13710.0 2.0624e-05
13730.0 2.0539e-05
13750.0 2.047e-05
13770.0 2.0409e-05
13790.0 2.0353e-05
13810.0 2.0297e-05
13830.0 2.0239e-05
13850.0 2.017e-05
13870.0 2.0086e-05
13890.0 1.9987e-05
13910.0 1.987e-05
13930.0 1.973e-05
13950.0 1.9571e-05
13970.0 1.9405e-05
13990.0 1.9224e-05
14010.0 1.9034e-05
14030.0 1.885e-05
14050.0 1.8673e-05
14070.0 1.8498e-05
14090.0 1.8343e-05
14110.0 1.8207e-05
14130.0 1.8088e-05
14150.0 1.7988e-05
14170.0 1.791e-05
14190.0 1.785e-05
14210.0 1.7806e-05
14230.0 1.7781e-05
14250.0 1.7773e-05
14270.0 1.7783e-05
14290.0 1.7813e-05
14310.0 1.786e-05
14330.0 1.7927e-05
14350.0 1.8018e-05
14370.0 1.8127e-05
14390.0 1.8249e-05
14410.0 1.8394e-05
14430.0 1.8555e-05
14450.0 1.8721e-05
14470.0 1.8899e-05
14490.0 1.9096e-05
14510.0 1.9293e-05
14530.0 1.9493e-05
14550.0 1.9713e-05
14570.0 1.995e-05
14590.0 2.0195e-05
14610.0 2.047e-05
14630.0 2.0788e-05
14650.0 2.1131e-05
14670.0 2.1506e-05
14690.0 2.1939e-05
14710.0 2.2425e-05
14730.0 2.2923e-05
14750.0 2.3471e-05
14770.0 2.4069e-05
14790.0 2.4678e-05
14810.0 2.5289e-05
14830.0 2.5947e-05
14850.0 2.6588e-05
14870.0 2.7185e-05
14890.0 2.7761e-05
14910.0 2.8304e-05
14930.0 2.8766e-05
14950.0 2.9151e-05
14970.0 2.9473e-05
14990.0 2.9706e-05
15010.0 2.9852e-05
15030.0 2.993e-05
15050.0 2.9947e-05
15070.0 2.9915e-05
15090.0 2.9852e-05
15110.0 2.9768e-05
15130.0 2.9671e-05
15150.0 2.9572e-05
15170.0 2.9467e-05
15190.0 2.936e-05
15210.0 2.9255e-05
15230.0 2.9151e-05
15250.0 2.9044e-05
15270.0 2.8938e-05
15290.0 2.8837e-05
15310.0 2.8733e-05
15330.0 2.8629e-05
15350.0 2.8528e-05
15370.0 2.8427e-05
15390.0 2.8323e-05
15410.0 2.8222e-05
15430.0 2.8123e-05
15450.0 2.8022e-05
15470.0 2.792e-05
15490.0 2.7823e-05
15510.0 2.7725e-05
15530.0 2.7625e-05
15550.0 2.7527e-05
15570.0 2.7432e-05
15590.0 2.7334e-05
15610.0 2.7235e-05
15630.0 2.714e-05
15650.0 2.7045e-05
15670.0 2.6948e-05
15690.0 2.6852e-05
15710.0 2.676e-05
15730.0 2.6665e-05
15750.0 2.6569e-05
15770.0 2.6477e-05
15790.0 2.6384e-05
15810.0 2.6288e-05
15830.0 2.6195e-05
15850.0 2.6105e-05
15870.0 2.6012e-05
15890.0 2.5919e-05
15910.0 2.583e-05
15930.0 2.5739e-05
15950.0 2.5645e-05
15970.0 2.5555e-05
15990.0 2.5466e-05
16010.0 2.5374e-05
16030.0 2.5282e-05
16050.0 2.5195e-05
16070.0 2.5106e-05
16090.0 2.5015e-05
16110.0 2.4926e-05
16130.0 2.4839e-05
16150.0 2.4748e-05
16170.0 2.4658e-05
16190.0 2.4571e-05
16210.0 2.4483e-05
16230.0 2.4393e-05
16250.0 2.4306e-05
16270.0 2.422e-05
16290.0 2.413e-05
16310.0 2.4042e-05
16330.0 2.3956e-05
16350.0 2.3869e-05
16370.0 2.3778e-05
16390.0 2.3692e-05
16410.0 2.3606e-05
16430.0 2.3518e-05
16450.0 2.343e-05
16470.0 2.3346e-05
16490.0 2.3258e-05
16510.0 2.3169e-05
16530.0 2.3083e-05
16550.0 2.2997e-05
16570.0 2.2908e-05
16590.0 2.282e-05
16610.0 2.2736e-05
16630.0 2.2649e-05
16650.0 2.2561e-05
16670.0 2.2476e-05
16690.0 2.239e-05
16710.0 2.23e-05
16730.0 2.2213e-05
16750.0 2.2128e-05
16770.0 2.204e-05
16790.0 2.1951e-05
16810.0 2.1866e-05
16830.0 2.178e-05
16850.0 2.1692e-05
16870.0 2.1604e-05
16890.0 2.1519e-05
16910.0 2.1431e-05
16930.0 2.1341e-05
16950.0 2.1255e-05
16970.0 2.1168e-05
16990.0 2.1079e-05
17010.0 2.0992e-05
17030.0 2.0907e-05
17050.0 2.0817e-05
17070.0 2.0728e-05
17090.0 2.0642e-05
17110.0 2.0554e-05
17130.0 2.0463e-05
17150.0 2.0375e-05
17170.0 2.0289e-05
17190.0 2.02e-05
17210.0 2.011e-05
17230.0 2.0024e-05
17250.0 1.9936e-05
17270.0 1.9844e-05
17290.0 1.9756e-05
17310.0 1.9669e-05
17330.0 1.9578e-05
17350.0 1.9487e-05
17370.0 1.94e-05
17390.0 1.9311e-05
17410.0 1.9221e-05
17430.0 1.9132e-05
17450.0 1.9045e-05
17470.0 1.8952e-05
17490.0 1.8861e-05
17510.0 1.8773e-05
17530.0 1.8683e-05
17550.0 1.8591e-05
17570.0 1.8502e-05
17590.0 1.8414e-05
17610.0 1.8322e-05
17630.0 1.8231e-05
17650.0 1.8143e-05
17670.0 1.8052e-05
17690.0 1.7958e-05
17710.0 1.7869e-05
17730.0 1.778e-05
17750.0 1.7688e-05
17770.0 1.7596e-05
17790.0 1.7508e-05
17810.0 1.7416e-05
17830.0 1.7324e-05
17850.0 1.7234e-05
17870.0 1.7144e-05
17890.0 1.705e-05
17910.0 1.6958e-05
17930.0 1.687e-05
17950.0 1.6778e-05
17970.0 1.6686e-05
17990.0 1.6596e-05
18010.0 1.6506e-05
18030.0 1.6412e-05
18050.0 1.6321e-05
18070.0 1.6231e-05
18090.0 1.6139e-05
18110.0 1.6046e-05
18130.0 1.5957e-05
18150.0 1.5866e-05
18170.0 1.5773e-05
18190.0 1.5682e-05
18210.0 1.5593e-05
18230.0 1.55e-05
18250.0 1.5407e-05
18270.0 1.5318e-05
18290.0 1.5227e-05
18310.0 1.5134e-05
18330.0 1.5044e-05
18350.0 1.4955e-05
18370.0 1.4863e-05
18390.0 1.477e-05
18410.0 1.4681e-05
18430.0 1.4591e-05
18450.0 1.4497e-05
18470.0 1.4407e-05
18490.0 1.4318e-05
18510.0 1.4227e-05
18530.0 1.4136e-05
18550.0 1.4048e-05
18570.0 1.3957e-05
18590.0 1.3865e-05
18610.0 1.3775e-05
18630.0 1.3686e-05
18650.0 1.3595e-05
18670.0 1.3504e-05
18690.0 1.3417e-05
18710.0 1.3327e-05
18730.0 1.3236e-05
18750.0 1.3148e-05
18770.0 1.3061e-05
18790.0 1.2969e-05
18810.0 1.2879e-05
18830.0 1.2792e-05
18850.0 1.2703e-05
18870.0 1.2612e-05
18890.0 1.2525e-05
18910.0 1.2439e-05
18930.0 1.2349e-05
18950.0 1.226e-05
18970.0 1.2174e-05
18990.0 1.2086e-05
19010.0 1.1995e-05
19030.0 1.191e-05
19050.0 1.1824e-05
19070.0 1.1735e-05
19090.0 1.1648e-05
19110.0 1.1564e-05
19130.0 1.1476e-05
19150.0 1.1388e-05
19170.0 1.1303e-05
19190.0 1.1218e-05
19210.0 1.113e-05
19230.0 1.1044e-05
19250.0 1.0961e-05
19270.0 1.0875e-05
19290.0 1.0788e-05
19310.0 1.0705e-05
19330.0 1.0621e-05
19350.0 1.0534e-05
19370.0 1.045e-05
19390.0 1.0367e-05
19410.0 1.0282e-05
19430.0 1.0197e-05
19450.0 1.0115e-05
19470.0 1.0033e-05
19490.0 9.9477e-06
19510.0 9.865e-06
19530.0 9.784e-06
19550.0 9.6997e-06
19570.0 9.6153e-06
19590.0 9.5351e-06
19610.0 9.4535e-06
19630.0 9.3702e-06
19650.0 9.2893e-06
19670.0 9.21e-06
19690.0 9.1272e-06
19710.0 9.0453e-06
19730.0 8.9661e-06
19750.0 8.8857e-06
19770.0 8.8027e-06
19790.0 8.7233e-06
19810.0 8.645e-06
19830.0 8.564e-06
19850.0 8.483e-06
19870.0 8.4038e-06
19890.0 8.3199e-06
19910.0 8.2295e-06
19930.0 8.1352e-06
19950.0 8.0312e-06
19970.0 7.9087e-06
19990.0 7.7683e-06
20010.0 7.6162e-06
20030.0 7.4414e-06
20050.0 7.2482e-06
20070.0 7.0512e-06
20090.0 6.8524e-06
20110.0 6.6437e-06
20130.0 6.449e-06
20150.0 6.2714e-06
20170.0 6.1026e-06
20190.0 5.9469e-06
20210.0 5.813e-06
20230.0 5.6944e-06
20250.0 5.587e-06
20270.0 5.4977e-06
20290.0 5.425e-06
20310.0 5.3644e-06
20330.0 5.3166e-06
20350.0 5.2847e-06
20370.0 5.2644e-06
20390.0 5.2561e-06
20410.0 5.2602e-06
20430.0 5.2751e-06
20450.0 5.3031e-06
20470.0 5.3435e-06
20490.0 5.3941e-06
20510.0 5.4564e-06
20530.0 5.533e-06
20550.0 5.6188e-06
20570.0 5.7109e-06
20590.0 5.8157e-06
20610.0 5.9284e-06
20630.0 6.0425e-06
20650.0 6.1615e-06
20670.0 6.2886e-06
20690.0 6.4095e-06
20710.0 6.526e-06
20730.0 6.6423e-06
20750.0 6.7535e-06
20770.0 6.8532e-06
20790.0 6.9487e-06
20810.0 7.0402e-06
20830.0 7.1229e-06
20850.0 7.1994e-06
20870.0 7.276e-06
20890.0 7.35e-06
20910.0 7.4193e-06
20930.0 7.4904e-06
20950.0 7.5641e-06
20970.0 7.6365e-06
20990.0 7.7083e-06
21010.0 7.784e-06
21030.0 7.8572e-06
21050.0 7.9251e-06
21070.0 7.9898e-06
21090.0 8.0502e-06
21110.0 8.0993e-06
21130.0 8.1391e-06
21150.0 8.1701e-06
21170.0 8.1896e-06
21190.0 8.1975e-06
21210.0 8.1947e-06
21230.0 8.1805e-06
21250.0 8.1563e-06
21270.0 8.123e-06
21290.0 8.0798e-06
21310.0 8.0291e-06
21330.0 7.9741e-06
21350.0 7.9118e-06
21370.0 7.844e-06
21390.0 7.7748e-06
21410.0 7.7037e-06
21430.0 7.6269e-06
21450.0 7.552e-06
21470.0 7.4798e-06
21490.0 7.4069e-06
21510.0 7.3355e-06
21530.0 7.27e-06
21550.0 7.2079e-06
21570.0 7.1484e-06
21590.0 7.096e-06
21610.0 7.0509e-06
21630.0 7.0116e-06
21650.0 6.9795e-06
21670.0 6.9576e-06
21690.0 6.9438e-06
21710.0 6.9391e-06
21730.0 6.9442e-06
21750.0 6.9581e-06
21770.0 6.9831e-06
21790.0 7.0183e-06
21810.0 7.0617e-06
21830.0 7.1148e-06
21850.0 7.1793e-06
21870.0 7.2508e-06
21890.0 7.3274e-06
21910.0 7.4146e-06
21930.0 7.5084e-06
21950.0 7.6042e-06
21970.0 7.706e-06
21990.0 7.8166e-06
22010.0 7.9245e-06
22030.0 8.0321e-06
22050.0 8.1434e-06
22070.0 8.2537e-06
22090.0 8.3565e-06
22110.0 8.4583e-06
22130.0 8.5575e-06
22150.0 8.6473e-06
22170.0 8.7283e-06
22190.0 8.8038e-06
22210.0 8.868e-06
22230.0 8.9176e-06
22250.0 8.9563e-06
22270.0 8.9817e-06
22290.0 8.9919e-06
22310.0 8.9875e-06
22330.0 8.9669e-06
22350.0 8.93e-06
22370.0 8.8785e-06
22390.0 8.8101e-06
22410.0 8.723e-06
22430.0 8.625e-06
22450.0 8.5141e-06
22470.0 8.3857e-06
22490.0 8.2465e-06
22510.0 8.1018e-06
22530.0 7.9416e-06
22550.0 7.7701e-06
22570.0 7.5994e-06
22590.0 7.4241e-06
22610.0 7.2393e-06
22630.0 7.0549e-06
