#lamb flux
1010.0 4.5287e-08
1030.0 5.0088e-08
1050.0 5.561e-08
1070.0 6.1826e-08
1090.0 6.8886e-08
1110.0 7.6128e-08
1130.0 8.3416e-08
1150.0 9.1051e-08
1170.0 9.8926e-08
1190.0 1.0639e-07
1210.0 1.1396e-07
1230.0 1.2178e-07
1250.0 1.2945e-07
1270.0 1.3689e-07
1290.0 1.4475e-07
1310.0 1.5261e-07
1330.0 1.6014e-07
1350.0 1.6776e-07
1370.0 1.7563e-07
1390.0 1.833e-07
1410.0 1.9074e-07
1430.0 1.9853e-07
1450.0 2.0631e-07
1470.0 2.1383e-07
1490.0 2.2143e-07
1510.0 2.2946e-07
1530.0 2.3707e-07
1550.0 2.4458e-07
1570.0 2.5235e-07
1590.0 2.6013e-07
1610.0 2.6756e-07
1630.0 2.7523e-07
1650.0 2.831e-07
1670.0 2.9072e-07
1690.0 2.9825e-07
1710.0 3.0607e-07
1730.0 3.1394e-07
1750.0 3.2135e-07
1770.0 3.2899e-07
1790.0 3.3678e-07
1810.0 3.4434e-07
1830.0 3.5178e-07
1850.0 3.5968e-07
1870.0 3.674e-07
1890.0 3.7486e-07
1910.0 3.8249e-07
1930.0 3.9032e-07
1950.0 3.9781e-07
1970.0 4.0523e-07
1990.0 4.1295e-07
2010.0 4.2055e-07
2030.0 4.279e-07
2050.0 4.3549e-07
2070.0 4.4329e-07
2090.0 4.5067e-07
2110.0 4.5804e-07
2130.0 4.6564e-07
2150.0 4.7312e-07
2170.0 4.8029e-07
2190.0 4.8774e-07
2210.0 4.9525e-07
2230.0 5.0247e-07
2250.0 5.0966e-07
2270.0 5.1719e-07
2290.0 5.245e-07
2310.0 5.3152e-07
2330.0 5.3883e-07
2350.0 5.4633e-07
2370.0 5.5381e-07
2390.0 5.619e-07
2410.0 5.7149e-07
2430.0 5.8252e-07
2450.0 5.957e-07
2470.0 6.1259e-07
2490.0 6.3388e-07
2510.0 6.5807e-07
2530.0 6.872e-07
2550.0 7.2366e-07
2570.0 7.6902e-07
2590.0 8.2802e-07
2610.0 9.1636e-07
2630.0 1.0425e-06
2650.0 1.2074e-06
2670.0 1.4206e-06
2690.0 1.6826e-06
2710.0 1.9623e-06
2730.0 2.2386e-06
2750.0 2.5108e-06
2770.0 2.7476e-06
2790.0 2.9356e-06
2810.0 3.0848e-06
2830.0 3.2014e-06
2850.0 3.281e-06
2870.0 3.3394e-06
2890.0 3.3856e-06
2910.0 3.4225e-06
2930.0 3.4527e-06
2950.0 3.4815e-06
2970.0 3.5096e-06
2990.0 3.536e-06
3010.0 9.9948e-05
3030.0 0.0001007
3050.0 0.00010142
3070.0 0.00010204
3090.0 0.00010257
3110.0 0.0001029
3130.0 0.00010288
3150.0 0.00010243
3170.0 0.00010133
3190.0 9.9607e-05
3210.0 9.7423e-05
3230.0 9.4922e-05
3250.0 9.2454e-05
3270.0 9.065e-05
3290.0 8.9648e-05
3310.0 8.981e-05
3330.0 9.111e-05
3350.0 9.3374e-05
3370.0 9.6606e-05
3390.0 0.00010068
3410.0 0.00010511
3430.0 0.00011009
3450.0 0.00011582
3470.0 0.00012207
3490.0 0.0001287
3510.0 0.0001362
3530.0 0.00014422
3550.0 0.00015235
3570.0 0.00016082
3590.0 0.00017004
3610.0 0.00017954
3630.0 0.00018901
3650.0 0.00019883
3670.0 0.0002078
3690.0 0.0002145
3710.0 0.00021834
3730.0 0.00021847
3750.0 0.00021543
3770.0 0.00021424
3790.0 0.00021296
3810.0 0.00020773
3830.0 0.00021416
3850.0 0.00023945
3870.0 0.00025334
3890.0 0.00025218
3910.0 0.00025326
3930.0 0.00025993
3950.0 0.00026403
3970.0 0.00024056
3990.0 0.00020699
4010.0 0.00062037
4030.0 0.00075167
4050.0 0.00086174
4070.0 0.0007477
4090.0 0.00067719
4110.0 0.00059756
4130.0 0.00054999
4150.0 0.00058502
4170.0 0.00057627
4190.0 0.00061427
4210.0 0.00060865
4230.0 0.00064378
4250.0 0.00076161
4270.0 0.00077057
4290.0 0.00071007
4310.0 0.00073781
4330.0 0.00078481
4350.0 0.00087997
4370.0 0.0010014
4390.0 0.00093972
4410.0 0.00069429
4430.0 0.00058776
4450.0 0.00054009
4470.0 0.00041454
4490.0 0.00044734
4510.0 0.00067571
4530.0 0.00077929
4550.0 0.00078605
4570.0 0.00088451
4590.0 0.0010075
4610.0 0.0013589
4630.0 0.001765
4650.0 0.0019141
4670.0 0.0017726
4690.0 0.0016914
4710.0 0.0017879
4730.0 0.0016873
4750.0 0.0012615
4770.0 0.00092534
4790.0 0.00086409
4810.0 0.00082361
4830.0 0.00075401
4850.0 0.00082739
4870.0 0.0010931
4890.0 0.001289
4910.0 0.001131
4930.0 0.0010007
4950.0 0.0010995
4970.0 0.00141
4990.0 0.0019109
5010.0 0.0021982
5030.0 0.0019383
5050.0 0.0013114
5070.0 0.00086427
5090.0 0.0006969
5110.0 0.0007167
5130.0 0.00082718
5150.0 0.00089619
5170.0 0.00088274
5190.0 0.00082486
5210.0 0.00086217
5230.0 0.00090634
5250.0 0.00097678
5270.0 0.0010539
5290.0 0.0011679
5310.0 0.0013594
5330.0 0.0015044
5350.0 0.0014948
5370.0 0.0015701
5390.0 0.0018018
5410.0 0.0018002
5430.0 0.001592
5450.0 0.0014627
5470.0 0.0015531
5490.0 0.0018975
5510.0 0.0023725
5530.0 0.0027211
5550.0 0.00263
5570.0 0.0023909
5590.0 0.0020789
5610.0 0.0019172
5630.0 0.0018591
5650.0 0.0017706
5670.0 0.0016778
5690.0 0.0015
5710.0 0.0014625
5730.0 0.0013472
5750.0 0.00094984
5770.0 0.00074104
5790.0 0.00083976
5810.0 0.00094824
5830.0 0.0011636
5850.0 0.0013852
5870.0 0.0015369
5890.0 0.0015629
5910.0 0.0015333
5930.0 0.0014595
5950.0 0.0014873
5970.0 0.0016953
5990.0 0.001594
6010.0 0.0013363
6030.0 0.001129
6050.0 0.00098319
6070.0 0.00097781
6090.0 0.0010603
6110.0 0.0011856
6130.0 0.0012037
6150.0 0.0010357
6170.0 0.00091109
6190.0 0.0010253
6210.0 0.0013554
6230.0 0.0017787
6250.0 0.0019266
6270.0 0.0016836
6290.0 0.0014165
6310.0 0.0011058
6330.0 0.00084727
6350.0 0.00075574
6370.0 0.00079474
6390.0 0.00091876
6410.0 0.0011329
6430.0 0.0013229
6450.0 0.0015137
6470.0 0.0017332
6490.0 0.0020937
6510.0 0.002341
6530.0 0.0022966
6550.0 0.0020768
6570.0 0.001763
6590.0 0.0015897
6610.0 0.0013708
6630.0 0.0012419
6650.0 0.0011739
6670.0 0.0011404
6690.0 0.0010304
6710.0 0.00093669
6730.0 0.00067468
6750.0 0.00066888
6770.0 0.00072702
6790.0 0.00083566
6810.0 0.00076464
6830.0 0.00078737
6850.0 0.00073644
6870.0 0.00067274
6890.0 0.00064593
6910.0 0.00068833
6930.0 0.00064472
6950.0 0.0006633
6970.0 0.00069768
6990.0 0.00079192
7010.0 0.00079866
7030.0 0.00081135
7050.0 0.00077375
7070.0 0.00073725
7090.0 0.00073941
7110.0 0.00076079
7130.0 0.00081873
7150.0 0.00086956
7170.0 0.0009595
7190.0 0.0010548
7210.0 0.0010364
7230.0 0.0010655
7250.0 0.001145
7270.0 0.0012478
7290.0 0.001481
7310.0 0.001607
7330.0 0.0015533
7350.0 0.0014049
7370.0 0.0012224
7390.0 0.0011859
7410.0 0.0012602
7430.0 0.0014006
7450.0 0.0015255
7470.0 0.0015115
7490.0 0.0013782
7510.0 0.0015611
7530.0 0.001544
7550.0 0.0013878
7570.0 0.0010841
7590.0 0.0007453
7610.0 0.00063969
7630.0 0.00072681
7650.0 0.00085935
7670.0 0.0010695
7690.0 0.0011769
7710.0 0.0012265
7730.0 0.0012889
7750.0 0.0014469
7770.0 0.0014697
7790.0 0.00135
7810.0 0.0012318
7830.0 0.0012702
7850.0 0.0012348
7870.0 0.0011321
7890.0 0.00095117
7910.0 0.00077317
7930.0 0.00073826
7950.0 0.00067258
7970.0 0.00062259
7990.0 0.00061904
8010.0 4.5848e-05
8030.0 4.5252e-05
8050.0 4.4642e-05
8070.0 4.5226e-05
8090.0 4.8594e-05
8110.0 4.7766e-05
8130.0 3.9401e-05
8150.0 3.8372e-05
8170.0 3.3052e-05
8190.0 3.1324e-05
8210.0 4.0677e-05
8230.0 4.5289e-05
8250.0 4.0818e-05
8270.0 3.5527e-05
8290.0 3.4632e-05
8310.0 2.6654e-05
8330.0 1.7965e-05
8350.0 1.2749e-05
8370.0 8.0327e-06
8390.0 1.4684e-05
8410.0 1.711e-05
8430.0 2.1091e-05
8450.0 2.4767e-05
8470.0 3.0784e-05
8490.0 3.0567e-05
8510.0 3.0067e-05
8530.0 3.1379e-05
8550.0 4.2336e-05
8570.0 5.012e-05
8590.0 5.4079e-05
8610.0 6.8313e-05
8630.0 8.2293e-05
8650.0 8.6088e-05
8670.0 9.1485e-05
8690.0 9.1998e-05
8710.0 8.3317e-05
8730.0 7.7498e-05
8750.0 6.8406e-05
8770.0 6.4907e-05
8790.0 6.3768e-05
8810.0 6.1104e-05
8830.0 4.8862e-05
8850.0 3.577e-05
8870.0 2.7389e-05
8890.0 2.6777e-05
8910.0 3.0687e-05
8930.0 3.4904e-05
8950.0 3.5572e-05
8970.0 3.5741e-05
8990.0 3.1876e-05
9010.0 0.00033405
9030.0 0.00030269
9050.0 0.00030415
9070.0 0.00030655
9090.0 0.00030866
9110.0 0.00031126
9130.0 0.00031326
9150.0 0.00031482
9170.0 0.00031648
9190.0 0.00031826
9210.0 0.00032013
9230.0 0.0003221
9250.0 0.00032411
9270.0 0.00032618
9290.0 0.00032833
9310.0 0.00033048
9330.0 0.00033268
9350.0 0.00033496
9370.0 0.00033727
9390.0 0.0003396
9410.0 0.000342
9430.0 0.00034447
9450.0 0.00034693
9470.0 0.00034944
9490.0 0.00035202
9510.0 0.00035464
9530.0 0.00035726
9550.0 0.00035998
9570.0 0.00036275
9590.0 0.00036552
9610.0 0.00036834
9630.0 0.00037124
9650.0 0.00037416
9670.0 0.00037709
9690.0 0.00038009
9710.0 0.00038314
9730.0 0.0003862
9750.0 0.00038931
9770.0 0.0003925
9790.0 0.00039569
9810.0 0.0003989
9830.0 0.00040218
9850.0 0.00040549
9870.0 0.0004088
9890.0 0.00041216
9910.0 0.00041558
9930.0 0.000419
9950.0 0.00042244
9970.0 0.00042594
9990.0 0.00042948
10010.0 0.00037268
10030.0 0.00037574
10050.0 0.00037886
10070.0 0.00038208
10090.0 0.00038513
10110.0 0.00038825
10130.0 0.00039138
10150.0 0.0003945
10170.0 0.00039766
10190.0 0.00040087
10210.0 0.00040405
10230.0 0.00040721
10250.0 0.00041043
10270.0 0.00041365
10290.0 0.00041682
10310.0 0.00042003
10330.0 0.00042328
10350.0 0.00042647
10370.0 0.00042965
10390.0 0.00043287
10410.0 0.00043608
10430.0 0.00043922
10450.0 0.00044239
10470.0 0.00044557
10490.0 0.00044869
10510.0 0.0004518
10530.0 0.00045495
10550.0 0.00045806
10570.0 0.0004611
10590.0 0.00046415
10610.0 0.0004672
10630.0 0.00047018
10650.0 0.00047313
10670.0 0.00047612
10690.0 0.00047904
10710.0 0.0004819
10730.0 0.00048477
10750.0 0.00048764
10770.0 0.0004904
10790.0 0.00049313
10810.0 0.00049586
10830.0 0.0004985
10850.0 0.00050102
10870.0 0.00050345
10890.0 0.00050559
10910.0 0.00050724
10930.0 0.00050817
10950.0 0.00050795
10970.0 0.00050623
10990.0 0.00050286
11010.0 0.00049721
11030.0 0.0004893
11050.0 0.00047966
11070.0 0.00046813
11090.0 0.00045428
11110.0 0.00043995
11130.0 0.00042501
11150.0 0.00040892
11170.0 0.00039233
11190.0 0.00037625
11210.0 0.00035963
11230.0 0.00034259
11250.0 0.00032632
11270.0 0.00031068
11290.0 0.00029502
11310.0 0.00028018
11330.0 0.00026712
11350.0 0.00025477
11370.0 0.00024337
11390.0 0.0002335
11410.0 0.00022486
11430.0 0.00021684
11450.0 0.00020993
11470.0 0.00020395
11490.0 0.00019839
11510.0 0.00019303
11530.0 0.00018806
11550.0 0.00018312
11570.0 0.00017785
11590.0 0.00017239
11610.0 0.00016684
11630.0 0.00016079
11650.0 0.00015432
11670.0 0.00014794
11690.0 0.00014147
11710.0 0.0001348
11730.0 0.00012833
11750.0 0.00012235
11770.0 0.00011648
11790.0 0.00011098
11810.0 0.00010614
11830.0 0.00010181
11850.0 9.7816e-05
11870.0 9.448e-05
11890.0 9.1706e-05
11910.0 8.9269e-05
11930.0 8.7174e-05
11950.0 8.5429e-05
11970.0 8.3871e-05
11990.0 8.2397e-05
12010.0 8.1035e-05
12030.0 7.9721e-05
12050.0 7.8363e-05
12070.0 7.6951e-05
12090.0 7.5589e-05
12110.0 7.4207e-05
12130.0 7.2822e-05
12150.0 7.1545e-05
12170.0 7.0431e-05
12190.0 6.9467e-05
12210.0 6.8794e-05
12230.0 6.8469e-05
12250.0 6.8522e-05
12270.0 6.9038e-05
12290.0 7.0015e-05
12310.0 7.1416e-05
12330.0 7.3376e-05
12350.0 7.5822e-05
12370.0 7.8608e-05
12390.0 8.1819e-05
12410.0 8.5582e-05
12430.0 8.9407e-05
12450.0 9.3367e-05
12470.0 9.7579e-05
12490.0 0.00010181
12510.0 0.00010578
12530.0 0.00010972
12550.0 0.00011353
12570.0 0.00011689
12590.0 0.00011985
12610.0 0.00012247
12630.0 0.00012457
12650.0 0.00012602
12670.0 0.00012697
12690.0 0.00012735
12710.0 0.00012714
12730.0 0.0001264
12750.0 0.00012509
12770.0 0.00012328
12790.0 0.0001211
12810.0 0.00011848
12830.0 0.00011546
12850.0 0.0001123
12870.0 0.00010896
12890.0 0.00010534
12910.0 0.00010166
12930.0 9.8037e-05
12950.0 9.4256e-05
12970.0 9.0407e-05
12990.0 8.6765e-05
13010.0 8.3169e-05
13030.0 7.9532e-05
13050.0 7.6039e-05
13070.0 7.2768e-05
13090.0 6.9484e-05
13110.0 6.6307e-05
13130.0 6.3379e-05
13150.0 6.0605e-05
13170.0 5.7889e-05
13190.0 5.5473e-05
13210.0 5.3346e-05
13230.0 5.1402e-05
13250.0 4.9728e-05
13270.0 4.8407e-05
13290.0 4.738e-05
13310.0 4.6672e-05
13330.0 4.635e-05
13350.0 4.6388e-05
13370.0 4.6804e-05
13390.0 4.7621e-05
13410.0 4.8726e-05
13430.0 5.0161e-05
13450.0 5.1935e-05
13470.0 5.3904e-05
13490.0 5.5989e-05
13510.0 5.8341e-05
13530.0 6.0725e-05
13550.0 6.3008e-05
13570.0 6.5258e-05
13590.0 6.7451e-05
13610.0 6.9402e-05
13630.0 7.1105e-05
13650.0 7.266e-05
13670.0 7.3951e-05
13690.0 7.4949e-05
13710.0 7.5721e-05
13730.0 7.6272e-05
13750.0 7.6548e-05
13770.0 7.6611e-05
13790.0 7.6471e-05
13810.0 7.6134e-05
13830.0 7.5635e-05
13850.0 7.4959e-05
13870.0 7.4107e-05
13890.0 7.3132e-05
13910.0 7.2034e-05
13930.0 7.0762e-05
13950.0 6.9374e-05
13970.0 6.7955e-05
13990.0 6.6409e-05
14010.0 6.4765e-05
14030.0 6.3125e-05
14050.0 6.1473e-05
14070.0 5.9729e-05
14090.0 5.8057e-05
14110.0 5.6486e-05
14130.0 5.4963e-05
14150.0 5.353e-05
14170.0 5.2307e-05
14190.0 5.1249e-05
14210.0 5.0352e-05
14230.0 4.9687e-05
14250.0 4.9258e-05
14270.0 4.905e-05
14290.0 4.9094e-05
14310.0 4.9368e-05
14330.0 4.9859e-05
14350.0 5.0582e-05
14370.0 5.1483e-05
14390.0 5.2506e-05
14410.0 5.3711e-05
14430.0 5.5035e-05
14450.0 5.6386e-05
14470.0 5.7788e-05
14490.0 5.9279e-05
14510.0 6.0705e-05
14530.0 6.2059e-05
14550.0 6.3413e-05
14570.0 6.4713e-05
14590.0 6.5896e-05
14610.0 6.704e-05
14630.0 6.8172e-05
14650.0 6.9227e-05
14670.0 7.0245e-05
14690.0 7.1307e-05
14710.0 7.2424e-05
14730.0 7.354e-05
14750.0 7.4777e-05
14770.0 7.618e-05
14790.0 7.7701e-05
14810.0 7.9349e-05
14830.0 8.1301e-05
14850.0 8.3423e-05
14870.0 8.5637e-05
14890.0 8.8026e-05
14910.0 9.0563e-05
14930.0 9.3003e-05
14950.0 9.5282e-05
14970.0 9.744e-05
14990.0 9.925e-05
15010.0 0.00010063
15030.0 0.00010166
15050.0 0.00010234
15070.0 0.00010267
15090.0 0.00010278
15110.0 0.00010275
15130.0 0.00010262
15150.0 0.00010245
15170.0 0.00010224
15190.0 0.00010202
15210.0 0.00010181
15230.0 0.00010159
15250.0 0.00010136
15270.0 0.00010114
15290.0 0.00010093
15310.0 0.00010072
15330.0 0.0001005
15350.0 0.00010029
15370.0 0.00010008
15390.0 9.9863e-05
15410.0 9.9652e-05
15430.0 9.9448e-05
15450.0 9.9239e-05
15470.0 9.9026e-05
15490.0 9.8824e-05
15510.0 9.8623e-05
15530.0 9.8414e-05
15550.0 9.8211e-05
15570.0 9.8014e-05
15590.0 9.7809e-05
15610.0 9.7601e-05
15630.0 9.7405e-05
15650.0 9.7207e-05
15670.0 9.7004e-05
15690.0 9.6806e-05
15710.0 9.6614e-05
15730.0 9.6414e-05
15750.0 9.6214e-05
15770.0 9.6022e-05
15790.0 9.5828e-05
15810.0 9.5625e-05
15830.0 9.543e-05
15850.0 9.5241e-05
15870.0 9.5045e-05
15890.0 9.4849e-05
15910.0 9.4662e-05
15930.0 9.447e-05
15950.0 9.4271e-05
15970.0 9.4079e-05
15990.0 9.3891e-05
16010.0 9.3696e-05
16030.0 9.3498e-05
16050.0 9.3314e-05
16070.0 9.3124e-05
16090.0 9.2928e-05
16110.0 9.2739e-05
16130.0 9.2555e-05
16150.0 9.2356e-05
16170.0 9.2162e-05
16190.0 9.1976e-05
16210.0 9.1785e-05
16230.0 9.1589e-05
16250.0 9.1401e-05
16270.0 9.1215e-05
16290.0 9.102e-05
16310.0 9.0827e-05
16330.0 9.0641e-05
16350.0 9.045e-05
16370.0 9.0248e-05
16390.0 9.0061e-05
16410.0 8.9873e-05
16430.0 8.9677e-05
16450.0 8.9483e-05
16470.0 8.9298e-05
16490.0 8.9103e-05
16510.0 8.8905e-05
16530.0 8.8715e-05
16550.0 8.8524e-05
16570.0 8.8325e-05
16590.0 8.8127e-05
16610.0 8.794e-05
16630.0 8.7745e-05
16650.0 8.7546e-05
16670.0 8.7355e-05
16690.0 8.7163e-05
16710.0 8.6958e-05
16730.0 8.6761e-05
16750.0 8.6569e-05
16770.0 8.637e-05
16790.0 8.6166e-05
16810.0 8.5973e-05
16830.0 8.5778e-05
16850.0 8.5574e-05
16870.0 8.5375e-05
16890.0 8.518e-05
16910.0 8.4976e-05
16930.0 8.4768e-05
16950.0 8.4571e-05
16970.0 8.4372e-05
16990.0 8.4164e-05
17010.0 8.3962e-05
17030.0 8.3765e-05
17050.0 8.3558e-05
17070.0 8.335e-05
17090.0 8.3149e-05
17110.0 8.2945e-05
17130.0 8.2731e-05
17150.0 8.2525e-05
17170.0 8.2324e-05
17190.0 8.2114e-05
17210.0 8.1903e-05
17230.0 8.1701e-05
17250.0 8.1492e-05
17270.0 8.1275e-05
17290.0 8.1066e-05
17310.0 8.0859e-05
17330.0 8.0644e-05
17350.0 8.0427e-05
17370.0 8.0222e-05
17390.0 8.001e-05
17410.0 7.9792e-05
17430.0 7.958e-05
17450.0 7.9372e-05
17470.0 7.9148e-05
17490.0 7.893e-05
17510.0 7.8719e-05
17530.0 7.8502e-05
17550.0 7.828e-05
17570.0 7.8065e-05
17590.0 7.7852e-05
17610.0 7.7629e-05
17630.0 7.7408e-05
17650.0 7.7194e-05
17670.0 7.6973e-05
17690.0 7.6742e-05
17710.0 7.6526e-05
17730.0 7.6308e-05
17750.0 7.6082e-05
17770.0 7.5858e-05
17790.0 7.5643e-05
17810.0 7.5416e-05
17830.0 7.5187e-05
17850.0 7.4965e-05
17870.0 7.4743e-05
17890.0 7.4511e-05
17910.0 7.4283e-05
17930.0 7.4064e-05
17950.0 7.3836e-05
17970.0 7.3606e-05
17990.0 7.3383e-05
18010.0 7.3158e-05
18030.0 7.2921e-05
18050.0 7.2692e-05
18070.0 7.2468e-05
18090.0 7.2236e-05
18110.0 7.2001e-05
18130.0 7.1777e-05
18150.0 7.1549e-05
18170.0 7.1313e-05
18190.0 7.1082e-05
18210.0 7.0856e-05
18230.0 7.062e-05
18250.0 7.0381e-05
18270.0 7.0154e-05
18290.0 6.9923e-05
18310.0 6.9685e-05
18330.0 6.9453e-05
18350.0 6.9225e-05
18370.0 6.8987e-05
18390.0 6.8749e-05
18410.0 6.8519e-05
18430.0 6.8285e-05
18450.0 6.8042e-05
18470.0 6.7808e-05
18490.0 6.7578e-05
18510.0 6.7339e-05
18530.0 6.7101e-05
18550.0 6.6872e-05
18570.0 6.6635e-05
18590.0 6.6391e-05
18610.0 6.6156e-05
18630.0 6.5923e-05
18650.0 6.5682e-05
18670.0 6.544e-05
18690.0 6.521e-05
18710.0 6.4973e-05
18730.0 6.473e-05
18750.0 6.4495e-05
18770.0 6.4263e-05
18790.0 6.4016e-05
18810.0 6.3775e-05
18830.0 6.3542e-05
18850.0 6.3303e-05
18870.0 6.306e-05
18890.0 6.2825e-05
18910.0 6.2591e-05
18930.0 6.2347e-05
18950.0 6.2107e-05
18970.0 6.1873e-05
18990.0 6.1633e-05
19010.0 6.1384e-05
19030.0 6.115e-05
19050.0 6.0914e-05
19070.0 6.0671e-05
19090.0 6.0432e-05
19110.0 6.02e-05
19130.0 5.9957e-05
19150.0 5.9713e-05
19170.0 5.9477e-05
19190.0 5.924e-05
19210.0 5.8994e-05
19230.0 5.8753e-05
19250.0 5.8521e-05
19270.0 5.828e-05
19290.0 5.8038e-05
19310.0 5.7803e-05
19330.0 5.7567e-05
19350.0 5.7319e-05
19370.0 5.708e-05
19390.0 5.6846e-05
19410.0 5.6605e-05
19430.0 5.6361e-05
19450.0 5.6128e-05
19470.0 5.5892e-05
19490.0 5.5648e-05
19510.0 5.541e-05
19530.0 5.5177e-05
19550.0 5.4934e-05
19570.0 5.4689e-05
19590.0 5.4457e-05
19610.0 5.422e-05
19630.0 5.3977e-05
19650.0 5.3741e-05
19670.0 5.351e-05
19690.0 5.3267e-05
19710.0 5.3026e-05
19730.0 5.2793e-05
19750.0 5.2557e-05
19770.0 5.2311e-05
19790.0 5.2076e-05
19810.0 5.1844e-05
19830.0 5.1602e-05
19850.0 5.136e-05
19870.0 5.1122e-05
19890.0 5.0867e-05
19910.0 5.0587e-05
19930.0 5.0287e-05
19950.0 4.9943e-05
19970.0 4.9521e-05
19990.0 4.9012e-05
20010.0 4.3605e-05
20030.0 4.2974e-05
20050.0 4.2236e-05
20070.0 4.1435e-05
20090.0 4.0574e-05
20110.0 3.9601e-05
20130.0 3.8615e-05
20150.0 3.7638e-05
20170.0 3.6625e-05
20190.0 3.5597e-05
20210.0 3.4627e-05
20230.0 3.3681e-05
20250.0 3.2732e-05
20270.0 3.1852e-05
20290.0 3.1048e-05
20310.0 3.0284e-05
20330.0 2.957e-05
20350.0 2.8978e-05
20370.0 2.8452e-05
20390.0 2.7991e-05
20410.0 2.7618e-05
20430.0 2.7331e-05
20450.0 2.7104e-05
20470.0 2.6951e-05
20490.0 2.6869e-05
20510.0 2.6846e-05
20530.0 2.6879e-05
20550.0 2.6962e-05
20570.0 2.7083e-05
20590.0 2.7246e-05
20610.0 2.7444e-05
20630.0 2.7662e-05
20650.0 2.7906e-05
20670.0 2.8185e-05
20690.0 2.8469e-05
20710.0 2.8763e-05
20730.0 2.908e-05
20750.0 2.9411e-05
20770.0 2.9736e-05
20790.0 3.0078e-05
20810.0 3.044e-05
20830.0 3.0799e-05
20850.0 3.1161e-05
20870.0 3.1548e-05
20890.0 3.1942e-05
20910.0 3.2323e-05
20930.0 3.2717e-05
20950.0 3.3126e-05
20970.0 3.3525e-05
20990.0 3.3919e-05
21010.0 3.4333e-05
21030.0 3.4737e-05
21050.0 3.5123e-05
21070.0 3.5509e-05
21090.0 3.5896e-05
21110.0 3.6248e-05
21130.0 3.6579e-05
21150.0 3.69e-05
21170.0 3.7191e-05
21190.0 3.7441e-05
21210.0 3.7666e-05
21230.0 3.7853e-05
21250.0 3.7986e-05
21270.0 3.8071e-05
21290.0 3.8103e-05
21310.0 3.8072e-05
21330.0 3.7982e-05
21350.0 3.7825e-05
21370.0 3.7593e-05
21390.0 3.7299e-05
21410.0 3.6938e-05
21430.0 3.6482e-05
21450.0 3.5969e-05
21470.0 3.5411e-05
21490.0 3.478e-05
21510.0 3.4088e-05
21530.0 3.3384e-05
21550.0 3.2647e-05
21570.0 3.1861e-05
21590.0 3.1088e-05
21610.0 3.0341e-05
21630.0 2.9594e-05
21650.0 2.8863e-05
21670.0 2.823e-05
21690.0 2.7646e-05
21710.0 2.712e-05
21730.0 2.6689e-05
21750.0 2.6357e-05
21770.0 2.6104e-05
21790.0 2.5958e-05
21810.0 2.5918e-05
21830.0 2.5975e-05
21850.0 2.6138e-05
21870.0 2.6391e-05
21890.0 2.6718e-05
21910.0 2.7137e-05
21930.0 2.763e-05
21950.0 2.8163e-05
21970.0 2.8753e-05
21990.0 2.9416e-05
22010.0 3.0078e-05
22030.0 3.0751e-05
22050.0 3.1458e-05
22070.0 3.2168e-05
22090.0 3.2841e-05
22110.0 3.3519e-05
22130.0 3.4196e-05
22150.0 3.4829e-05
22170.0 3.5425e-05
22190.0 3.6015e-05
22210.0 3.6565e-05
22230.0 3.7049e-05
22250.0 3.7505e-05
22270.0 3.7924e-05
22290.0 3.8283e-05
22310.0 3.859e-05
22330.0 3.8861e-05
22350.0 3.9071e-05
22370.0 3.9219e-05
22390.0 3.9311e-05
22410.0 3.934e-05
22430.0 3.9303e-05
22450.0 3.9202e-05
22470.0 3.9027e-05
22490.0 3.8781e-05
22510.0 3.8475e-05
22530.0 3.8083e-05
22550.0 3.7606e-05
22570.0 3.7077e-05
22590.0 3.6481e-05
22610.0 3.5795e-05
22630.0 3.5052e-05
22650.0 3.4285e-05
22670.0 3.3436e-05
22690.0 3.253e-05
22710.0 3.1616e-05
22730.0 3.0674e-05
22750.0 2.9653e-05
