#lamb flux
1010.0 7.8702e-11
1030.0 9.7848e-11
1050.0 1.1901e-10
1070.0 1.4174e-10
1090.0 1.6622e-10
1110.0 1.8939e-10
1130.0 2.1054e-10
1150.0 2.3066e-10
1170.0 2.4923e-10
1190.0 2.6412e-10
1210.0 2.7745e-10
1230.0 2.9006e-10
1250.0 3.0119e-10
1270.0 3.1146e-10
1290.0 3.2354e-10
1310.0 3.3703e-10
1330.0 3.5197e-10
1350.0 3.7033e-10
1370.0 3.9326e-10
1390.0 4.2012e-10
1410.0 4.5113e-10
1430.0 4.8802e-10
1450.0 5.2977e-10
1470.0 5.7529e-10
1490.0 6.251e-10
1510.0 6.7987e-10
1530.0 7.361e-10
1550.0 7.9403e-10
1570.0 8.5423e-10
1590.0 9.1528e-10
1610.0 9.7513e-10
1630.0 1.0356e-09
1650.0 1.0962e-09
1670.0 1.1548e-09
1690.0 1.2117e-09
1710.0 1.2685e-09
1730.0 1.3241e-09
1750.0 1.3761e-09
1770.0 1.4276e-09
1790.0 1.4784e-09
1810.0 1.5266e-09
1830.0 1.5729e-09
1850.0 1.6146e-09
1870.0 1.6498e-09
1890.0 1.6842e-09
1910.0 1.7198e-09
1930.0 1.7568e-09
1950.0 1.7931e-09
1970.0 1.8294e-09
1990.0 1.8672e-09
2010.0 1.9045e-09
2030.0 1.9405e-09
2050.0 1.9778e-09
2070.0 2.0171e-09
2090.0 2.0547e-09
2110.0 2.0927e-09
2130.0 2.1322e-09
2150.0 2.1714e-09
2170.0 2.2095e-09
2190.0 2.2493e-09
2210.0 2.2857e-09
2230.0 2.316e-09
2250.0 2.346e-09
2270.0 2.3775e-09
2290.0 2.4079e-09
2310.0 2.4369e-09
2330.0 2.4672e-09
2350.0 2.4979e-09
2370.0 2.5273e-09
2390.0 2.5573e-09
2410.0 2.5894e-09
2430.0 2.6211e-09
2450.0 2.6539e-09
2470.0 2.6915e-09
2490.0 2.7369e-09
2510.0 2.7909e-09
2530.0 2.8631e-09
2550.0 2.9656e-09
2570.0 3.105e-09
2590.0 3.2904e-09
2610.0 3.5559e-09
2630.0 3.9073e-09
2650.0 4.3354e-09
2670.0 4.8618e-09
2690.0 5.4963e-09
2710.0 6.1886e-09
2730.0 6.9142e-09
2750.0 7.697e-09
2770.0 8.4734e-09
2790.0 9.1968e-09
2810.0 9.8792e-09
2830.0 1.0521e-08
2850.0 1.1068e-08
2870.0 1.1557e-08
2890.0 1.2018e-08
2910.0 1.2454e-08
2930.0 1.2873e-08
2950.0 1.3306e-08
2970.0 1.3758e-08
2990.0 1.4222e-08
3010.0 1.4706e-08
3030.0 1.5223e-08
3050.0 1.5765e-08
3070.0 1.6317e-08
3090.0 1.6901e-08
3110.0 1.752e-08
3130.0 1.8183e-08
3150.0 1.8966e-08
3170.0 1.9943e-08
3190.0 2.1207e-08
3210.0 2.2846e-08
3230.0 2.4999e-08
3250.0 2.7656e-08
3270.0 3.0076e-08
3290.0 3.4094e-08
3310.0 4.2682e-08
3330.0 4.5488e-08
3350.0 4.6836e-08
3370.0 4.8125e-08
3390.0 4.9438e-08
3410.0 5.0781e-08
3430.0 5.2146e-08
3450.0 5.3513e-08
3470.0 5.4851e-08
3490.0 5.6161e-08
3510.0 5.744e-08
3530.0 5.7025e-08
3550.0 5.5431e-08
3570.0 5.6099e-08
3590.0 5.9255e-08
3610.0 6.4437e-08
3630.0 6.6042e-08
3650.0 6.3275e-08
3670.0 5.8305e-08
3690.0 5.5629e-08
3710.0 5.6577e-08
3730.0 5.844e-08
3750.0 5.9413e-08
3770.0 6.1415e-08
3790.0 6.3657e-08
3810.0 6.2571e-08
3830.0 5.8343e-08
3850.0 5.4689e-08
3870.0 5.2977e-08
3890.0 5.2207e-08
3910.0 5.0906e-08
3930.0 5.0307e-08
3950.0 5.1671e-08
3970.0 5.3271e-08
3990.0 5.3812e-08
4010.0 5.1726e-08
4030.0 4.8912e-08
4050.0 4.714e-08
4070.0 4.5638e-08
4090.0 4.4367e-08
4110.0 4.2673e-08
4130.0 4.009e-08
4150.0 3.7534e-08
4170.0 3.602e-08
4190.0 3.3517e-08
4210.0 3.0363e-08
4230.0 2.7154e-08
4250.0 2.414e-08
4270.0 2.1929e-08
4290.0 2.0205e-08
4310.0 1.9311e-08
4330.0 1.9286e-08
4350.0 1.9249e-08
4370.0 1.9436e-08
4390.0 2.0073e-08
4410.0 2.052e-08
4430.0 1.9723e-08
4450.0 1.7941e-08
4470.0 1.6424e-08
4490.0 1.556e-08
4510.0 1.503e-08
4530.0 1.4774e-08
4550.0 1.4562e-08
4570.0 1.451e-08
4590.0 1.4707e-08
4610.0 1.5235e-08
4630.0 1.5551e-08
4650.0 1.5738e-08
4670.0 1.5353e-08
4690.0 1.4477e-08
4710.0 1.3584e-08
4730.0 1.3036e-08
4750.0 1.2694e-08
4770.0 1.2715e-08
4790.0 1.2668e-08
4810.0 1.2394e-08
4830.0 1.2382e-08
4850.0 1.2784e-08
4870.0 1.29e-08
4890.0 1.2662e-08
4910.0 1.2402e-08
4930.0 1.1704e-08
4950.0 1.0649e-08
4970.0 9.9587e-09
4990.0 9.3924e-09
5010.0 9.2632e-09
5030.0 9.5774e-09
5050.0 9.8281e-09
5070.0 1.0193e-08
5090.0 1.0811e-08
5110.0 1.098e-08
5130.0 1.1073e-08
5150.0 1.1286e-08
5170.0 1.1364e-08
5190.0 1.1664e-08
5210.0 1.1729e-08
5230.0 1.1603e-08
5250.0 1.171e-08
5270.0 1.1883e-08
5290.0 1.192e-08
5310.0 1.1827e-08
5330.0 1.1606e-08
5350.0 1.1431e-08
5370.0 1.1313e-08
5390.0 1.1174e-08
5410.0 1.1045e-08
5430.0 1.1054e-08
5450.0 1.1201e-08
5470.0 1.1408e-08
5490.0 1.1679e-08
5510.0 1.2039e-08
5530.0 1.2184e-08
5550.0 1.2384e-08
5570.0 1.2374e-08
5590.0 1.2068e-08
5610.0 1.1976e-08
5630.0 1.2086e-08
5650.0 1.1933e-08
5670.0 1.1667e-08
5690.0 1.1296e-08
5710.0 1.1301e-08
5730.0 1.1402e-08
5750.0 1.0909e-08
5770.0 1.0355e-08
5790.0 9.4634e-09
5810.0 8.2257e-09
5830.0 8.9055e-09
5850.0 9.9396e-09
5870.0 1.019e-08
5890.0 1.0248e-08
5910.0 1.0293e-08
5930.0 1.0286e-08
5950.0 1.0097e-08
5970.0 9.9722e-09
5990.0 9.8061e-09
6010.0 9.5143e-09
6030.0 9.1744e-09
6050.0 9.0342e-09
6070.0 9.0264e-09
6090.0 8.8667e-09
6110.0 8.5554e-09
6130.0 8.2772e-09
6150.0 7.9366e-09
6170.0 7.5906e-09
6190.0 7.3008e-09
6210.0 7.0332e-09
6230.0 6.9128e-09
6250.0 6.7665e-09
6270.0 6.6245e-09
6290.0 6.5506e-09
6310.0 6.4793e-09
6330.0 6.3292e-09
6350.0 6.1258e-09
6370.0 5.9963e-09
6390.0 5.907e-09
6410.0 5.7276e-09
6430.0 5.5844e-09
6450.0 5.4507e-09
6470.0 5.3225e-09
6490.0 5.2338e-09
6510.0 5.1696e-09
6530.0 5.029e-09
6550.0 4.9168e-09
6570.0 4.8558e-09
6590.0 4.8303e-09
6610.0 4.7973e-09
6630.0 4.6303e-09
6650.0 4.5117e-09
6670.0 4.4732e-09
6690.0 4.4071e-09
6710.0 4.3071e-09
6730.0 4.2746e-09
6750.0 4.3079e-09
6770.0 4.5879e-09
6790.0 5.2019e-09
6810.0 4.9242e-09
6830.0 4.2715e-09
6850.0 4.1174e-09
6870.0 4.0536e-09
6890.0 4.0566e-09
6910.0 4.0666e-09
6930.0 4.0827e-09
6950.0 4.0578e-09
6970.0 3.9557e-09
6990.0 3.9199e-09
7010.0 3.9807e-09
7030.0 3.9885e-09
7050.0 3.9295e-09
7070.0 3.9196e-09
7090.0 3.9724e-09
7110.0 4.0618e-09
7130.0 4.0758e-09
7150.0 4.0848e-09
7170.0 4.1073e-09
7190.0 4.1669e-09
7210.0 4.1996e-09
7230.0 4.2207e-09
7250.0 4.28e-09
7270.0 4.317e-09
7290.0 4.3744e-09
7310.0 4.4762e-09
7330.0 4.4462e-09
7350.0 4.357e-09
7370.0 4.2784e-09
7390.0 4.2444e-09
7410.0 4.2973e-09
7430.0 4.3456e-09
7450.0 4.3748e-09
7470.0 4.4155e-09
7490.0 4.3843e-09
7510.0 4.3533e-09
7530.0 4.3918e-09
7550.0 4.5778e-09
7570.0 4.562e-09
7590.0 4.3175e-09
7610.0 4.2509e-09
7630.0 4.5138e-09
7650.0 4.5872e-09
7670.0 4.6599e-09
7690.0 4.8577e-09
7710.0 5.0204e-09
7730.0 5.0587e-09
7750.0 5.3327e-09
7770.0 5.1762e-09
7790.0 5.0348e-09
7810.0 5.3629e-09
7830.0 5.5476e-09
7850.0 5.7229e-09
7870.0 5.8069e-09
7890.0 5.8708e-09
7910.0 5.8262e-09
7930.0 5.8762e-09
7950.0 6.1324e-09
7970.0 6.1376e-09
7990.0 5.713e-09
8010.0 5.8404e-09
8030.0 5.9254e-09
8050.0 6.0347e-09
8070.0 5.4939e-09
8090.0 3.7379e-09
8110.0 3.8627e-09
8130.0 5.3724e-09
8150.0 5.788e-09
8170.0 6.022e-09
8190.0 6.1765e-09
8210.0 6.0717e-09
8230.0 6.5375e-09
8250.0 6.6606e-09
8270.0 6.3444e-09
8290.0 6.1164e-09
8310.0 6.0039e-09
8330.0 6.2712e-09
8350.0 6.5658e-09
8370.0 6.4663e-09
8390.0 6.1724e-09
8410.0 6.162e-09
8430.0 5.7837e-09
8450.0 5.8765e-09
8470.0 6.4251e-09
8490.0 6.4447e-09
8510.0 5.9727e-09
8530.0 5.6401e-09
8550.0 5.4207e-09
8570.0 5.0873e-09
8590.0 5.2339e-09
8610.0 5.5224e-09
8630.0 5.6896e-09
8650.0 5.7848e-09
8670.0 5.6487e-09
8690.0 5.5154e-09
8710.0 5.1596e-09
8730.0 4.9629e-09
8750.0 5.1343e-09
8770.0 5.2017e-09
8790.0 5.2255e-09
8810.0 5.1615e-09
8830.0 5.2506e-09
8850.0 5.5271e-09
8870.0 5.1649e-09
8890.0 4.8536e-09
8910.0 4.7854e-09
8930.0 4.5421e-09
8950.0 4.3462e-09
8970.0 4.3293e-09
8990.0 4.1492e-09
9010.0 3.8919e-09
9030.0 3.805e-09
9050.0 3.7745e-09
9070.0 3.7473e-09
9090.0 3.7199e-09
9110.0 3.6925e-09
9130.0 3.6648e-09
9150.0 3.637e-09
9170.0 3.6091e-09
9190.0 3.5812e-09
9210.0 3.5532e-09
9230.0 3.5252e-09
9250.0 3.4971e-09
9270.0 3.4691e-09
9290.0 3.4412e-09
9310.0 3.4136e-09
9330.0 3.3865e-09
9350.0 3.3595e-09
9370.0 3.3326e-09
9390.0 3.3058e-09
9410.0 3.2791e-09
9430.0 3.2526e-09
9450.0 3.2262e-09
9470.0 3.2001e-09
9490.0 3.174e-09
9510.0 3.1481e-09
9530.0 3.1223e-09
9550.0 3.0968e-09
9570.0 3.0714e-09
9590.0 3.0463e-09
9610.0 3.0219e-09
9630.0 2.9978e-09
9650.0 2.9739e-09
9670.0 2.9502e-09
9690.0 2.9268e-09
9710.0 2.9036e-09
9730.0 2.8806e-09
9750.0 2.8578e-09
9770.0 2.8353e-09
9790.0 2.8129e-09
9810.0 2.7909e-09
9830.0 2.769e-09
9850.0 2.7473e-09
9870.0 2.7255e-09
9890.0 2.7046e-09
9910.0 2.6839e-09
9930.0 2.6633e-09
9950.0 2.6429e-09
9970.0 2.6228e-09
9990.0 2.6029e-09
10010.0 2.5832e-09
10030.0 2.5637e-09
10050.0 2.5444e-09
10070.0 2.5254e-09
10090.0 2.5066e-09
10110.0 2.4881e-09
10130.0 2.4697e-09
10150.0 2.4516e-09
10170.0 2.4337e-09
10190.0 2.416e-09
10210.0 2.3985e-09
10230.0 2.3812e-09
10250.0 2.3642e-09
10270.0 2.3473e-09
10290.0 2.3307e-09
10310.0 2.3142e-09
10330.0 2.298e-09
10350.0 2.2819e-09
10370.0 2.266e-09
10390.0 2.2501e-09
10410.0 2.2313e-09
10430.0 2.2116e-09
10450.0 2.2001e-09
10470.0 2.1868e-09
10490.0 2.1732e-09
10510.0 2.1594e-09
10530.0 2.145e-09
10550.0 2.1308e-09
10570.0 2.117e-09
10590.0 2.103e-09
10610.0 2.089e-09
10630.0 2.0755e-09
10650.0 2.0621e-09
10670.0 2.0485e-09
10690.0 2.0353e-09
10710.0 2.0224e-09
10730.0 2.0093e-09
10750.0 1.9962e-09
10770.0 1.9837e-09
10790.0 1.9712e-09
10810.0 1.9586e-09
10830.0 1.9463e-09
10850.0 1.9344e-09
10870.0 1.9221e-09
10890.0 1.9099e-09
10910.0 1.898e-09
10930.0 1.8861e-09
10950.0 1.8738e-09
10970.0 1.8616e-09
10990.0 1.8495e-09
11010.0 1.6046e-09
11030.0 1.5928e-09
11050.0 1.5813e-09
11070.0 1.5697e-09
11090.0 1.5574e-09
11110.0 1.5455e-09
11130.0 1.5336e-09
11150.0 1.5214e-09
11170.0 1.5089e-09
11190.0 1.4969e-09
11210.0 1.4846e-09
11230.0 1.472e-09
11250.0 1.4598e-09
11270.0 1.4479e-09
11290.0 1.4359e-09
11310.0 1.4242e-09
11330.0 1.4134e-09
11350.0 1.4029e-09
11370.0 1.3927e-09
11390.0 1.3833e-09
11410.0 1.3744e-09
11430.0 1.3656e-09
11450.0 1.3573e-09
11470.0 1.3495e-09
11490.0 1.3418e-09
11510.0 1.3341e-09
11530.0 1.3268e-09
11550.0 1.3195e-09
11570.0 1.3119e-09
11590.0 1.3043e-09
11610.0 1.2968e-09
11630.0 1.2888e-09
11650.0 1.2805e-09
11670.0 1.2724e-09
11690.0 1.2641e-09
11710.0 1.2553e-09
11730.0 1.2466e-09
11750.0 1.238e-09
11770.0 1.2291e-09
11790.0 1.2201e-09
11810.0 1.2113e-09
11830.0 1.2027e-09
11850.0 1.1937e-09
11870.0 1.1852e-09
11890.0 1.1771e-09
11910.0 1.169e-09
11930.0 1.1612e-09
11950.0 1.154e-09
11970.0 1.1471e-09
11990.0 1.1404e-09
12010.0 1.1342e-09
12030.0 1.1286e-09
12050.0 1.1232e-09
12070.0 1.1182e-09
12090.0 1.1138e-09
12110.0 1.1097e-09
12130.0 1.1059e-09
12150.0 1.1025e-09
12170.0 1.0994e-09
12190.0 1.0963e-09
12210.0 1.0933e-09
12230.0 1.0905e-09
12250.0 1.0876e-09
12270.0 1.0845e-09
12290.0 1.0812e-09
12310.0 1.0778e-09
12330.0 1.0739e-09
12350.0 1.0695e-09
12370.0 1.0648e-09
12390.0 1.0596e-09
12410.0 1.0536e-09
12430.0 1.0474e-09
12450.0 1.0407e-09
12470.0 1.0334e-09
12490.0 1.0257e-09
12510.0 1.0179e-09
12530.0 1.0095e-09
12550.0 1.0007e-09
12570.0 9.9184e-10
12590.0 9.8297e-10
12610.0 9.7359e-10
12630.0 9.6416e-10
12650.0 9.5524e-10
12670.0 9.4611e-10
12690.0 9.3692e-10
12710.0 9.282e-10
12730.0 9.1979e-10
12750.0 9.1118e-10
12770.0 9.0308e-10
12790.0 8.9557e-10
12810.0 8.8826e-10
12830.0 8.8119e-10
12850.0 8.7487e-10
12870.0 8.6902e-10
12890.0 8.6341e-10
12910.0 8.5837e-10
12930.0 8.5397e-10
12950.0 8.4991e-10
12970.0 8.4631e-10
12990.0 8.4341e-10
13010.0 8.41e-10
13030.0 8.3901e-10
13050.0 8.3754e-10
13070.0 8.3652e-10
13090.0 8.3582e-10
13110.0 8.3542e-10
13130.0 8.3522e-10
13150.0 8.3512e-10
13170.0 8.3501e-10
13190.0 8.3478e-10
13210.0 8.3435e-10
13230.0 8.336e-10
13250.0 8.3245e-10
13270.0 8.309e-10
13290.0 8.2887e-10
13310.0 8.2621e-10
13330.0 8.2309e-10
13350.0 8.1952e-10
13370.0 8.1533e-10
13390.0 8.1053e-10
13410.0 8.0556e-10
13430.0 8.0009e-10
13450.0 7.9406e-10
13470.0 7.878e-10
13490.0 7.8141e-10
13510.0 7.7431e-10
13530.0 7.6701e-10
13550.0 7.5977e-10
13570.0 7.5224e-10
13590.0 7.4431e-10
13610.0 7.3649e-10
13630.0 7.2877e-10
13650.0 7.2063e-10
13670.0 7.1249e-10
13690.0 7.046e-10
13710.0 6.966e-10
13730.0 6.8824e-10
13750.0 6.8044e-10
13770.0 6.7279e-10
13790.0 6.6503e-10
13810.0 6.5748e-10
13830.0 6.5044e-10
13850.0 6.4337e-10
13870.0 6.364e-10
13890.0 6.2989e-10
13910.0 6.2368e-10
13930.0 6.1746e-10
13950.0 6.1152e-10
13970.0 6.0611e-10
13990.0 6.0075e-10
14010.0 5.9552e-10
14030.0 5.9069e-10
14050.0 5.8609e-10
14070.0 5.8146e-10
14090.0 5.7716e-10
14110.0 5.7318e-10
14130.0 5.693e-10
14150.0 5.6553e-10
14170.0 5.621e-10
14190.0 5.5884e-10
14210.0 5.556e-10
14230.0 5.5255e-10
14250.0 5.497e-10
14270.0 5.4683e-10
14290.0 5.4399e-10
14310.0 5.4137e-10
14330.0 5.3878e-10
14350.0 5.3616e-10
14370.0 5.3364e-10
14390.0 5.3123e-10
14410.0 5.2876e-10
14430.0 5.2631e-10
14450.0 5.2397e-10
14470.0 5.2164e-10
14490.0 5.1922e-10
14510.0 5.1689e-10
14530.0 5.1464e-10
14550.0 5.123e-10
14570.0 5.0995e-10
14590.0 5.0768e-10
14610.0 5.0535e-10
14630.0 5.0292e-10
14650.0 5.0053e-10
14670.0 4.9817e-10
14690.0 4.9569e-10
14710.0 4.9315e-10
14730.0 4.9073e-10
14750.0 4.8821e-10
14770.0 4.856e-10
14790.0 4.8301e-10
14810.0 4.8043e-10
14830.0 4.7765e-10
14850.0 4.7487e-10
14870.0 4.7215e-10
14890.0 4.6937e-10
14910.0 4.6653e-10
14930.0 4.6383e-10
14950.0 4.6127e-10
14970.0 4.5876e-10
14990.0 4.5647e-10
15010.0 4.5445e-10
15030.0 4.5262e-10
15050.0 4.5092e-10
15070.0 4.4948e-10
15090.0 4.4816e-10
15110.0 4.4688e-10
15130.0 4.4566e-10
15150.0 4.4452e-10
15170.0 4.4335e-10
15190.0 4.4217e-10
15210.0 4.4103e-10
15230.0 4.399e-10
15250.0 4.3872e-10
15270.0 4.3755e-10
15290.0 4.3644e-10
15310.0 4.3529e-10
15330.0 4.3413e-10
15350.0 4.3301e-10
15370.0 4.3189e-10
15390.0 4.3071e-10
15410.0 4.2956e-10
15430.0 4.2845e-10
15450.0 4.2731e-10
15470.0 4.2614e-10
15490.0 4.2503e-10
15510.0 4.2392e-10
15530.0 4.2277e-10
15550.0 4.2164e-10
15570.0 4.2054e-10
15590.0 4.1939e-10
15610.0 4.1824e-10
15630.0 4.1713e-10
15650.0 4.1602e-10
15670.0 4.1488e-10
15690.0 4.1376e-10
15710.0 4.1268e-10
15730.0 4.1155e-10
15750.0 4.1042e-10
15770.0 4.0932e-10
15790.0 4.0822e-10
15810.0 4.0707e-10
15830.0 4.0596e-10
15850.0 4.0488e-10
15870.0 4.0377e-10
15890.0 4.0265e-10
15910.0 4.0158e-10
15930.0 4.0048e-10
15950.0 3.9935e-10
15970.0 3.9826e-10
15990.0 3.9718e-10
16010.0 3.9607e-10
16030.0 3.9495e-10
16050.0 3.9389e-10
16070.0 3.9281e-10
16090.0 3.917e-10
16110.0 3.9062e-10
16130.0 3.8956e-10
16150.0 3.8844e-10
16170.0 3.8734e-10
16190.0 3.8628e-10
16210.0 3.852e-10
16230.0 3.841e-10
16250.0 3.8303e-10
16270.0 3.8198e-10
16290.0 3.8089e-10
16310.0 3.798e-10
16330.0 3.7876e-10
16350.0 3.7768e-10
16370.0 3.7657e-10
16390.0 3.7552e-10
16410.0 3.7447e-10
16430.0 3.7338e-10
16450.0 3.7231e-10
16470.0 3.7128e-10
16490.0 3.7021e-10
16510.0 3.6912e-10
16530.0 3.6807e-10
16550.0 3.6702e-10
16570.0 3.6593e-10
16590.0 3.6486e-10
16610.0 3.6384e-10
16630.0 3.6278e-10
16650.0 3.617e-10
16670.0 3.6067e-10
16690.0 3.5963e-10
16710.0 3.5854e-10
16730.0 3.5748e-10
16750.0 3.5645e-10
16770.0 3.5539e-10
16790.0 3.5431e-10
16810.0 3.5329e-10
16830.0 3.5226e-10
16850.0 3.5118e-10
16870.0 3.5014e-10
16890.0 3.4912e-10
16910.0 3.4805e-10
16930.0 3.4697e-10
16950.0 3.4595e-10
16970.0 3.4492e-10
16990.0 3.4385e-10
17010.0 3.4281e-10
17030.0 3.418e-10
17050.0 3.4073e-10
17070.0 3.3968e-10
17090.0 3.3865e-10
17110.0 3.3762e-10
17130.0 3.3654e-10
17150.0 3.355e-10
17170.0 3.3448e-10
17190.0 3.3343e-10
17210.0 3.3238e-10
17230.0 3.3137e-10
17250.0 3.3033e-10
17270.0 3.2926e-10
17290.0 3.2822e-10
17310.0 3.272e-10
17330.0 3.2614e-10
17350.0 3.2508e-10
17370.0 3.2408e-10
17390.0 3.2304e-10
17410.0 3.2198e-10
17430.0 3.2095e-10
17450.0 3.1994e-10
17470.0 3.1886e-10
17490.0 3.1781e-10
17510.0 3.168e-10
17530.0 3.1576e-10
17550.0 3.1469e-10
17570.0 3.1367e-10
17590.0 3.1266e-10
17610.0 3.1159e-10
17630.0 3.1055e-10
17650.0 3.0953e-10
17670.0 3.0849e-10
17690.0 3.074e-10
17710.0 3.0639e-10
17730.0 3.0536e-10
17750.0 3.0431e-10
17770.0 3.0326e-10
17790.0 3.0226e-10
17810.0 3.012e-10
17830.0 3.0014e-10
17850.0 2.9911e-10
17870.0 2.9808e-10
17890.0 2.9701e-10
17910.0 2.9596e-10
17930.0 2.9495e-10
17950.0 2.939e-10
17970.0 2.9284e-10
17990.0 2.9182e-10
18010.0 2.9079e-10
18030.0 2.8971e-10
18050.0 2.8866e-10
18070.0 2.8764e-10
18090.0 2.8659e-10
18110.0 2.8552e-10
18130.0 2.845e-10
18150.0 2.8347e-10
18170.0 2.824e-10
18190.0 2.8135e-10
18210.0 2.8034e-10
18230.0 2.7927e-10
18250.0 2.7819e-10
18270.0 2.7717e-10
18290.0 2.7613e-10
18310.0 2.7505e-10
18330.0 2.7401e-10
18350.0 2.7299e-10
18370.0 2.7192e-10
18390.0 2.7086e-10
18410.0 2.6983e-10
18430.0 2.6878e-10
18450.0 2.6769e-10
18470.0 2.6665e-10
18490.0 2.6562e-10
18510.0 2.6455e-10
18530.0 2.6349e-10
18550.0 2.6247e-10
18570.0 2.6141e-10
18590.0 2.6032e-10
18610.0 2.5928e-10
18630.0 2.5824e-10
18650.0 2.5716e-10
18670.0 2.5608e-10
18690.0 2.5506e-10
18710.0 2.5401e-10
18730.0 2.5293e-10
18750.0 2.5188e-10
18770.0 2.5085e-10
18790.0 2.4975e-10
18810.0 2.4868e-10
18830.0 2.4764e-10
18850.0 2.4658e-10
18870.0 2.455e-10
18890.0 2.4445e-10
18910.0 2.4341e-10
18930.0 2.4233e-10
18950.0 2.4126e-10
18970.0 2.4022e-10
18990.0 2.3915e-10
19010.0 2.3804e-10
19030.0 2.37e-10
19050.0 2.3595e-10
19070.0 2.3487e-10
19090.0 2.338e-10
19110.0 2.3277e-10
19130.0 2.3168e-10
19150.0 2.3059e-10
19170.0 2.2954e-10
19190.0 2.2848e-10
19210.0 2.2738e-10
19230.0 2.2631e-10
19250.0 2.2527e-10
19270.0 2.2419e-10
19290.0 2.2311e-10
19310.0 2.2206e-10
19330.0 2.21e-10
19350.0 2.1989e-10
19370.0 2.1882e-10
19390.0 2.1777e-10
19410.0 2.1668e-10
19430.0 2.1559e-10
19450.0 2.1454e-10
19470.0 2.1348e-10
19490.0 2.1238e-10
19510.0 2.1131e-10
19530.0 2.1026e-10
19550.0 2.0916e-10
19570.0 2.0806e-10
19590.0 2.0701e-10
19610.0 2.0594e-10
19630.0 2.0484e-10
19650.0 2.0377e-10
19670.0 2.0272e-10
19690.0 2.0162e-10
19710.0 2.0053e-10
19730.0 1.9947e-10
19750.0 1.9839e-10
19770.0 1.9728e-10
19790.0 1.9621e-10
19810.0 1.9515e-10
19830.0 1.9406e-10
19850.0 1.9297e-10
19870.0 1.9194e-10
19890.0 1.9087e-10
19910.0 1.898e-10
19930.0 1.8881e-10
19950.0 1.8787e-10
19970.0 1.8697e-10
19990.0 1.8618e-10
20010.0 1.8553e-10
20030.0 1.8496e-10
20050.0 1.8449e-10
20070.0 1.8412e-10
20090.0 1.8383e-10
20110.0 1.8357e-10
20130.0 1.8335e-10
20150.0 1.8315e-10
20170.0 1.8295e-10
20190.0 1.8275e-10
20210.0 1.8255e-10
20230.0 1.8234e-10
20250.0 1.8211e-10
20270.0 1.8187e-10
20290.0 1.8162e-10
20310.0 1.8135e-10
20330.0 1.8106e-10
20350.0 1.8077e-10
20370.0 1.8046e-10
20390.0 1.8013e-10
20410.0 1.7979e-10
20430.0 1.7945e-10
20450.0 1.7909e-10
20470.0 1.7871e-10
20490.0 1.7835e-10
20510.0 1.7798e-10
20530.0 1.7761e-10
20550.0 1.7724e-10
20570.0 1.769e-10
20590.0 1.7654e-10
20610.0 1.762e-10
20630.0 1.7588e-10
20650.0 1.7555e-10
20670.0 1.7522e-10
20690.0 1.7491e-10
20710.0 1.7459e-10
20730.0 1.7427e-10
20750.0 1.7392e-10
20770.0 1.7358e-10
20790.0 1.7322e-10
20810.0 1.7282e-10
20830.0 1.724e-10
20850.0 1.7197e-10
20870.0 1.7148e-10
20890.0 1.7096e-10
20910.0 1.7043e-10
20930.0 1.6987e-10
20950.0 1.6926e-10
20970.0 1.6865e-10
20990.0 1.6804e-10
21010.0 1.6737e-10
21030.0 1.6671e-10
21050.0 1.6607e-10
21070.0 1.6541e-10
21090.0 1.6473e-10
21110.0 1.641e-10
21130.0 1.6347e-10
21150.0 1.6283e-10
21170.0 1.622e-10
21190.0 1.616e-10
21210.0 1.6099e-10
21230.0 1.6036e-10
21250.0 1.5976e-10
21270.0 1.5915e-10
21290.0 1.5852e-10
21310.0 1.5789e-10
21330.0 1.5727e-10
21350.0 1.5662e-10
21370.0 1.5594e-10
21390.0 1.5523e-10
21410.0 1.5451e-10
21430.0 1.5372e-10
21450.0 1.5294e-10
21470.0 1.5216e-10
21490.0 1.5134e-10
21510.0 1.505e-10
21530.0 1.4968e-10
21550.0 1.4884e-10
21570.0 1.4796e-10
21590.0 1.4709e-10
21610.0 1.4623e-10
21630.0 1.4534e-10
21650.0 1.4443e-10
21670.0 1.4357e-10
21690.0 1.427e-10
21710.0 1.4181e-10
21730.0 1.4094e-10
21750.0 1.4009e-10
21770.0 1.392e-10
21790.0 1.3832e-10
21810.0 1.3747e-10
21830.0 1.3661e-10
21850.0 1.3572e-10
21870.0 1.3486e-10
21890.0 1.3402e-10
21910.0 1.3315e-10
21930.0 1.3228e-10
21950.0 1.3145e-10
21970.0 1.3061e-10
21990.0 1.2975e-10
22010.0 1.2893e-10
22030.0 1.2815e-10
22050.0 1.2735e-10
22070.0 1.2659e-10
22090.0 1.2591e-10
22110.0 1.2523e-10
22130.0 1.2457e-10
22150.0 1.2396e-10
22170.0 1.2338e-10
22190.0 1.2281e-10
22210.0 1.2227e-10
22230.0 1.2179e-10
22250.0 1.2131e-10
22270.0 1.2085e-10
22290.0 1.2043e-10
22310.0 1.2002e-10
22330.0 1.1961e-10
22350.0 1.1922e-10
22370.0 1.1884e-10
22390.0 1.1846e-10
22410.0 1.1807e-10
22430.0 1.1769e-10
22450.0 1.1732e-10
22470.0 1.1693e-10
22490.0 1.1654e-10
22510.0 1.1616e-10
22530.0 1.1576e-10
22550.0 1.1535e-10
22570.0 1.1495e-10
22590.0 1.1456e-10
