#lamb flux
1010.0 2.4729e-05
1030.0 2.7067e-05
1050.0 2.9488e-05
1070.0 3.2215e-05
1090.0 3.5389e-05
1110.0 3.8631e-05
1130.0 4.1885e-05
1150.0 4.529e-05
1170.0 4.8809e-05
1190.0 5.2165e-05
1210.0 5.5597e-05
1230.0 5.9185e-05
1250.0 6.2737e-05
1270.0 6.6253e-05
1290.0 7.003e-05
1310.0 7.388e-05
1330.0 7.7656e-05
1350.0 8.1538e-05
1370.0 8.5592e-05
1390.0 8.9601e-05
1410.0 9.3533e-05
1430.0 9.7638e-05
1450.0 0.00010174
1470.0 0.0001057
1490.0 0.00010966
1510.0 0.00011377
1530.0 0.00011762
1550.0 0.00012134
1570.0 0.00012509
1590.0 0.00012875
1610.0 0.00013213
1630.0 0.00013547
1650.0 0.00013879
1670.0 0.00014186
1690.0 0.00014477
1710.0 0.00014768
1730.0 0.0001505
1750.0 0.000153
1770.0 0.00015551
1790.0 0.00015801
1810.0 0.00016035
1830.0 0.00016259
1850.0 0.00016503
1870.0 0.00016739
1890.0 0.00016968
1910.0 0.00017212
1930.0 0.00017472
1950.0 0.00017729
1970.0 0.00017996
1990.0 0.0001829
2010.0 0.00018593
2030.0 0.000189
2050.0 0.00019232
2070.0 0.00019585
2090.0 0.00019931
2110.0 0.00020286
2130.0 0.00020657
2150.0 0.00021026
2170.0 0.00021382
2190.0 0.00021747
2210.0 0.00022108
2230.0 0.00022448
2250.0 0.00022776
2270.0 0.00023104
2290.0 0.00023407
2310.0 0.0002368
2330.0 0.00023944
2350.0 0.00024192
2370.0 0.00024407
2390.0 0.00024606
2410.0 0.00024801
2430.0 0.00024966
2450.0 0.00025105
2470.0 0.00025235
2490.0 0.00025358
2510.0 0.00025468
2530.0 0.00025629
2550.0 0.00025942
2570.0 0.00026514
2590.0 0.00027484
2610.0 0.00029186
2630.0 0.00031729
2650.0 0.00034993
2670.0 0.00039028
2690.0 0.00043676
2710.0 0.00048229
2730.0 0.00052258
2750.0 0.00055637
2770.0 0.00057775
2790.0 0.00058502
2810.0 0.00057914
2830.0 0.00055986
2850.0 0.00053103
2870.0 0.00049529
2890.0 0.00045324
2910.0 0.0004078
2930.0 0.00036213
2950.0 0.00031372
2970.0 0.00026345
2990.0 0.00021403
3010.0 0.00026011
3030.0 0.00017837
3050.0 9.6215e-05
3070.0 2.8768e-05
3090.0 2.8768e-05
3110.0 2.8768e-05
3130.0 2.8768e-05
3150.0 2.8768e-05
3170.0 2.8768e-05
3190.0 2.8768e-05
3210.0 0.00090824
3230.0 0.0025263
3250.0 0.0034369
3270.0 0.003016
3290.0 0.002286
3310.0 0.0018109
3330.0 0.0016893
3350.0 0.0017719
3370.0 0.0019168
3390.0 0.0020685
3410.0 0.0022273
3430.0 0.0024214
3450.0 0.002607
3470.0 0.0027997
3490.0 0.0028355
3510.0 0.0024731
3530.0 0.0023155
3550.0 0.0029611
3570.0 0.0037708
3590.0 0.0041967
3610.0 0.0043447
3630.0 0.0046058
3650.0 0.0046099
3670.0 0.0048035
3690.0 0.0056494
3710.0 0.0065665
3730.0 0.0071691
3750.0 0.0075411
3770.0 0.007661
3790.0 0.0074295
3810.0 0.006888
3830.0 0.0060297
3850.0 0.0047441
3870.0 0.004218
3890.0 0.0047515
3910.0 0.0062942
3930.0 0.0078677
3950.0 0.0086015
3970.0 0.0089031
3990.0 0.0096013
4010.0 0.0099275
4030.0 0.0089757
4050.0 0.0067667
4070.0 0.0057249
4090.0 0.0064113
4110.0 0.007117
4130.0 0.0076014
4150.0 0.0076059
4170.0 0.0073132
4190.0 0.0069855
4210.0 0.0074377
4230.0 0.007988
4250.0 0.0084657
4270.0 0.0084885
4290.0 0.0082214
4310.0 0.0082615
4330.0 0.0090816
4350.0 0.0099972
4370.0 0.010128
4390.0 0.0094441
4410.0 0.0083954
4430.0 0.0068044
4450.0 0.005621
4470.0 0.0055954
4490.0 0.0062097
4510.0 0.0067672
4530.0 0.0071146
4550.0 0.0076742
4570.0 0.0099775
4590.0 0.013711
4610.0 0.016293
4630.0 0.017306
4650.0 0.01882
4670.0 0.020957
4690.0 0.021332
4710.0 0.018481
4730.0 0.014501
4750.0 0.011382
4770.0 0.0095741
4790.0 0.0087253
4810.0 0.0084777
4830.0 0.0092127
4850.0 0.01086
4870.0 0.012129
4890.0 0.012441
4910.0 0.012501
4930.0 0.013815
4950.0 0.015921
4970.0 0.017285
4990.0 0.017158
5010.0 0.015456
5030.0 0.012793
5050.0 0.010374
5070.0 0.0088596
5090.0 0.0082874
5110.0 0.008296
5130.0 0.0084049
5150.0 0.0082985
5170.0 0.0078987
5190.0 0.0077126
5210.0 0.0080673
5230.0 0.00914
5250.0 0.01093
5270.0 0.012807
5290.0 0.01404
5310.0 0.01503
5330.0 0.016489
5350.0 0.017729
5370.0 0.017603
5390.0 0.016254
5410.0 0.015042
5430.0 0.015269
5450.0 0.017385
5470.0 0.020229
5490.0 0.022334
5510.0 0.023064
5530.0 0.022717
5550.0 0.021832
5570.0 0.020859
5590.0 0.01993
5610.0 0.019301
5630.0 0.019128
5650.0 0.018921
5670.0 0.017843
5690.0 0.015943
5710.0 0.014052
5730.0 0.012814
5750.0 0.012394
5770.0 0.012666
5790.0 0.012971
5810.0 0.013083
5830.0 0.013034
5850.0 0.012607
5870.0 0.012073
5890.0 0.011921
5910.0 0.012137
5930.0 0.012074
5950.0 0.011235
5970.0 0.009793
5990.0 0.0080785
6010.0 0.0067989
6030.0 0.0064736
6050.0 0.0069517
6070.0 0.0073039
6090.0 0.0069157
6110.0 0.0063469
6130.0 0.0065252
6150.0 0.0072977
6170.0 0.0080094
6190.0 0.0084429
6210.0 0.0085969
6230.0 0.0084384
6250.0 0.0076738
6270.0 0.0064708
6290.0 0.0054643
6310.0 0.005047
6330.0 0.005104
6350.0 0.0052786
6370.0 0.0055632
6390.0 0.0063697
6410.0 0.0076754
6430.0 0.0088345
6450.0 0.0094198
6470.0 0.009679
6490.0 0.0098259
6510.0 0.0099127
6530.0 0.0099983
6550.0 0.01011
6570.0 0.010364
6590.0 0.010592
6610.0 0.010564
6630.0 0.010117
6650.0 0.0093555
6670.0 0.0086196
6690.0 0.0081243
6710.0 0.0077771
6730.0 0.0074537
6750.0 0.0073295
6770.0 0.0075239
6790.0 0.0078044
6810.0 0.0079327
6830.0 0.0078094
6850.0 0.0074334
6870.0 0.0070398
6890.0 0.0068662
6910.0 0.0068629
6930.0 0.0070305
6950.0 0.0072128
6970.0 0.0073528
6990.0 0.0073805
7010.0 0.0071397
7030.0 0.0066005
7050.0 0.0059185
7070.0 0.0054549
7090.0 0.0053589
7110.0 0.0054059
7130.0 0.0051552
7150.0 0.0046595
7170.0 0.0045488
7190.0 0.0050279
7210.0 0.005762
7230.0 0.0063911
7250.0 0.0066233
7270.0 0.0064713
7290.0 0.0060782
7310.0 0.0057518
7330.0 0.005697
7350.0 0.0057952
7370.0 0.0058951
7390.0 0.0061792
7410.0 0.0067872
7430.0 0.007553
7450.0 0.0081914
7470.0 0.0084104
7490.0 0.0080242
7510.0 0.0074363
7530.0 0.0070131
7550.0 0.0066093
7570.0 0.0061678
7590.0 0.0059517
7610.0 0.0060035
7630.0 0.006304
7650.0 0.0068303
7670.0 0.0074711
7690.0 0.0080375
7710.0 0.0084833
7730.0 0.0088762
7750.0 0.0092013
7770.0 0.0092969
7790.0 0.0094398
7810.0 0.0094936
7830.0 0.0092522
7850.0 0.0089557
7870.0 0.0088045
7890.0 0.0088975
7910.0 0.0089191
7930.0 0.0087434
7950.0 0.0084309
7970.0 0.0081492
7990.0 0.0078786
8010.0 0.0076245
8030.0 0.0076752
8050.0 0.0076972
8070.0 0.0076153
8090.0 0.0075656
8110.0 0.0074301
8130.0 0.0074538
8150.0 0.0074109
8170.0 0.0072817
8190.0 0.0071045
8210.0 0.0069454
8230.0 0.0067726
8250.0 0.006718
8270.0 0.006291
8290.0 0.0053748
8310.0 0.0043362
8330.0 0.0036268
8350.0 0.0034715
8370.0 0.0039513
8390.0 0.0046096
8410.0 0.0049334
8430.0 0.0050933
8450.0 0.0054313
8470.0 0.0058832
8490.0 0.0065398
8510.0 0.0073312
8530.0 0.0081826
8550.0 0.0088819
8570.0 0.0094133
8590.0 0.0098167
8610.0 0.010039
8630.0 0.010015
8650.0 0.0098728
8670.0 0.0099026
8690.0 0.010454
8710.0 0.011201
8730.0 0.011603
8750.0 0.011563
8770.0 0.011728
8790.0 0.011749
8810.0 0.011194
8830.0 0.01043
8850.0 0.0094531
8870.0 0.0086983
8890.0 0.0084828
8910.0 0.0083999
8930.0 0.0078966
8950.0 0.0073178
8970.0 0.0070816
8990.0 0.0070928
9010.0 0.0069269
9030.0 0.0067905
9050.0 0.006727
9070.0 0.0066952
9090.0 0.0066676
9110.0 0.006641
9130.0 0.0066145
9150.0 0.0065886
9170.0 0.0065614
9190.0 0.0065405
9210.0 0.0065322
9230.0 0.0064995
9250.0 0.0064706
9270.0 0.0064441
9290.0 0.0064193
9310.0 0.0063951
9330.0 0.0063716
9350.0 0.0063494
9370.0 0.0063275
9390.0 0.0063054
9410.0 0.006284
9430.0 0.0062617
9450.0 0.0062305
9470.0 0.0062028
9490.0 0.0061917
9510.0 0.006176
9530.0 0.0061594
9550.0 0.0061416
9570.0 0.0061232
9590.0 0.0061049
9610.0 0.0060866
9630.0 0.006068
9650.0 0.0060497
9670.0 0.0060319
9690.0 0.0060139
9710.0 0.005996
9730.0 0.0059785
9750.0 0.0059611
9770.0 0.0059433
9790.0 0.005926
9810.0 0.0059089
9830.0 0.0058915
9850.0 0.0058741
9870.0 0.0058572
9890.0 0.0058401
9910.0 0.0058226
9930.0 0.0058051
9950.0 0.0057598
9970.0 0.0057506
9990.0 0.0057395
10010.0 0.0057282
10030.0 0.0057141
10050.0 0.0056976
10070.0 0.0056811
10090.0 0.0056647
10110.0 0.005645
10130.0 0.0056221
10150.0 0.0056047
10170.0 0.0055871
10190.0 0.0055672
10210.0 0.0055486
10230.0 0.0055301
10250.0 0.0055092
10270.0 0.0054882
10290.0 0.0054686
10310.0 0.0054469
10330.0 0.0054233
10350.0 0.0054015
10370.0 0.0053795
10390.0 0.0053553
10410.0 0.0053309
10430.0 0.0053083
10450.0 0.0052834
10470.0 0.0052571
10490.0 0.0052319
10510.0 0.0052065
10530.0 0.0051775
10550.0 0.0051494
10570.0 0.0051226
10590.0 0.0050935
10610.0 0.005063
10630.0 0.0050339
10650.0 0.005004
10670.0 0.0049711
10690.0 0.0049387
10710.0 0.004907
10730.0 0.004873
10750.0 0.0048367
10770.0 0.0048031
10790.0 0.0047681
10810.0 0.0047306
10830.0 0.0046934
10850.0 0.0046574
10870.0 0.0046172
10890.0 0.0045764
10910.0 0.0045368
10930.0 0.0044957
10950.0 0.0044516
10970.0 0.0044077
10990.0 0.0043648
11010.0 0.0047239
11030.0 0.0046755
11050.0 0.0046288
11070.0 0.004581
11090.0 0.0045295
11110.0 0.0044816
11130.0 0.0044347
11150.0 0.0043859
11170.0 0.0043372
11190.0 0.0042915
11210.0 0.0042445
11230.0 0.0041963
11250.0 0.0041503
11270.0 0.0041055
11290.0 0.0040591
11310.0 0.0040133
11330.0 0.0039708
11350.0 0.0039274
11370.0 0.0038831
11390.0 0.00384
11410.0 0.0037971
11430.0 0.0037504
11450.0 0.003703
11470.0 0.003655
11490.0 0.0036036
11510.0 0.0035477
11530.0 0.0034913
11550.0 0.0034325
11570.0 0.0033687
11590.0 0.0033029
11610.0 0.0032372
11630.0 0.0031674
11650.0 0.0030946
11670.0 0.0030244
11690.0 0.002954
11710.0 0.0028816
11730.0 0.0028107
11750.0 0.0027433
11770.0 0.0026745
11790.0 0.0026062
11810.0 0.0025414
11830.0 0.0024779
11850.0 0.0024128
11870.0 0.0023509
11890.0 0.0022922
11910.0 0.0022332
11930.0 0.0021752
11950.0 0.0021207
11970.0 0.0020674
11990.0 0.002014
12010.0 0.001964
12030.0 0.001917
12050.0 0.0018712
12070.0 0.0018273
12090.0 0.0017884
12110.0 0.0017519
12130.0 0.0017178
12150.0 0.0016878
12170.0 0.0016619
12190.0 0.0016387
12210.0 0.0016197
12230.0 0.0016051
12250.0 0.0015943
12270.0 0.0015875
12290.0 0.0015847
12310.0 0.0015851
12330.0 0.0015893
12350.0 0.0015967
12370.0 0.0016062
12390.0 0.0016181
12410.0 0.0016333
12430.0 0.0016487
12450.0 0.0016647
12470.0 0.0016822
12490.0 0.0016999
12510.0 0.0017162
12530.0 0.0017326
12550.0 0.0017486
12570.0 0.0017624
12590.0 0.0017741
12610.0 0.0017845
12630.0 0.0017921
12650.0 0.0017958
12670.0 0.0017969
12690.0 0.0017946
12710.0 0.0017885
12730.0 0.0017789
12750.0 0.0017656
12770.0 0.0017488
12790.0 0.0017291
12810.0 0.0017063
12830.0 0.0016806
12850.0 0.0016536
12870.0 0.0016252
12890.0 0.0015951
12910.0 0.0015646
12930.0 0.0015346
12950.0 0.001504
12970.0 0.0014733
12990.0 0.0014444
13010.0 0.0014163
13030.0 0.0013883
13050.0 0.0013617
13070.0 0.0013366
13090.0 0.0013116
13110.0 0.0012874
13130.0 0.0012645
13150.0 0.0012423
13170.0 0.0012201
13190.0 0.001199
13210.0 0.0011791
13230.0 0.0011594
13250.0 0.0011402
13270.0 0.0011223
13290.0 0.0011049
13310.0 0.0010878
13330.0 0.0010719
13350.0 0.001057
13370.0 0.0010426
13390.0 0.0010291
13410.0 0.0010169
13430.0 0.0010055
13450.0 0.00099477
13470.0 0.00098494
13490.0 0.00097588
13510.0 0.0009671
13530.0 0.0009588
13550.0 0.00095088
13570.0 0.00094304
13590.0 0.00093506
13610.0 0.00092709
13630.0 0.00091905
13650.0 0.0009106
13670.0 0.00090193
13690.0 0.00089323
13710.0 0.0008843
13730.0 0.000875
13750.0 0.00086603
13770.0 0.00085721
13790.0 0.00084837
13810.0 0.00083983
13830.0 0.00083185
13850.0 0.00082404
13870.0 0.00081653
13890.0 0.00080959
13910.0 0.00080304
13930.0 0.00079666
13950.0 0.00079058
13970.0 0.00078491
13990.0 0.00077924
14010.0 0.00077355
14030.0 0.00076795
14050.0 0.00076228
14070.0 0.00075618
14090.0 0.00074996
14110.0 0.00074363
14130.0 0.00073693
14150.0 0.00072983
14170.0 0.00072284
14190.0 0.00071575
14210.0 0.0007084
14230.0 0.00070125
14250.0 0.00069448
14270.0 0.00068777
14290.0 0.0006814
14310.0 0.00067583
14330.0 0.00067081
14350.0 0.0006663
14370.0 0.00066256
14390.0 0.00065957
14410.0 0.00065709
14430.0 0.00065519
14450.0 0.00065387
14470.0 0.00065295
14490.0 0.00065234
14510.0 0.00065204
14530.0 0.00065198
14550.0 0.0006521
14570.0 0.00065242
14590.0 0.000653
14610.0 0.00065387
14630.0 0.00065517
14650.0 0.000657
14670.0 0.00065946
14690.0 0.00066277
14710.0 0.00066713
14730.0 0.00067235
14750.0 0.00067883
14770.0 0.0006868
14790.0 0.00069603
14810.0 0.00070649
14830.0 0.00071919
14850.0 0.00073341
14870.0 0.00074872
14890.0 0.00076563
14910.0 0.00078408
14930.0 0.00080252
14950.0 0.00082048
14970.0 0.00083823
14990.0 0.00085414
15010.0 0.00086752
15030.0 0.00087876
15050.0 0.00088787
15070.0 0.00089462
15090.0 0.00089996
15110.0 0.00090435
15130.0 0.00090811
15150.0 0.00091156
15170.0 0.00091489
15190.0 0.0009182
15210.0 0.00092154
15230.0 0.00092495
15250.0 0.0009284
15270.0 0.00093193
15290.0 0.00093553
15310.0 0.0009392
15330.0 0.00094292
15350.0 0.00094672
15370.0 0.00095058
15390.0 0.00095449
15410.0 0.00095848
15430.0 0.00096252
15450.0 0.00096663
15470.0 0.00097078
15490.0 0.000975
15510.0 0.00097928
15530.0 0.00098361
15550.0 0.000988
15570.0 0.00099244
15590.0 0.00099693
15610.0 0.0010015
15630.0 0.0010061
15650.0 0.0010107
15670.0 0.0010154
15690.0 0.0010201
15710.0 0.0010249
15730.0 0.0010297
15750.0 0.0010346
15770.0 0.0010395
15790.0 0.0010444
15810.0 0.0010494
15830.0 0.0010544
15850.0 0.0010594
15870.0 0.0010645
15890.0 0.0010696
15910.0 0.0010747
15930.0 0.0010799
15950.0 0.0010851
15970.0 0.0010903
15990.0 0.0010955
16010.0 0.0011008
16030.0 0.0011061
16050.0 0.0011114
16070.0 0.0011167
16090.0 0.001122
16110.0 0.0011273
16130.0 0.0011327
16150.0 0.001138
16170.0 0.0011434
16190.0 0.0011488
16210.0 0.0011541
16230.0 0.0011595
16250.0 0.0011648
16270.0 0.0011702
16290.0 0.0011756
16310.0 0.0011809
16330.0 0.0011863
16350.0 0.0011916
16370.0 0.0011969
16390.0 0.0012022
16410.0 0.0012075
16430.0 0.0012127
16450.0 0.001218
16470.0 0.0012232
16490.0 0.0012284
16510.0 0.0012335
16530.0 0.0012386
16550.0 0.0012437
16570.0 0.0012488
16590.0 0.0012538
16610.0 0.0012588
16630.0 0.0012637
16650.0 0.0012686
16670.0 0.0012735
16690.0 0.0012783
16710.0 0.0012831
16730.0 0.0012878
16750.0 0.0012924
16770.0 0.001297
16790.0 0.0013015
16810.0 0.001306
16830.0 0.0013104
16850.0 0.0013148
16870.0 0.0013191
16890.0 0.0013233
16910.0 0.0013274
16930.0 0.0013315
16950.0 0.0013355
16970.0 0.0013394
16990.0 0.0013432
17010.0 0.001347
17030.0 0.0013507
17050.0 0.0013543
17070.0 0.0013578
17090.0 0.0013612
17110.0 0.0013646
17130.0 0.0013678
17150.0 0.001371
17170.0 0.001374
17190.0 0.001377
17210.0 0.0013799
17230.0 0.0013827
17250.0 0.0013853
17270.0 0.0013879
17290.0 0.0013904
17310.0 0.0013928
17330.0 0.001395
17350.0 0.0013972
17370.0 0.0013993
17390.0 0.0014012
17410.0 0.001403
17430.0 0.0014048
17450.0 0.0014064
17470.0 0.0014079
17490.0 0.0014093
17510.0 0.0014106
17530.0 0.0014118
17550.0 0.0014128
17570.0 0.0014138
17590.0 0.0014146
17610.0 0.0014153
17630.0 0.0014159
17650.0 0.0014164
17670.0 0.0014167
17690.0 0.001417
17710.0 0.0014171
17730.0 0.0014171
17750.0 0.001417
17770.0 0.0014168
17790.0 0.0014164
17810.0 0.001416
17830.0 0.0014154
17850.0 0.0014147
17870.0 0.0014139
17890.0 0.0014129
17910.0 0.0014119
17930.0 0.0014107
17950.0 0.0014094
17970.0 0.001408
17990.0 0.0014065
18010.0 0.0014049
18030.0 0.0014031
18050.0 0.0014013
18070.0 0.0013993
18090.0 0.0013973
18110.0 0.0013951
18130.0 0.0013928
18150.0 0.0013904
18170.0 0.0013879
18190.0 0.0013852
18210.0 0.0013825
18230.0 0.0013797
18250.0 0.0013767
18270.0 0.0013737
18290.0 0.0013706
18310.0 0.0013673
18330.0 0.001364
18350.0 0.0013606
18370.0 0.0013571
18390.0 0.0013534
18410.0 0.0013497
18430.0 0.0013459
18450.0 0.001342
18470.0 0.001338
18490.0 0.001334
18510.0 0.0013298
18530.0 0.0013255
18550.0 0.0013212
18570.0 0.0013168
18590.0 0.0013123
18610.0 0.0013078
18630.0 0.0013031
18650.0 0.0012984
18670.0 0.0012936
18690.0 0.0012888
18710.0 0.0012839
18730.0 0.0012789
18750.0 0.0012738
18770.0 0.0012687
18790.0 0.0012635
18810.0 0.0012582
18830.0 0.0012529
18850.0 0.0012476
18870.0 0.0012422
18890.0 0.0012367
18910.0 0.0012312
18930.0 0.0012256
18950.0 0.00122
18970.0 0.0012143
18990.0 0.0012086
19010.0 0.0012029
19030.0 0.0011971
19050.0 0.0011912
19070.0 0.0011854
19090.0 0.0011795
19110.0 0.0011735
19130.0 0.0011675
19150.0 0.0011615
19170.0 0.0011555
19190.0 0.0011494
19210.0 0.0011434
19230.0 0.0011372
19250.0 0.0011311
19270.0 0.001125
19290.0 0.0011188
19310.0 0.0011126
19330.0 0.0011064
19350.0 0.0011002
19370.0 0.0010939
19390.0 0.0010877
19410.0 0.0010814
19430.0 0.0010752
19450.0 0.0010689
19470.0 0.0010626
19490.0 0.0010563
19510.0 0.00105
19530.0 0.0010438
19550.0 0.0010375
19570.0 0.0010312
19590.0 0.0010249
19610.0 0.0010186
19630.0 0.0010123
19650.0 0.0010061
19670.0 0.0009998
19690.0 0.00099354
19710.0 0.0009873
19730.0 0.00098106
19750.0 0.00097484
19770.0 0.00096862
19790.0 0.00096242
19810.0 0.00095623
19830.0 0.00095003
19850.0 0.00094381
19870.0 0.00093753
19890.0 0.00093107
19910.0 0.00092426
19930.0 0.00091694
19950.0 0.00090884
19970.0 0.00089949
19990.0 0.00088867
20010.0 0.00087659
20030.0 0.00086271
20050.0 0.00084717
20070.0 0.00083074
20090.0 0.0008136
20110.0 0.00079517
20130.0 0.00077694
20150.0 0.00075922
20170.0 0.0007414
20190.0 0.00072378
20210.0 0.00070718
20230.0 0.00069111
20250.0 0.0006752
20270.0 0.00066021
20290.0 0.00064619
20310.0 0.00063261
20330.0 0.00061951
20350.0 0.00060775
20370.0 0.0005966
20390.0 0.00058599
20410.0 0.00057623
20430.0 0.00056734
20450.0 0.00055884
20470.0 0.00055102
20490.0 0.00054395
20510.0 0.0005374
20530.0 0.0005313
20550.0 0.00052574
20570.0 0.00052068
20590.0 0.00051592
20610.0 0.00051151
20630.0 0.00050742
20650.0 0.00050355
20670.0 0.00049986
20690.0 0.00049633
20710.0 0.0004929
20730.0 0.00048951
20750.0 0.00048614
20770.0 0.00048275
20790.0 0.0004793
20810.0 0.00047576
20830.0 0.00047212
20850.0 0.00046837
20870.0 0.00046445
20890.0 0.00046036
20910.0 0.00045619
20930.0 0.00045185
20950.0 0.00044733
20970.0 0.00044274
20990.0 0.00043807
21010.0 0.0004332
21030.0 0.00042827
21050.0 0.00042336
21070.0 0.00041836
21090.0 0.00041325
21110.0 0.00040825
21130.0 0.00040329
21150.0 0.00039826
21170.0 0.0003933
21190.0 0.00038848
21210.0 0.00038363
21230.0 0.00037881
21250.0 0.00037418
21270.0 0.00036965
21290.0 0.00036515
21310.0 0.00036078
21330.0 0.00035662
21350.0 0.00035252
21370.0 0.00034852
21390.0 0.00034472
21410.0 0.00034108
21430.0 0.0003375
21450.0 0.00033413
21470.0 0.00033095
21490.0 0.0003279
21510.0 0.000325
21530.0 0.00032229
21550.0 0.00031973
21570.0 0.00031729
21590.0 0.00031501
21610.0 0.00031286
21630.0 0.00031084
21650.0 0.00030893
21670.0 0.00030713
21690.0 0.00030542
21710.0 0.00030381
21730.0 0.00030227
21750.0 0.00030079
21770.0 0.00029938
21790.0 0.00029802
21810.0 0.0002967
21830.0 0.00029542
21850.0 0.00029418
21870.0 0.00029295
21890.0 0.00029173
21910.0 0.00029053
21930.0 0.00028933
21950.0 0.00028812
21970.0 0.0002869
21990.0 0.00028567
22010.0 0.00028441
22030.0 0.00028311
22050.0 0.00028179
22070.0 0.00028043
22090.0 0.00027903
22110.0 0.00027759
22130.0 0.0002761
22150.0 0.00027458
22170.0 0.00027302
22190.0 0.00027141
22210.0 0.00026976
22230.0 0.00026809
22250.0 0.00026637
22270.0 0.0002646
22290.0 0.0002628
22310.0 0.00026096
22330.0 0.00025903
22350.0 0.00025704
22370.0 0.000255
22390.0 0.00025286
22410.0 0.00025059
22430.0 0.00024826
22450.0 0.00024584
22470.0 0.00024325
22490.0 0.00024055
22510.0 0.00023779
22530.0 0.00023483
22550.0 0.00023172
22570.0 0.00022858
22590.0 0.00022535
22610.0 0.00022197
22630.0 0.00021855
22650.0 0.00021519
22670.0 0.00021173
22690.0 0.00020823
22710.0 0.00020486
22730.0 0.00020154
22750.0 0.00019815
22770.0 0.00019494
22790.0 0.00019191
22810.0 0.00018893
22830.0 0.00018606
22850.0 0.00018342
22870.0 0.0001809
22890.0 0.00017845
22910.0 0.00017619
22930.0 0.00017411
22950.0 0.0001721
22970.0 0.0001702
22990.0 0.00016848
23010.0 0.00016685
23030.0 0.00016526
23050.0 0.00016378
23070.0 0.00016238
23090.0 0.00016098
23110.0 0.00015963
23130.0 0.00015833
23150.0 0.00015704
23170.0 0.00015575
23190.0 0.00015449
23210.0 0.00015327
23230.0 0.00015203
23250.0 0.00015081
23270.0 0.00014964
23290.0 0.0001485
23310.0 0.00014735
23330.0 0.00014629
23350.0 0.00014528
23370.0 0.00014431
23390.0 0.00014339
23410.0 0.00014254
23430.0 0.00014174
23450.0 0.00014097
23470.0 0.00014027
