#lamb flux
1010.0 0.00027913
1030.0 0.0003578
1050.0 0.00044963
1070.0 0.0005542
1090.0 0.00067365
1110.0 0.00079638
1130.0 0.00091854
1150.0 0.0010429
1170.0 0.0011651
1190.0 0.0012716
1210.0 0.0013679
1230.0 0.0014533
1250.0 0.0015188
1270.0 0.0015619
1290.0 0.0015908
1310.0 0.0015985
1330.0 0.0015819
1350.0 0.0015475
1370.0 0.0014974
1390.0 0.0014317
1410.0 0.0013538
1430.0 0.0012716
1450.0 0.0011846
1470.0 0.0010944
1490.0 0.0010058
1510.0 0.00093282
1530.0 0.00087335
1550.0 0.00081554
1570.0 0.00076126
1590.0 0.00070952
1610.0 0.00065911
1630.0 0.00061253
1650.0 0.00056939
1670.0 0.00052858
1690.0 0.00049026
1710.0 0.00045471
1730.0 0.00042431
1750.0 0.00042498
1770.0 0.00043378
1790.0 0.00045072
1810.0 0.0004754
1830.0 0.00050829
1850.0 0.00055219
1870.0 0.0006046
1890.0 0.00066605
1910.0 0.00073769
1930.0 0.00082017
1950.0 0.00091269
1970.0 0.0010161
1990.0 0.0011318
2010.0 0.001259
2030.0 0.0013972
2050.0 0.0015482
2070.0 0.001712
2090.0 0.0018857
2110.0 0.0020705
2130.0 0.0022671
2150.0 0.0024731
2170.0 0.0026863
2190.0 0.0029092
2210.0 0.0031394
2230.0 0.0033734
2250.0 0.0036114
2270.0 0.003855
2290.0 0.0040985
2310.0 0.0043394
2330.0 0.0045807
2350.0 0.0048196
2370.0 0.0050506
2390.0 0.0052749
2410.0 0.005492
2430.0 0.0056927
2450.0 0.0058734
2470.0 0.0060318
2490.0 0.0061621
2510.0 0.0062625
2530.0 0.0063402
2550.0 0.0064084
2570.0 0.006492
2590.0 0.0066219
2610.0 0.0068563
2630.0 0.0072467
2650.0 0.0078126
2670.0 0.0086057
2690.0 0.0096699
2710.0 0.010929
2730.0 0.012328
2750.0 0.01391
2770.0 0.015525
2790.0 0.017039
2810.0 0.018455
2830.0 0.019761
2850.0 0.020795
2870.0 0.021646
2890.0 0.022383
2910.0 0.023009
2930.0 0.023538
2950.0 0.024053
2970.0 0.024561
2990.0 0.025042
3010.0 0.025518
3030.0 0.026019
3050.0 0.026524
3070.0 0.026997
3090.0 0.027484
3110.0 0.027967
3130.0 0.028414
3150.0 0.028817
3170.0 0.029224
3190.0 0.029603
3210.0 0.029977
3230.0 0.030389
3250.0 0.030884
3270.0 0.031437
3290.0 0.031992
3310.0 0.032498
3330.0 0.032943
3350.0 0.03333
3370.0 0.033679
3390.0 0.03398
3410.0 0.034229
3430.0 0.034446
3450.0 0.034691
3470.0 0.035298
3490.0 0.034985
3510.0 0.033669
3530.0 0.037394
3550.0 0.043941
3570.0 0.052476
3590.0 0.055354
3610.0 0.063131
3630.0 0.064483
3650.0 0.057718
3670.0 0.053309
3690.0 0.053444
3710.0 0.055985
3730.0 0.060696
3750.0 0.060526
3770.0 0.060227
3790.0 0.059561
3810.0 0.057752
3830.0 0.052342
3850.0 0.047388
3870.0 0.047377
3890.0 0.052642
3910.0 0.054837
3930.0 0.054277
3950.0 0.053276
3970.0 0.055527
3990.0 0.05912
4010.0 0.058988
4030.0 0.054756
4050.0 0.052301
4070.0 0.052448
4090.0 0.054743
4110.0 0.054757
4130.0 0.05357
4150.0 0.052143
4170.0 0.052429
4190.0 0.053158
4210.0 0.050744
4230.0 0.047221
4250.0 0.042716
4270.0 0.038039
4290.0 0.035035
4310.0 0.03234
4330.0 0.033606
4350.0 0.036767
4370.0 0.037972
4390.0 0.040172
4410.0 0.042744
4430.0 0.04366
4450.0 0.042053
4470.0 0.041591
4490.0 0.042979
4510.0 0.043465
4530.0 0.043418
4550.0 0.043656
4570.0 0.04443
4590.0 0.046082
4610.0 0.048069
4630.0 0.049655
4650.0 0.049102
4670.0 0.048521
4690.0 0.045313
4710.0 0.042186
4730.0 0.041742
4750.0 0.041129
4770.0 0.039215
4790.0 0.037228
4810.0 0.037044
4830.0 0.03736
4850.0 0.035541
4870.0 0.027322
4890.0 0.028069
4910.0 0.0311
4930.0 0.032474
4950.0 0.029276
4970.0 0.026593
4990.0 0.026253
5010.0 0.023955
5030.0 0.023211
5050.0 0.023954
5070.0 0.025786
5090.0 0.026965
5110.0 0.029409
5130.0 0.029826
5150.0 0.031331
5170.0 0.031485
5190.0 0.030794
5210.0 0.031575
5230.0 0.031689
5250.0 0.031783
5270.0 0.031872
5290.0 0.031681
5310.0 0.030464
5330.0 0.029046
5350.0 0.027164
5370.0 0.025986
5390.0 0.027076
5410.0 0.026592
5430.0 0.027247
5450.0 0.027168
5470.0 0.027022
5490.0 0.02703
5510.0 0.026025
5530.0 0.025948
5550.0 0.025619
5570.0 0.025721
5590.0 0.026057
5610.0 0.026179
5630.0 0.025755
5650.0 0.025874
5670.0 0.024752
5690.0 0.024574
5710.0 0.023358
5730.0 0.023533
5750.0 0.023149
5770.0 0.022208
5790.0 0.022437
5810.0 0.022245
5830.0 0.022696
5850.0 0.023162
5870.0 0.023025
5890.0 0.022755
5910.0 0.022872
5930.0 0.022733
5950.0 0.022957
5970.0 0.02234
5990.0 0.022366
6010.0 0.02243
6030.0 0.022325
6050.0 0.022171
6070.0 0.021495
6090.0 0.021334
6110.0 0.021608
6130.0 0.021351
6150.0 0.020877
6170.0 0.019881
6190.0 0.01845
6210.0 0.017623
6230.0 0.017465
6250.0 0.017558
6270.0 0.017735
6290.0 0.01837
6310.0 0.019294
6330.0 0.019768
6350.0 0.019517
6370.0 0.019759
6390.0 0.019511
6410.0 0.019128
6430.0 0.018365
6450.0 0.018207
6470.0 0.01818
6490.0 0.017931
6510.0 0.017708
6530.0 0.017472
6550.0 0.017322
6570.0 0.016927
6590.0 0.01673
6610.0 0.01656
6630.0 0.016124
6650.0 0.015504
6670.0 0.015114
6690.0 0.01511
6710.0 0.014899
6730.0 0.0146
6750.0 0.014281
6770.0 0.013969
6790.0 0.014005
6810.0 0.013916
6830.0 0.013675
6850.0 0.013242
6870.0 0.013033
6890.0 0.013016
6910.0 0.012736
6930.0 0.012686
6950.0 0.012424
6970.0 0.012288
6990.0 0.012183
7010.0 0.012297
7030.0 0.012273
7050.0 0.01195
7070.0 0.011792
7090.0 0.011611
7110.0 0.011309
7130.0 0.011426
7150.0 0.01139
7170.0 0.011455
7190.0 0.011368
7210.0 0.011569
7230.0 0.011906
7250.0 0.011801
7270.0 0.011917
7290.0 0.011742
7310.0 0.011359
7330.0 0.010991
7350.0 0.011076
7370.0 0.010877
7390.0 0.010841
7410.0 0.010462
7430.0 0.010274
7450.0 0.010267
7470.0 0.01027
7490.0 0.010489
7510.0 0.010139
7530.0 0.01023
7550.0 0.010184
7570.0 0.0094217
7590.0 0.0090264
7610.0 0.0088755
7630.0 0.0090114
7650.0 0.0089462
7670.0 0.009203
7690.0 0.0087619
7710.0 0.0090872
7730.0 0.0091528
7750.0 0.0098318
7770.0 0.010136
7790.0 0.010495
7810.0 0.011027
7830.0 0.01119
7850.0 0.011708
7870.0 0.011561
7890.0 0.011637
7910.0 0.011473
7930.0 0.01103
7950.0 0.010715
7970.0 0.010644
7990.0 0.01053
8010.0 0.009591
8030.0 0.0095296
8050.0 0.0093335
8070.0 0.00924
8090.0 0.0089041
8110.0 0.0089691
8130.0 0.0091458
8150.0 0.0093428
8170.0 0.0092765
8190.0 0.0094603
8210.0 0.0093389
8230.0 0.0089134
8250.0 0.0088045
8270.0 0.008647
8290.0 0.0084895
8310.0 0.0081272
8330.0 0.0082023
8350.0 0.0081933
8370.0 0.0082245
8390.0 0.0083515
8410.0 0.0082728
8430.0 0.0083349
8450.0 0.0084087
8470.0 0.0085097
8490.0 0.0086225
8510.0 0.0084417
8530.0 0.0081191
8550.0 0.0081756
8570.0 0.0081573
8590.0 0.0078997
8610.0 0.008061
8630.0 0.007944
8650.0 0.0077994
8670.0 0.007744
8690.0 0.0077151
8710.0 0.0073788
8730.0 0.0075022
8750.0 0.0072563
8770.0 0.0072417
8790.0 0.0070339
8810.0 0.0069341
8830.0 0.0069595
8850.0 0.0067057
8870.0 0.0063808
8890.0 0.0062918
8910.0 0.0059535
8930.0 0.0055117
8950.0 0.0055036
8970.0 0.0052919
8990.0 0.0052448
9010.0 0.0051811
9030.0 0.0051426
9050.0 0.0051066
9070.0 0.0050704
9090.0 0.0050339
9110.0 0.0049968
9130.0 0.0049598
9150.0 0.0049232
9170.0 0.0048864
9190.0 0.0048494
9210.0 0.0048122
9230.0 0.004775
9250.0 0.0047377
9270.0 0.0047003
9290.0 0.0046629
9310.0 0.0046256
9330.0 0.0045884
9350.0 0.0045512
9370.0 0.004514
9390.0 0.004477
9410.0 0.00444
9430.0 0.0044031
9450.0 0.0043663
9470.0 0.0043326
9490.0 0.0042975
9510.0 0.0042594
9530.0 0.004222
9550.0 0.0041853
9570.0 0.0041491
9590.0 0.0041132
9610.0 0.0040776
9630.0 0.0040425
9650.0 0.0040076
9670.0 0.0039727
9690.0 0.0039383
9710.0 0.0039042
9730.0 0.0038702
9750.0 0.0038365
9770.0 0.0038033
9790.0 0.0037702
9810.0 0.0037374
9830.0 0.0037045
9850.0 0.0036678
9870.0 0.0036343
9890.0 0.0036055
9910.0 0.0035763
9930.0 0.0035404
9950.0 0.0035098
9970.0 0.0034824
9990.0 0.0034541
10010.0 0.0034259
10030.0 0.0033974
10050.0 0.0033687
10070.0 0.0033406
10090.0 0.0033129
10110.0 0.0032848
10130.0 0.0032571
10150.0 0.0032303
10170.0 0.0032037
10190.0 0.003177
10210.0 0.0031511
10230.0 0.0031258
10250.0 0.0031003
10270.0 0.0030753
10290.0 0.003051
10310.0 0.0030267
10330.0 0.0030024
10350.0 0.002979
10370.0 0.002956
10390.0 0.0029329
10410.0 0.0029098
10430.0 0.0028874
10450.0 0.002866
10470.0 0.0028445
10490.0 0.0028236
10510.0 0.0028031
10530.0 0.0027822
10550.0 0.0027619
10570.0 0.0027423
10590.0 0.0027227
10610.0 0.0027032
10630.0 0.0026845
10650.0 0.0026661
10670.0 0.0026474
10690.0 0.0026293
10710.0 0.0026118
10730.0 0.0025942
10750.0 0.0025766
10770.0 0.00256
10790.0 0.0025435
10810.0 0.0025269
10830.0 0.0025109
10850.0 0.0024955
10870.0 0.0024797
10890.0 0.0024642
10910.0 0.0024496
10930.0 0.0024352
10950.0 0.002421
10970.0 0.0024075
10990.0 0.0023949
11010.0 0.0024683
11030.0 0.0024585
11050.0 0.0024496
11070.0 0.0024407
11090.0 0.002431
11110.0 0.0024217
11130.0 0.002412
11150.0 0.0024014
11170.0 0.0023902
11190.0 0.0023792
11210.0 0.0023675
11230.0 0.0023552
11250.0 0.0023434
11270.0 0.0023319
11290.0 0.00232
11310.0 0.0023085
11330.0 0.0022984
11350.0 0.0022884
11370.0 0.0022787
11390.0 0.0022701
11410.0 0.0022621
11430.0 0.0022538
11450.0 0.0022461
11470.0 0.0022388
11490.0 0.0022313
11510.0 0.0022233
11530.0 0.0022156
11550.0 0.0022076
11570.0 0.0021987
11590.0 0.0021896
11610.0 0.0021805
11630.0 0.0021705
11650.0 0.0021598
11670.0 0.0021496
11690.0 0.0021393
11710.0 0.0021284
11730.0 0.0021177
11750.0 0.0021077
11770.0 0.0020972
11790.0 0.0020867
11810.0 0.0020768
11830.0 0.0020672
11850.0 0.0020571
11870.0 0.0020477
11890.0 0.0020392
11910.0 0.0020306
11930.0 0.0020224
11950.0 0.0020153
11970.0 0.0020089
11990.0 0.0020028
12010.0 0.0019981
12030.0 0.0019946
12050.0 0.0019921
12070.0 0.0019906
12090.0 0.0019909
12110.0 0.0019922
12130.0 0.0019946
12150.0 0.0019983
12170.0 0.0020028
12190.0 0.0020083
12210.0 0.0020144
12230.0 0.002021
12250.0 0.0020278
12270.0 0.0020349
12290.0 0.0020418
12310.0 0.0020485
12330.0 0.0020549
12350.0 0.0020608
12370.0 0.002066
12390.0 0.0020705
12410.0 0.0020741
12430.0 0.0020768
12450.0 0.0020786
12470.0 0.0020791
12490.0 0.0020783
12510.0 0.0020766
12530.0 0.0020734
12550.0 0.0020686
12570.0 0.0020626
12590.0 0.0020554
12610.0 0.0020463
12630.0 0.0020358
12650.0 0.0020248
12670.0 0.0020123
12690.0 0.0019984
12710.0 0.0019841
12730.0 0.0019693
12750.0 0.0019528
12770.0 0.0019363
12790.0 0.00192
12810.0 0.0019032
12830.0 0.0018858
12850.0 0.0018695
12870.0 0.0018537
12890.0 0.0018375
12910.0 0.0018222
12930.0 0.0018081
12950.0 0.0017941
12970.0 0.0017805
12990.0 0.0017685
13010.0 0.0017572
13030.0 0.0017463
13050.0 0.0017363
13070.0 0.0017273
13090.0 0.0017185
13110.0 0.0017102
13130.0 0.0017026
13150.0 0.0016955
13170.0 0.0016882
13190.0 0.0016815
13210.0 0.0016753
13230.0 0.0016691
13250.0 0.0016629
13270.0 0.0016571
13290.0 0.0016513
13310.0 0.0016451
13330.0 0.0016391
13350.0 0.0016329
13370.0 0.0016263
13390.0 0.0016192
13410.0 0.001612
13430.0 0.0016042
13450.0 0.0015957
13470.0 0.0015868
13490.0 0.0015776
13510.0 0.0015672
13530.0 0.0015564
13550.0 0.0015455
13570.0 0.001534
13590.0 0.0015218
13610.0 0.0015095
13630.0 0.0014972
13650.0 0.0014841
13670.0 0.0014707
13690.0 0.0014575
13710.0 0.0014438
13730.0 0.0014293
13750.0 0.0014153
13770.0 0.0014013
13790.0 0.0013867
13810.0 0.001372
13830.0 0.0013579
13850.0 0.0013433
13870.0 0.0013286
13890.0 0.0013144
13910.0 0.0013005
13930.0 0.0012862
13950.0 0.0012724
13970.0 0.0012593
13990.0 0.0012463
14010.0 0.0012333
14030.0 0.001221
14050.0 0.0012091
14070.0 0.0011969
14090.0 0.0011851
14110.0 0.0011739
14130.0 0.0011625
14150.0 0.0011511
14170.0 0.0011402
14190.0 0.0011294
14210.0 0.0011184
14230.0 0.0011076
14250.0 0.0010971
14270.0 0.0010865
14290.0 0.0010758
14310.0 0.0010657
14330.0 0.0010558
14350.0 0.001046
14370.0 0.0010365
14390.0 0.0010276
14410.0 0.0010188
14430.0 0.0010102
14450.0 0.0010022
14470.0 0.00099443
14490.0 0.00098666
14510.0 0.0009793
14530.0 0.00097223
14550.0 0.00096513
14570.0 0.00095811
14590.0 0.00095132
14610.0 0.00094449
14630.0 0.00093751
14650.0 0.00093067
14670.0 0.00092391
14690.0 0.000917
14710.0 0.00091004
14730.0 0.00090334
14750.0 0.00089656
14770.0 0.00088969
14790.0 0.00088296
14810.0 0.00087636
14830.0 0.00086953
14850.0 0.00086279
14870.0 0.00085623
14890.0 0.00084963
14910.0 0.00084299
14930.0 0.00083658
14950.0 0.0008304
14970.0 0.00082427
14990.0 0.00081844
15010.0 0.000813
15030.0 0.0008078
15050.0 0.00080277
15070.0 0.00079812
15090.0 0.00079366
15110.0 0.00078925
15130.0 0.00078494
15150.0 0.00078076
15170.0 0.00077656
15190.0 0.00077235
15210.0 0.00076823
15230.0 0.00076414
15250.0 0.00076
15270.0 0.00075589
15290.0 0.0007519
15310.0 0.00074788
15330.0 0.00074385
15350.0 0.0007399
15370.0 0.00073598
15390.0 0.00073199
15410.0 0.00072808
15430.0 0.00072424
15450.0 0.00072038
15470.0 0.0007165
15490.0 0.00071274
15510.0 0.00070899
15530.0 0.0007052
15550.0 0.00070148
15570.0 0.00069783
15590.0 0.00069413
15610.0 0.00069043
15630.0 0.00068684
15650.0 0.00068326
15670.0 0.00067966
15690.0 0.00067612
15710.0 0.00067266
15730.0 0.00066915
15750.0 0.00066566
15770.0 0.00066225
15790.0 0.00065886
15810.0 0.00065541
15830.0 0.00065206
15850.0 0.00064877
15870.0 0.00064546
15890.0 0.00064216
15910.0 0.00063895
15930.0 0.00063574
15950.0 0.00063249
15970.0 0.00062933
15990.0 0.00062621
16010.0 0.00062307
16030.0 0.00061993
16050.0 0.00061692
16070.0 0.00061389
16090.0 0.00061084
16110.0 0.00060786
16130.0 0.00060495
16150.0 0.00060195
16170.0 0.00059901
16190.0 0.00059616
16210.0 0.0005933
16230.0 0.00059042
16250.0 0.00058763
16270.0 0.00058488
16290.0 0.00058208
16310.0 0.00057933
16330.0 0.00057665
16350.0 0.00057396
16370.0 0.00057122
16390.0 0.00056861
16410.0 0.00056602
16430.0 0.00056339
16450.0 0.00056081
16470.0 0.00055831
16490.0 0.00055577
16510.0 0.00055323
16530.0 0.00055077
16550.0 0.00054833
16570.0 0.00054585
16590.0 0.00054341
16610.0 0.00054107
16630.0 0.00053869
16650.0 0.00053632
16670.0 0.00053402
16690.0 0.00053174
16710.0 0.00052939
16730.0 0.00052712
16750.0 0.00052491
16770.0 0.00052267
16790.0 0.00052043
16810.0 0.00051828
16830.0 0.00051614
16850.0 0.00051396
16870.0 0.00051184
16890.0 0.00050977
16910.0 0.00050766
16930.0 0.00050554
16950.0 0.00050352
16970.0 0.00050151
16990.0 0.00049946
17010.0 0.00049747
17030.0 0.00049554
17050.0 0.00049355
17070.0 0.00049158
17090.0 0.00048968
17110.0 0.00048778
17130.0 0.00048583
17150.0 0.00048396
17170.0 0.00048214
17190.0 0.00048028
17210.0 0.00047843
17230.0 0.00047666
17250.0 0.00047486
17270.0 0.00047303
17290.0 0.00047127
17310.0 0.00046954
17330.0 0.00046778
17350.0 0.00046602
17370.0 0.00046435
17390.0 0.00046266
17410.0 0.00046094
17430.0 0.00045929
17450.0 0.00045767
17470.0 0.00045597
17490.0 0.00045431
17510.0 0.00045273
17530.0 0.00045111
17550.0 0.00044948
17570.0 0.00044792
17590.0 0.00044637
17610.0 0.00044478
17630.0 0.00044321
17650.0 0.0004417
17670.0 0.00044017
17690.0 0.00043858
17710.0 0.0004371
17730.0 0.00043562
17750.0 0.0004341
17770.0 0.00043261
17790.0 0.00043118
17810.0 0.00042969
17830.0 0.0004282
17850.0 0.00042677
17870.0 0.00042534
17890.0 0.00042387
17910.0 0.00042242
17930.0 0.00042105
17950.0 0.00041963
17970.0 0.00041819
17990.0 0.00041682
18010.0 0.00041545
18030.0 0.00041401
18050.0 0.00041262
18070.0 0.00041128
18090.0 0.00040989
18110.0 0.00040849
18130.0 0.00040716
18150.0 0.00040582
18170.0 0.00040444
18190.0 0.0004031
18210.0 0.00040179
18230.0 0.00040042
18250.0 0.00039904
18270.0 0.00039774
18290.0 0.00039642
18310.0 0.00039506
18330.0 0.00039374
18350.0 0.00039246
18370.0 0.00039111
18390.0 0.00038977
18410.0 0.00038848
18430.0 0.00038718
18450.0 0.0003858
18470.0 0.0003845
18490.0 0.00038323
18510.0 0.0003819
18530.0 0.00038057
18550.0 0.00037931
18570.0 0.00037799
18590.0 0.00037664
18610.0 0.00037534
18630.0 0.00037405
18650.0 0.00037271
18670.0 0.00037137
18690.0 0.00037011
18710.0 0.0003688
18730.0 0.00036745
18750.0 0.00036615
18770.0 0.00036487
18790.0 0.00036349
18810.0 0.00036216
18830.0 0.00036087
18850.0 0.00035954
18870.0 0.00035817
18890.0 0.00035687
18910.0 0.00035557
18930.0 0.00035419
18950.0 0.00035285
18970.0 0.00035154
18990.0 0.00035018
19010.0 0.00034877
19030.0 0.00034745
19050.0 0.00034611
19070.0 0.00034473
19090.0 0.00034336
19110.0 0.00034204
19130.0 0.00034064
19150.0 0.00033923
19170.0 0.00033787
19190.0 0.0003365
19210.0 0.00033506
19230.0 0.00033366
19250.0 0.0003323
19270.0 0.00033089
19290.0 0.00032945
19310.0 0.00032807
19330.0 0.00032667
19350.0 0.00032518
19370.0 0.00032375
19390.0 0.00032234
19410.0 0.00032088
19430.0 0.0003194
19450.0 0.00031799
19470.0 0.00031654
19490.0 0.00031505
19510.0 0.00031358
19530.0 0.00031214
19550.0 0.00031062
19570.0 0.00030909
19590.0 0.00030764
19610.0 0.00030615
19630.0 0.00030461
19650.0 0.00030311
19670.0 0.00030163
19690.0 0.00030007
19710.0 0.00029852
19730.0 0.00029702
19750.0 0.00029548
19770.0 0.00029387
19790.0 0.00029233
19810.0 0.00029081
19830.0 0.00028922
19850.0 0.00028764
19870.0 0.00028611
19890.0 0.00028453
19910.0 0.00028292
19930.0 0.00028139
19950.0 0.00027989
19970.0 0.00027838
19990.0 0.00027694
20010.0 0.00027562
20030.0 0.00027433
20050.0 0.00027309
20070.0 0.00027194
20090.0 0.00027086
20110.0 0.00026976
20130.0 0.00026872
20150.0 0.00026773
20170.0 0.00026674
20190.0 0.00026575
20210.0 0.00026481
20230.0 0.00026387
20250.0 0.00026292
20270.0 0.00026199
20290.0 0.0002611
20310.0 0.0002602
20330.0 0.00025928
20350.0 0.00025843
20370.0 0.00025758
20390.0 0.00025672
20410.0 0.00025589
20430.0 0.0002551
20450.0 0.0002543
20470.0 0.00025353
20490.0 0.00025279
20510.0 0.00025209
20530.0 0.0002514
20550.0 0.00025076
20570.0 0.00025017
20590.0 0.00024962
20610.0 0.00024911
20630.0 0.00024866
20650.0 0.00024825
20670.0 0.0002479
20690.0 0.00024759
20710.0 0.00024732
20730.0 0.00024708
20750.0 0.00024687
20770.0 0.00024667
20790.0 0.00024648
20810.0 0.00024628
20830.0 0.00024605
20850.0 0.00024579
20870.0 0.00024549
20890.0 0.00024514
20910.0 0.00024471
20930.0 0.00024421
20950.0 0.00024363
20970.0 0.00024297
20990.0 0.00024222
21010.0 0.00024137
21030.0 0.00024043
21050.0 0.00023942
21070.0 0.00023831
21090.0 0.0002371
21110.0 0.00023586
21130.0 0.00023455
21150.0 0.00023316
21170.0 0.00023173
21190.0 0.00023029
21210.0 0.00022877
21230.0 0.00022721
21250.0 0.00022566
21270.0 0.00022409
21290.0 0.00022247
21310.0 0.00022085
21330.0 0.00021926
21350.0 0.00021761
21370.0 0.00021594
21390.0 0.00021428
21410.0 0.00021261
21430.0 0.00021086
21450.0 0.00020912
21470.0 0.00020739
21490.0 0.0002056
21510.0 0.00020377
21530.0 0.00020197
21550.0 0.00020014
21570.0 0.00019823
21590.0 0.00019633
21610.0 0.00019444
21630.0 0.0001925
21650.0 0.0001905
21670.0 0.00018859
21690.0 0.00018665
21710.0 0.00018466
21730.0 0.00018271
21750.0 0.0001808
21770.0 0.00017882
21790.0 0.00017686
21810.0 0.00017496
21830.0 0.00017306
21850.0 0.00017113
21870.0 0.00016926
21890.0 0.00016744
21910.0 0.00016559
21930.0 0.00016376
21950.0 0.00016199
21970.0 0.00016022
21990.0 0.00015841
22010.0 0.00015667
22030.0 0.00015496
22050.0 0.00015322
22070.0 0.00015149
22090.0 0.00014982
22110.0 0.00014812
22130.0 0.00014641
22150.0 0.00014472
22170.0 0.00014305
22190.0 0.00014133
22210.0 0.00013961
22230.0 0.00013794
22250.0 0.00013624
22270.0 0.00013452
22290.0 0.00013283
22310.0 0.00013114
22330.0 0.00012941
22350.0 0.00012769
22370.0 0.00012601
22390.0 0.00012432
22410.0 0.00012259
22430.0 0.00012093
22450.0 0.00011929
22470.0 0.00011763
22490.0 0.000116
22510.0 0.00011442
22530.0 0.00011282
22550.0 0.00011123
22570.0 0.00010971
22590.0 0.00010821
22610.0 0.00010671
22630.0 0.00010525
22650.0 0.00010383
22670.0 0.00010242
22690.0 0.00010101
22710.0 9.9649e-05
22730.0 9.8304e-05
22750.0 9.6942e-05
22770.0 9.562e-05
22790.0 9.433e-05
22810.0 9.3039e-05
22830.0 9.1761e-05
22850.0 9.0522e-05
22870.0 8.9297e-05
22890.0 8.8078e-05
22910.0 8.6895e-05
22930.0 8.5746e-05
22950.0 8.4612e-05
22970.0 8.3503e-05
22990.0 8.2445e-05
23010.0 8.1412e-05
23030.0 8.0408e-05
23050.0 7.9441e-05
23070.0 7.851e-05
23090.0 7.7607e-05
23110.0 7.6738e-05
23130.0 7.59e-05
23150.0 7.5089e-05
23170.0 7.4307e-05
23190.0 7.3544e-05
23210.0 7.2793e-05
23230.0 7.2061e-05
23250.0 7.1337e-05
23270.0 7.0608e-05
23290.0 6.9878e-05
23310.0 6.9148e-05
23330.0 6.839e-05
23350.0 6.7608e-05
23370.0 6.6805e-05
23390.0 6.597e-05
23410.0 6.5092e-05
23430.0 6.4177e-05
23450.0 6.3436e-05
23470.0 6.2703e-05
23490.0 6.1944e-05
23510.0 6.1164e-05
23530.0 6.0364e-05
23550.0 5.9546e-05
23570.0 5.8716e-05
