#lamb flux
1010.0 0.0001264
1030.0 0.00015053
1050.0 0.00017202
1070.0 0.00018807
1090.0 0.00019654
1110.0 0.00019087
1130.0 0.00016946
1150.0 0.0001351
1170.0 8.4607e-05
1190.0 2.2114e-05
1210.0 1.7194e-05
1230.0 1.2089e-05
1250.0 7.0678e-06
1270.0 2.1867e-06
1290.0 1e-99
1310.0 1e-99
1330.0 1e-99
1350.0 1e-99
1370.0 1e-99
1390.0 1e-99
1410.0 1e-99
1430.0 1e-99
1450.0 1e-99
1470.0 1e-99
1490.0 1e-99
1510.0 9.6192e-05
1530.0 0.0003118
1550.0 0.00054379
1570.0 0.0007981
1590.0 0.0010584
1610.0 0.0013184
1630.0 0.001577
1650.0 0.001832
1670.0 0.0020779
1690.0 0.0023136
1710.0 0.0025417
1730.0 0.0027596
1750.0 0.0029618
1770.0 0.003155
1790.0 0.003339
1810.0 0.00351
1830.0 0.0036694
1850.0 0.0038245
1870.0 0.0039685
1890.0 0.0041011
1910.0 0.0042274
1930.0 0.0043485
1950.0 0.0044583
1970.0 0.0045603
1990.0 0.0046593
2010.0 0.0047508
2030.0 0.0048333
2050.0 0.0049131
2070.0 0.0049899
2090.0 0.0050566
2110.0 0.0051184
2130.0 0.0051785
2150.0 0.005233
2170.0 0.00528
2190.0 0.0053268
2210.0 0.0053713
2230.0 0.0054097
2250.0 0.0054457
2270.0 0.0054835
2290.0 0.0055173
2310.0 0.0055467
2330.0 0.005578
2350.0 0.0056095
2370.0 0.0056377
2390.0 0.005667
2410.0 0.0057009
2430.0 0.0057347
2450.0 0.0057716
2470.0 0.0058208
2490.0 0.0058897
2510.0 0.0059804
2530.0 0.006115
2550.0 0.0063195
2570.0 0.0066071
2590.0 0.0069949
2610.0 0.0075543
2630.0 0.0082897
2650.0 0.009174
2670.0 0.010246
2690.0 0.011513
2710.0 0.012866
2730.0 0.014251
2750.0 0.015712
2770.0 0.017127
2790.0 0.018415
2810.0 0.019603
2830.0 0.020693
2850.0 0.021594
2870.0 0.022378
2890.0 0.023091
2910.0 0.023743
2930.0 0.024349
2950.0 0.024957
2970.0 0.025572
2990.0 0.026185
3010.0 0.026805
3030.0 0.027442
3050.0 0.028081
3070.0 0.0287
3090.0 0.029324
3110.0 0.029956
3130.0 0.030611
3150.0 0.031595
3170.0 0.032811
3190.0 0.034457
3210.0 0.036625
3230.0 0.039423
3250.0 0.042458
3270.0 0.044326
3290.0 0.048962
3310.0 0.061814
3330.0 0.064564
3350.0 0.064832
3370.0 0.064939
3390.0 0.06506
3410.0 0.065285
3430.0 0.065593
3450.0 0.065918
3470.0 0.066171
3490.0 0.066536
3510.0 0.067438
3530.0 0.067076
3550.0 0.064515
3570.0 0.062053
3590.0 0.062166
3610.0 0.065747
3630.0 0.063309
3650.0 0.058944
3670.0 0.055016
3690.0 0.054241
3710.0 0.056456
3730.0 0.058142
3750.0 0.058872
3770.0 0.060921
3790.0 0.06339
3810.0 0.061452
3830.0 0.05791
3850.0 0.055811
3870.0 0.055323
3890.0 0.054209
3910.0 0.052857
3930.0 0.053102
3950.0 0.055285
3970.0 0.057879
3990.0 0.060229
4010.0 0.058678
4030.0 0.056999
4050.0 0.056731
4070.0 0.056751
4090.0 0.056693
4110.0 0.055837
4130.0 0.054014
4150.0 0.052349
4170.0 0.052031
4190.0 0.0497
4210.0 0.046761
4230.0 0.04335
4250.0 0.04014
4270.0 0.038162
4290.0 0.036214
4310.0 0.035809
4330.0 0.037
4350.0 0.037443
4370.0 0.039064
4390.0 0.041205
4410.0 0.043189
4430.0 0.042319
4450.0 0.039799
4470.0 0.037809
4490.0 0.03676
4510.0 0.0365
4530.0 0.036787
4550.0 0.037139
4570.0 0.03773
4590.0 0.038874
4610.0 0.041224
4630.0 0.042829
4650.0 0.044062
4670.0 0.043366
4690.0 0.041356
4710.0 0.0391
4730.0 0.037858
4750.0 0.037034
4770.0 0.037898
4790.0 0.037628
4810.0 0.036739
4830.0 0.037843
4850.0 0.038036
4870.0 0.039351
4890.0 0.03752
4910.0 0.035485
4930.0 0.032894
4950.0 0.030473
4970.0 0.027951
4990.0 0.025865
5010.0 0.025652
5030.0 0.026313
5050.0 0.025827
5070.0 0.026399
5090.0 0.027499
5110.0 0.027332
5130.0 0.02715
5150.0 0.026982
5170.0 0.027191
5190.0 0.027626
5210.0 0.026883
5230.0 0.026382
5250.0 0.025762
5270.0 0.024988
5290.0 0.024703
5310.0 0.024568
5330.0 0.02367
5350.0 0.023426
5370.0 0.022795
5390.0 0.022008
5410.0 0.021614
5430.0 0.02102
5450.0 0.021581
5470.0 0.02183
5490.0 0.021317
5510.0 0.021876
5530.0 0.022022
5550.0 0.022408
5570.0 0.022143
5590.0 0.021293
5610.0 0.021109
5630.0 0.021445
5650.0 0.021185
5670.0 0.020777
5690.0 0.020099
5710.0 0.020419
5730.0 0.020649
5750.0 0.019873
5770.0 0.019072
5790.0 0.017297
5810.0 0.014916
5830.0 0.016566
5850.0 0.019178
5870.0 0.020117
5890.0 0.020537
5910.0 0.020731
5930.0 0.021113
5950.0 0.020961
5970.0 0.021024
5990.0 0.020912
6010.0 0.020683
6030.0 0.020229
6050.0 0.0203
6070.0 0.020821
6090.0 0.020712
6110.0 0.020275
6130.0 0.020043
6150.0 0.01953
6170.0 0.018951
6190.0 0.018801
6210.0 0.018381
6230.0 0.018294
6250.0 0.018214
6270.0 0.018125
6290.0 0.01811
6310.0 0.018066
6330.0 0.017884
6350.0 0.017577
6370.0 0.017395
6390.0 0.017497
6410.0 0.017117
6430.0 0.016942
6450.0 0.016677
6470.0 0.016406
6490.0 0.016256
6510.0 0.01631
6530.0 0.015953
6550.0 0.015705
6570.0 0.015668
6590.0 0.015597
6610.0 0.01555
6630.0 0.015034
6650.0 0.014738
6670.0 0.014674
6690.0 0.014489
6710.0 0.014184
6730.0 0.014088
6750.0 0.014174
6770.0 0.015154
6790.0 0.017561
6810.0 0.016372
6830.0 0.013916
6850.0 0.013397
6870.0 0.013103
6890.0 0.013031
6910.0 0.012967
6930.0 0.012937
6950.0 0.01269
6970.0 0.012254
6990.0 0.012017
7010.0 0.012082
7030.0 0.01192
7050.0 0.011597
7070.0 0.011556
7090.0 0.011685
7110.0 0.011872
7130.0 0.011665
7150.0 0.011503
7170.0 0.011406
7190.0 0.011531
7210.0 0.01128
7230.0 0.011054
7250.0 0.011049
7270.0 0.010956
7290.0 0.010873
7310.0 0.01105
7330.0 0.010822
7350.0 0.010454
7370.0 0.010005
7390.0 0.0096422
7410.0 0.0097808
7430.0 0.0097023
7450.0 0.0096201
7470.0 0.009442
7490.0 0.0091921
7510.0 0.0090672
7530.0 0.0089325
7550.0 0.0095224
7570.0 0.0094387
7590.0 0.0085532
7610.0 0.0081259
7630.0 0.0086184
7650.0 0.0085345
7670.0 0.0087726
7690.0 0.0092964
7710.0 0.009341
7730.0 0.0090549
7750.0 0.009658
7770.0 0.0089654
7790.0 0.0085031
7810.0 0.0091064
7830.0 0.0091852
7850.0 0.0095704
7870.0 0.009435
7890.0 0.0095413
7910.0 0.0093575
7930.0 0.0095006
7950.0 0.010026
7970.0 0.0097785
7990.0 0.0088343
8010.0 0.009131
8030.0 0.0090047
8050.0 0.0088419
8070.0 0.0086115
8090.0 0.0077879
8110.0 0.007783
8130.0 0.0084931
8150.0 0.0088738
8170.0 0.009013
8190.0 0.0093076
8210.0 0.0090821
8230.0 0.0090047
8250.0 0.0089915
8270.0 0.0088429
8290.0 0.0086672
8310.0 0.0082539
8330.0 0.0082164
8350.0 0.0083846
8370.0 0.0084446
8390.0 0.0083501
8410.0 0.0082389
8430.0 0.0080532
8450.0 0.0080032
8470.0 0.0083937
8490.0 0.0084701
8510.0 0.0080756
8530.0 0.007832
8550.0 0.0077707
8570.0 0.0074753
8590.0 0.0074041
8610.0 0.0075305
8630.0 0.0076035
8650.0 0.0075688
8670.0 0.0075296
8690.0 0.0074207
8710.0 0.0071168
8730.0 0.0070472
8750.0 0.006906
8770.0 0.0069235
8790.0 0.0069294
8810.0 0.0067011
8830.0 0.0067012
8850.0 0.0068235
8870.0 0.006492
8890.0 0.0061811
8910.0 0.0060094
8930.0 0.0058042
8950.0 0.0055856
8970.0 0.0053545
8990.0 0.0052574
9010.0 0.005035
9030.0 0.0049721
9050.0 0.0049432
9070.0 0.0049159
9090.0 0.0048883
9110.0 0.00486
9130.0 0.0048318
9150.0 0.0048039
9170.0 0.0047758
9190.0 0.0047474
9210.0 0.0047188
9230.0 0.00469
9250.0 0.0046611
9270.0 0.004632
9290.0 0.0046028
9310.0 0.0045745
9330.0 0.0045474
9350.0 0.0045203
9370.0 0.0044931
9390.0 0.0044658
9410.0 0.0044385
9430.0 0.0044112
9450.0 0.0043838
9470.0 0.0043591
9490.0 0.0043329
9510.0 0.0043042
9530.0 0.0042757
9550.0 0.0042479
9570.0 0.0042204
9590.0 0.004193
9610.0 0.0041669
9630.0 0.0041412
9650.0 0.0041154
9670.0 0.0040896
9690.0 0.0040641
9710.0 0.0040387
9730.0 0.0040132
9750.0 0.0039879
9770.0 0.003963
9790.0 0.0039379
9810.0 0.003913
9830.0 0.0038883
9850.0 0.0038615
9870.0 0.003834
9890.0 0.003812
9910.0 0.0037894
9930.0 0.0037627
9950.0 0.003739
9970.0 0.0037172
9990.0 0.0036949
10010.0 0.0036726
10030.0 0.0036501
10050.0 0.0036274
10070.0 0.003605
10090.0 0.0035828
10110.0 0.0035606
10130.0 0.0035385
10150.0 0.003517
10170.0 0.0034955
10190.0 0.0034741
10210.0 0.0034532
10230.0 0.0034325
10250.0 0.0034119
10270.0 0.0033915
10290.0 0.0033715
10310.0 0.0033516
10330.0 0.0033318
10350.0 0.0033125
10370.0 0.0032934
10390.0 0.0032742
10410.0 0.0032535
10430.0 0.0032325
10450.0 0.0032165
10470.0 0.0031994
10490.0 0.0031824
10510.0 0.0031655
10530.0 0.0031481
10550.0 0.0031311
10570.0 0.0031145
10590.0 0.0030979
10610.0 0.0030814
10630.0 0.0030654
10650.0 0.0030497
10670.0 0.0030337
10690.0 0.0030182
10710.0 0.0030031
10730.0 0.002988
10750.0 0.0029728
10770.0 0.0029584
10790.0 0.0029442
10810.0 0.0029298
10830.0 0.0029158
10850.0 0.0029024
10870.0 0.0028885
10890.0 0.0028748
10910.0 0.0028617
10930.0 0.0028485
10950.0 0.0028349
10970.0 0.0028215
10990.0 0.0028082
11010.0 0.0027636
11030.0 0.0027496
11050.0 0.0027367
11070.0 0.0027238
11090.0 0.0027101
11110.0 0.0026972
11130.0 0.0026845
11150.0 0.002671
11170.0 0.0026571
11190.0 0.0026439
11210.0 0.0026301
11230.0 0.0026157
11250.0 0.0026019
11270.0 0.0025886
11290.0 0.0025748
11310.0 0.0025616
11330.0 0.00255
11350.0 0.0025387
11370.0 0.0025278
11390.0 0.0025182
11410.0 0.0025096
11430.0 0.0025009
11450.0 0.0024931
11470.0 0.0024862
11490.0 0.0024793
11510.0 0.0024721
11530.0 0.0024656
11550.0 0.0024591
11570.0 0.0024519
11590.0 0.0024445
11610.0 0.0024372
11630.0 0.002429
11650.0 0.00242
11670.0 0.0024112
11690.0 0.002402
11710.0 0.0023918
11730.0 0.0023815
11750.0 0.0023716
11770.0 0.0023608
11790.0 0.0023498
11810.0 0.0023392
11830.0 0.0023287
11850.0 0.0023175
11870.0 0.002307
11890.0 0.0022974
11910.0 0.0022877
11930.0 0.0022783
11950.0 0.0022701
11970.0 0.0022623
11990.0 0.0022546
12010.0 0.002248
12030.0 0.0022423
12050.0 0.0022369
12070.0 0.0022321
12090.0 0.0022285
12110.0 0.0022253
12130.0 0.0022224
12150.0 0.0022202
12170.0 0.0022185
12190.0 0.0022166
12210.0 0.0022149
12230.0 0.0022134
12250.0 0.0022115
12270.0 0.0022091
12290.0 0.0022062
12310.0 0.0022029
12330.0 0.0021984
12350.0 0.0021929
12370.0 0.0021867
12390.0 0.0021792
12410.0 0.00217
12430.0 0.0021603
12450.0 0.0021496
12470.0 0.0021375
12490.0 0.0021243
12510.0 0.0021111
12530.0 0.0020966
12550.0 0.002081
12570.0 0.0020655
12590.0 0.0020498
12610.0 0.002033
12630.0 0.0020161
12650.0 0.0020002
12670.0 0.0019838
12690.0 0.0019673
12710.0 0.0019517
12730.0 0.0019367
12750.0 0.0019213
12770.0 0.001907
12790.0 0.0018938
12810.0 0.0018811
12830.0 0.0018688
12850.0 0.001858
12870.0 0.0018481
12890.0 0.0018387
12910.0 0.0018305
12930.0 0.0018235
12950.0 0.0018172
12970.0 0.0018118
12990.0 0.0018077
13010.0 0.0018046
13030.0 0.0018023
13050.0 0.0018009
13070.0 0.0018004
13090.0 0.0018004
13110.0 0.0018008
13130.0 0.0018016
13150.0 0.0018024
13170.0 0.001803
13190.0 0.0018032
13210.0 0.0018028
13230.0 0.0018015
13250.0 0.0017992
13270.0 0.0017959
13290.0 0.0017914
13310.0 0.0017853
13330.0 0.0017782
13350.0 0.00177
13370.0 0.0017603
13390.0 0.0017491
13410.0 0.0017376
13430.0 0.001725
13450.0 0.001711
13470.0 0.0016966
13490.0 0.0016819
13510.0 0.0016656
13530.0 0.0016489
13550.0 0.0016323
13570.0 0.001615
13590.0 0.0015969
13610.0 0.001579
13630.0 0.0015614
13650.0 0.0015428
13670.0 0.0015242
13690.0 0.0015061
13710.0 0.0014878
13730.0 0.0014688
13750.0 0.001451
13770.0 0.0014336
13790.0 0.001416
13810.0 0.0013988
13830.0 0.0013828
13850.0 0.0013668
13870.0 0.0013511
13890.0 0.0013364
13910.0 0.0013224
13930.0 0.0013084
13950.0 0.001295
13970.0 0.0012828
13990.0 0.0012706
14010.0 0.0012588
14030.0 0.0012477
14050.0 0.0012372
14070.0 0.0012265
14090.0 0.0012166
14110.0 0.0012072
14130.0 0.0011981
14150.0 0.0011892
14170.0 0.0011809
14190.0 0.001173
14210.0 0.0011651
14230.0 0.0011576
14250.0 0.0011505
14270.0 0.0011434
14290.0 0.0011363
14310.0 0.0011296
14330.0 0.001123
14350.0 0.0011163
14370.0 0.0011098
14390.0 0.0011035
14410.0 0.0010971
14430.0 0.0010907
14450.0 0.0010845
14470.0 0.0010782
14490.0 0.0010718
14510.0 0.0010656
14530.0 0.0010595
14550.0 0.0010532
14570.0 0.0010469
14590.0 0.0010407
14610.0 0.0010344
14630.0 0.001028
14650.0 0.0010216
14670.0 0.0010152
14690.0 0.0010087
14710.0 0.001002
14730.0 0.00099558
14750.0 0.00098899
14770.0 0.0009822
14790.0 0.00097548
14810.0 0.00096881
14830.0 0.00096175
14850.0 0.00095471
14870.0 0.00094782
14890.0 0.00094082
14910.0 0.00093373
14930.0 0.00092694
14950.0 0.00092047
14970.0 0.00091409
14990.0 0.00090816
15010.0 0.00090281
15030.0 0.00089782
15050.0 0.0008931
15070.0 0.00088891
15090.0 0.00088497
15110.0 0.00088112
15130.0 0.0008774
15150.0 0.00087384
15170.0 0.00087024
15190.0 0.00086663
15210.0 0.00086312
15230.0 0.00085963
15250.0 0.00085608
15270.0 0.00085256
15290.0 0.00084917
15310.0 0.00084572
15330.0 0.00084226
15350.0 0.00083888
15370.0 0.00083554
15390.0 0.0008321
15410.0 0.00082874
15430.0 0.00082546
15450.0 0.00082214
15470.0 0.0008188
15490.0 0.00081558
15510.0 0.00081237
15530.0 0.00080911
15550.0 0.00080591
15570.0 0.00080278
15590.0 0.00079959
15610.0 0.0007964
15630.0 0.00079332
15650.0 0.00079026
15670.0 0.00078715
15690.0 0.0007841
15710.0 0.00078114
15730.0 0.00077812
15750.0 0.00077511
15770.0 0.00077219
15790.0 0.00076928
15810.0 0.00076629
15830.0 0.00076341
15850.0 0.0007606
15870.0 0.00075774
15890.0 0.00075489
15910.0 0.00075215
15930.0 0.00074939
15950.0 0.00074658
15970.0 0.00074386
15990.0 0.00074119
16010.0 0.00073848
16030.0 0.00073577
16050.0 0.00073319
16070.0 0.00073059
16090.0 0.00072796
16110.0 0.0007254
16130.0 0.00072291
16150.0 0.00072031
16170.0 0.00071777
16190.0 0.00071533
16210.0 0.00071287
16230.0 0.00071037
16250.0 0.00070797
16270.0 0.00070562
16290.0 0.00070319
16310.0 0.00070081
16330.0 0.00069851
16350.0 0.00069619
16370.0 0.00069379
16390.0 0.00069154
16410.0 0.00068931
16430.0 0.00068703
16450.0 0.00068479
16470.0 0.00068264
16490.0 0.00068043
16510.0 0.0006782
16530.0 0.00067607
16550.0 0.00067395
16570.0 0.00067178
16590.0 0.00066964
16610.0 0.00066761
16630.0 0.00066553
16650.0 0.00066343
16670.0 0.00066143
16690.0 0.00065943
16710.0 0.00065735
16730.0 0.00065534
16750.0 0.0006534
16770.0 0.00065141
16790.0 0.00064941
16810.0 0.00064751
16830.0 0.00064561
16850.0 0.00064365
16870.0 0.00064175
16890.0 0.00063991
16910.0 0.000638
16930.0 0.00063608
16950.0 0.00063427
16970.0 0.00063244
16990.0 0.00063057
17010.0 0.00062876
17030.0 0.00062701
17050.0 0.00062518
17070.0 0.00062336
17090.0 0.00062162
17110.0 0.00061987
17130.0 0.00061803
17150.0 0.00061629
17170.0 0.0006146
17190.0 0.00061285
17210.0 0.0006111
17230.0 0.00060945
17250.0 0.00060774
17270.0 0.00060598
17290.0 0.0006043
17310.0 0.00060266
17330.0 0.00060095
17350.0 0.00059923
17370.0 0.00059763
17390.0 0.00059598
17410.0 0.00059429
17430.0 0.00059267
17450.0 0.00059108
17470.0 0.00058938
17490.0 0.00058773
17510.0 0.00058615
17530.0 0.00058453
17550.0 0.00058287
17570.0 0.00058129
17590.0 0.00057973
17610.0 0.00057809
17630.0 0.00057648
17650.0 0.00057493
17670.0 0.00057333
17690.0 0.00057166
17710.0 0.00057012
17730.0 0.00056857
17750.0 0.00056696
17770.0 0.00056537
17790.0 0.00056387
17810.0 0.00056227
17830.0 0.00056065
17850.0 0.00055911
17870.0 0.00055757
17890.0 0.00055595
17910.0 0.00055436
17930.0 0.00055286
17950.0 0.00055129
17970.0 0.0005497
17990.0 0.00054818
18010.0 0.00054665
18030.0 0.00054501
18050.0 0.00054345
18070.0 0.00054193
18090.0 0.00054036
18110.0 0.00053875
18130.0 0.00053724
18150.0 0.0005357
18170.0 0.0005341
18190.0 0.00053254
18210.0 0.00053103
18230.0 0.00052942
18250.0 0.0005278
18270.0 0.00052628
18290.0 0.00052473
18310.0 0.00052311
18330.0 0.00052155
18350.0 0.00052004
18370.0 0.00051842
18390.0 0.00051682
18410.0 0.00051528
18430.0 0.0005137
18450.0 0.00051204
18470.0 0.00051047
18490.0 0.00050893
18510.0 0.00050731
18530.0 0.0005057
18550.0 0.00050416
18570.0 0.00050256
18590.0 0.00050089
18610.0 0.0004993
18630.0 0.00049772
18650.0 0.00049607
18670.0 0.00049442
18690.0 0.00049286
18710.0 0.00049125
18730.0 0.00048958
18750.0 0.00048797
18770.0 0.00048639
18790.0 0.00048468
18810.0 0.00048301
18830.0 0.00048142
18850.0 0.00047976
18870.0 0.00047806
18890.0 0.00047644
18910.0 0.00047483
18930.0 0.00047311
18950.0 0.00047143
18970.0 0.00046981
18990.0 0.00046812
19010.0 0.00046635
19030.0 0.00046471
19050.0 0.00046305
19070.0 0.00046132
19090.0 0.00045962
19110.0 0.00045798
19130.0 0.00045624
19150.0 0.00045448
19170.0 0.00045279
19190.0 0.00045109
19210.0 0.00044931
19230.0 0.00044756
19250.0 0.00044589
19270.0 0.00044413
19290.0 0.00044236
19310.0 0.00044065
19330.0 0.00043893
19350.0 0.00043708
19370.0 0.00043532
19390.0 0.00043359
19410.0 0.0004318
19430.0 0.00042997
19450.0 0.00042825
19470.0 0.00042648
19490.0 0.00042464
19510.0 0.00042285
19530.0 0.0004211
19550.0 0.00041924
19570.0 0.00041737
19590.0 0.00041561
19610.0 0.0004138
19630.0 0.00041192
19650.0 0.00041011
19670.0 0.00040834
19690.0 0.00040645
19710.0 0.00040457
19730.0 0.00040277
19750.0 0.00040092
19770.0 0.00039897
19790.0 0.00039713
19810.0 0.00039532
19830.0 0.00039341
19850.0 0.00039153
19870.0 0.00038973
19890.0 0.00038787
19910.0 0.000386
19930.0 0.00038429
19950.0 0.00038269
19970.0 0.00038117
19990.0 0.00037986
20010.0 0.00037883
20030.0 0.00037797
20050.0 0.00037731
20070.0 0.00037686
20090.0 0.00037655
20110.0 0.0003763
20130.0 0.00037612
20150.0 0.00037599
20170.0 0.00037584
20190.0 0.00037567
20210.0 0.0003755
20230.0 0.00037531
20250.0 0.00037506
20270.0 0.00037479
20290.0 0.0003745
20310.0 0.00037416
20330.0 0.00037377
20350.0 0.00037339
20370.0 0.00037296
20390.0 0.00037249
20410.0 0.000372
20430.0 0.00037152
20450.0 0.00037098
20470.0 0.00037042
20490.0 0.00036989
20510.0 0.00036935
20530.0 0.00036878
20550.0 0.00036824
20570.0 0.00036775
20590.0 0.00036723
20610.0 0.00036674
20630.0 0.00036628
20650.0 0.00036583
20670.0 0.00036536
20690.0 0.00036492
20710.0 0.00036448
20730.0 0.00036402
20750.0 0.00036352
20770.0 0.00036303
20790.0 0.00036248
20810.0 0.00036186
20830.0 0.00036121
20850.0 0.00036051
20870.0 0.0003597
20890.0 0.00035883
20910.0 0.00035795
20930.0 0.00035699
20950.0 0.00035595
20970.0 0.0003549
20990.0 0.00035384
21010.0 0.00035268
21030.0 0.00035152
21050.0 0.00035041
21070.0 0.00034927
21090.0 0.00034808
21110.0 0.00034698
21130.0 0.00034592
21150.0 0.00034481
21170.0 0.00034375
21190.0 0.00034274
21210.0 0.0003417
21230.0 0.00034063
21250.0 0.00033962
21270.0 0.00033862
21290.0 0.00033755
21310.0 0.00033648
21330.0 0.00033545
21350.0 0.00033434
21370.0 0.00033319
21390.0 0.00033205
21410.0 0.00033088
21430.0 0.00032959
21450.0 0.00032832
21470.0 0.00032707
21490.0 0.00032574
21510.0 0.00032435
21530.0 0.00032301
21550.0 0.00032165
21570.0 0.00032019
21590.0 0.00031877
21610.0 0.00031738
21630.0 0.00031594
21650.0 0.00031444
21670.0 0.00031307
21690.0 0.00031168
21710.0 0.00031025
21730.0 0.00030887
21750.0 0.00030755
21770.0 0.00030615
21790.0 0.00030476
21810.0 0.00030345
21830.0 0.00030213
21850.0 0.00030075
21870.0 0.00029943
21890.0 0.00029818
21910.0 0.00029686
21930.0 0.00029556
21950.0 0.00029433
21970.0 0.00029309
21990.0 0.00029181
22010.0 0.00029064
22030.0 0.00028953
22050.0 0.00028841
22070.0 0.00028734
22090.0 0.00028641
22110.0 0.00028549
22130.0 0.00028461
22150.0 0.00028384
22170.0 0.00028315
22190.0 0.00028247
22210.0 0.00028187
22230.0 0.00028138
22250.0 0.00028093
22270.0 0.0002805
22290.0 0.00028015
22310.0 0.00027985
22330.0 0.00027953
22350.0 0.00027926
22370.0 0.00027902
22390.0 0.00027878
22410.0 0.00027851
22430.0 0.00027829
22450.0 0.00027807
22470.0 0.00027782
22490.0 0.00027757
22510.0 0.00027735
22530.0 0.00027709
22550.0 0.00027681
22570.0 0.00027657
22590.0 0.00027634
22610.0 0.00027609
22630.0 0.00027586
22650.0 0.0002757
22670.0 0.00027554
22690.0 0.00027539
22710.0 0.00027532
22730.0 0.00027529
22750.0 0.00027527
22770.0 0.00027533
22790.0 0.00027548
22810.0 0.00027566
22830.0 0.00027589
22850.0 0.00027621
22870.0 0.00027659
22890.0 0.00027701
22910.0 0.0002775
22930.0 0.00027805
22950.0 0.00027865
22970.0 0.00027929
22990.0 0.00028
23010.0 0.00028075
23030.0 0.00028155
23050.0 0.00028239
23070.0 0.0002833
23090.0 0.00028424
23110.0 0.00028526
23130.0 0.00028634
23150.0 0.0002875
23170.0 0.00028873
23190.0 0.00029006
23210.0 0.00029146
23230.0 0.00029296
23250.0 0.00029457
23270.0 0.00029625
23290.0 0.00029803
23310.0 0.00029992
23330.0 0.00030187
23350.0 0.00030388
23370.0 0.00030597
23390.0 0.0003081
23410.0 0.00031025
23430.0 0.00031243
23450.0 0.00031464
23470.0 0.00031684
23490.0 0.00031903
23510.0 0.00032124
23530.0 0.00032344
23550.0 0.00032562
23570.0 0.00032781
23590.0 0.00033002
23610.0 0.00033223
23630.0 0.00033448
23650.0 0.00033678
