#lamb flux
1010.0 5.9895e-06
1030.0 6.5334e-06
1050.0 7.1593e-06
1070.0 7.864e-06
1090.0 8.6646e-06
1110.0 9.4859e-06
1130.0 1.0313e-05
1150.0 1.1179e-05
1170.0 1.2074e-05
1190.0 1.2922e-05
1210.0 1.3783e-05
1230.0 1.4672e-05
1250.0 1.5544e-05
1270.0 1.6392e-05
1290.0 1.7288e-05
1310.0 1.8184e-05
1330.0 1.9044e-05
1350.0 1.9914e-05
1370.0 2.0813e-05
1390.0 2.1691e-05
1410.0 2.2543e-05
1430.0 2.3435e-05
1450.0 2.4327e-05
1470.0 2.519e-05
1490.0 2.6064e-05
1510.0 2.6986e-05
1530.0 2.7861e-05
1550.0 2.8725e-05
1570.0 2.9619e-05
1590.0 3.0513e-05
1610.0 3.1369e-05
1630.0 3.225e-05
1650.0 3.3154e-05
1670.0 3.4028e-05
1690.0 3.489e-05
1710.0 3.5784e-05
1730.0 3.6681e-05
1750.0 3.7523e-05
1770.0 3.8387e-05
1790.0 3.9266e-05
1810.0 4.0113e-05
1830.0 4.0942e-05
1850.0 4.1818e-05
1870.0 4.2666e-05
1890.0 4.3479e-05
1910.0 4.4302e-05
1930.0 4.514e-05
1950.0 4.593e-05
1970.0 4.6702e-05
1990.0 4.7496e-05
2010.0 4.8266e-05
2030.0 4.8995e-05
2050.0 4.9738e-05
2070.0 5.049e-05
2090.0 5.118e-05
2110.0 5.1853e-05
2130.0 5.2536e-05
2150.0 5.3188e-05
2170.0 5.3787e-05
2190.0 5.4398e-05
2210.0 5.4997e-05
2230.0 5.5544e-05
2250.0 5.6067e-05
2270.0 5.6605e-05
2290.0 5.7095e-05
2310.0 5.7531e-05
2330.0 5.7968e-05
2350.0 5.8388e-05
2370.0 5.8753e-05
2390.0 5.9104e-05
2410.0 5.9473e-05
2430.0 5.9806e-05
2450.0 6.012e-05
2470.0 6.0478e-05
2490.0 6.0921e-05
2510.0 6.1467e-05
2530.0 6.2371e-05
2550.0 6.4039e-05
2570.0 6.6867e-05
2590.0 7.1321e-05
2610.0 7.8632e-05
2630.0 8.9033e-05
2650.0 0.00010187
2670.0 0.00011722
2690.0 0.00013441
2710.0 0.00015097
2730.0 0.00016575
2750.0 0.000179
2770.0 0.00018945
2790.0 0.00019707
2810.0 0.00020291
2830.0 0.00020774
2850.0 0.00021138
2870.0 0.00021462
2890.0 0.00021793
2910.0 0.00022119
2930.0 0.00022421
2950.0 0.00022745
2970.0 0.00023083
2990.0 0.00023401
3010.0 0.0018628
3030.0 0.0018888
3050.0 0.0019138
3070.0 0.0019342
3090.0 0.0019509
3110.0 0.0019586
3130.0 0.0019508
3150.0 0.0019228
3170.0 0.0018655
3190.0 0.0017787
3210.0 0.0016676
3230.0 0.0015463
3250.0 0.0016042
3270.0 0.0014935
3290.0 0.0016962
3310.0 0.0014864
3330.0 0.00151
3350.0 0.0015753
3370.0 0.0016592
3390.0 0.0017566
3410.0 0.0018565
3430.0 0.0019629
3450.0 0.0020751
3470.0 0.0021854
3490.0 0.0022845
3510.0 0.0024473
3530.0 0.0026753
3550.0 0.0027361
3570.0 0.0027074
3590.0 0.0029878
3610.0 0.0028451
3630.0 0.0032443
3650.0 0.0034761
3670.0 0.0037908
3690.0 0.0037445
3710.0 0.0033979
3730.0 0.003569
3750.0 0.0035784
3770.0 0.0038145
3790.0 0.0040621
3810.0 0.0046016
3830.0 0.006059
3850.0 0.0074749
3870.0 0.0087639
3890.0 0.0092784
3910.0 0.0092071
3930.0 0.0093902
3950.0 0.0097697
3970.0 0.0087413
3990.0 0.0054991
4010.0 0.0042025
4030.0 0.0063712
4050.0 0.0084416
4070.0 0.0077036
4090.0 0.0045476
4110.0 0.0040071
4130.0 0.0062249
4150.0 0.0070816
4170.0 0.0058618
4190.0 0.004902
4210.0 0.0068143
4230.0 0.0067459
4250.0 0.006391
4270.0 0.0063921
4290.0 0.0057544
4310.0 0.0067308
4330.0 0.0078536
4350.0 0.0086152
4370.0 0.0082546
4390.0 0.0083162
4410.0 0.0075675
4430.0 0.0058022
4450.0 0.0044342
4470.0 0.0050715
4490.0 0.0051725
4510.0 0.0073275
4530.0 0.00757
4550.0 0.0074884
4570.0 0.0089604
4590.0 0.011004
4610.0 0.014279
4630.0 0.018115
4650.0 0.018947
4670.0 0.019458
4690.0 0.020016
4710.0 0.019659
4730.0 0.016421
4750.0 0.011827
4770.0 0.0097748
4790.0 0.0081683
4810.0 0.0081635
4830.0 0.0091819
4850.0 0.0098173
4870.0 0.010348
4890.0 0.012373
4910.0 0.011725
4930.0 0.01252
4950.0 0.015253
4970.0 0.017474
4990.0 0.019911
5010.0 0.020153
5030.0 0.017737
5050.0 0.013453
5070.0 0.0097841
5090.0 0.0083614
5110.0 0.0085589
5130.0 0.0091734
5150.0 0.0086022
5170.0 0.0084508
5190.0 0.0086193
5210.0 0.008846
5230.0 0.0096666
5250.0 0.010111
5270.0 0.010324
5290.0 0.01223
5310.0 0.014499
5330.0 0.015567
5350.0 0.015294
5370.0 0.015924
5390.0 0.016854
5410.0 0.016055
5430.0 0.01506
5450.0 0.015555
5470.0 0.017872
5490.0 0.022213
5510.0 0.026632
5530.0 0.027871
5550.0 0.027375
5570.0 0.026377
5590.0 0.024988
5610.0 0.023794
5630.0 0.024117
5650.0 0.024995
5670.0 0.024152
5690.0 0.022348
5710.0 0.02193
5730.0 0.019777
5750.0 0.016629
5770.0 0.015011
5790.0 0.016497
5810.0 0.017993
5830.0 0.019973
5850.0 0.020116
5870.0 0.019597
5890.0 0.019262
5910.0 0.017832
5930.0 0.017173
5950.0 0.017744
5970.0 0.018288
5990.0 0.0161
6010.0 0.013311
6030.0 0.011106
6050.0 0.010038
6070.0 0.010131
6090.0 0.011161
6110.0 0.011822
6130.0 0.011419
6150.0 0.011413
6170.0 0.012328
6190.0 0.013892
6210.0 0.016365
6230.0 0.018749
6250.0 0.017607
6270.0 0.015363
6290.0 0.013025
6310.0 0.010518
6330.0 0.0090653
6350.0 0.0088711
6370.0 0.009626
6390.0 0.010644
6410.0 0.012594
6430.0 0.015554
6450.0 0.01873
6470.0 0.02138
6490.0 0.024109
6510.0 0.025861
6530.0 0.02502
6550.0 0.023999
6570.0 0.02417
6590.0 0.024142
6610.0 0.02342
6630.0 0.022071
6650.0 0.020234
6670.0 0.019819
6690.0 0.019359
6710.0 0.018644
6730.0 0.016247
6750.0 0.014223
6770.0 0.014366
6790.0 0.01533
6810.0 0.016903
6830.0 0.017197
6850.0 0.01598
6870.0 0.015703
6890.0 0.015438
6910.0 0.014563
6930.0 0.014361
6950.0 0.01429
6970.0 0.01437
6990.0 0.014988
7010.0 0.016073
7030.0 0.015816
7050.0 0.014401
7070.0 0.013329
7090.0 0.011567
7110.0 0.01015
7130.0 0.010386
7150.0 0.011186
7170.0 0.011731
7190.0 0.011604
7210.0 0.01138
7230.0 0.012645
7250.0 0.014057
7270.0 0.014862
7290.0 0.01504
7310.0 0.014628
7330.0 0.013603
7350.0 0.012604
7370.0 0.011836
7390.0 0.011613
7410.0 0.012555
7430.0 0.014542
7450.0 0.016123
7470.0 0.017957
7490.0 0.020768
7510.0 0.020239
7530.0 0.016835
7550.0 0.014318
7570.0 0.011924
7590.0 0.010113
7610.0 0.0098246
7630.0 0.010052
7650.0 0.010976
7670.0 0.012552
7690.0 0.013804
7710.0 0.015663
7730.0 0.016285
7750.0 0.016846
7770.0 0.018022
7790.0 0.018458
7810.0 0.018136
7830.0 0.016907
7850.0 0.016659
7870.0 0.016204
7890.0 0.015145
7910.0 0.013922
7930.0 0.012914
7950.0 0.010916
7970.0 0.010428
7990.0 0.010637
8010.0 0.012447
8030.0 0.012497
8050.0 0.013091
8070.0 0.012814
8090.0 0.012834
8110.0 0.012568
8130.0 0.011974
8150.0 0.011113
8170.0 0.011016
8190.0 0.011143
8210.0 0.011262
8230.0 0.010349
8250.0 0.0096542
8270.0 0.0085052
8290.0 0.0070712
8310.0 0.0057684
8330.0 0.0042384
8350.0 0.0032445
8370.0 0.003032
8390.0 0.0032125
8410.0 0.0036802
8430.0 0.0046659
8450.0 0.0051512
8470.0 0.0055473
8490.0 0.0062165
8510.0 0.006707
8530.0 0.0074723
8550.0 0.0088388
8570.0 0.0099723
8590.0 0.01078
8610.0 0.012321
8630.0 0.014232
8650.0 0.014888
8670.0 0.015165
8690.0 0.015257
8710.0 0.014809
8730.0 0.014206
8750.0 0.013222
8770.0 0.013056
8790.0 0.012682
8810.0 0.011714
8830.0 0.011236
8850.0 0.0098862
8870.0 0.0091622
8890.0 0.0083758
8910.0 0.0092841
8930.0 0.0086686
8950.0 0.0088087
8970.0 0.009001
8990.0 0.0088925
9010.0 0.0090282
9030.0 0.0086573
9050.0 0.0086304
9070.0 0.0086395
9090.0 0.0086482
9110.0 0.0086618
9130.0 0.0086704
9150.0 0.0086766
9170.0 0.0086676
9190.0 0.0086377
9210.0 0.0087434
9230.0 0.0087283
9250.0 0.0087257
9270.0 0.0087264
9290.0 0.0087295
9310.0 0.0087341
9330.0 0.0087396
9350.0 0.0087461
9370.0 0.0087528
9390.0 0.0087595
9410.0 0.0087665
9430.0 0.0087741
9450.0 0.0087811
9470.0 0.0087885
9490.0 0.0087962
9510.0 0.008804
9530.0 0.0088117
9550.0 0.0088201
9570.0 0.0088288
9590.0 0.0088375
9610.0 0.0088465
9630.0 0.0088561
9650.0 0.008866
9670.0 0.0088756
9690.0 0.0088861
9710.0 0.008897
9730.0 0.0089078
9750.0 0.0089191
9770.0 0.0089315
9790.0 0.0089437
9810.0 0.008956
9830.0 0.0089691
9850.0 0.0089826
9870.0 0.008996
9890.0 0.0090099
9910.0 0.0090247
9930.0 0.0090394
9950.0 0.0090469
9970.0 0.0090649
9990.0 0.0090829
10010.0 0.0090994
10030.0 0.0091166
10050.0 0.0091305
10070.0 0.0091254
10090.0 0.0091503
10110.0 0.0091747
10130.0 0.0091971
10150.0 0.0092184
10170.0 0.0092384
10190.0 0.009257
10210.0 0.0092761
10230.0 0.0092953
10250.0 0.0093137
10270.0 0.0093323
10290.0 0.0093516
10310.0 0.0093702
10330.0 0.0093883
10350.0 0.0094072
10370.0 0.0094261
10390.0 0.0094443
10410.0 0.0094626
10430.0 0.0094814
10450.0 0.0094995
10470.0 0.0095171
10490.0 0.0095351
10510.0 0.0095529
10530.0 0.0095695
10550.0 0.0095863
10570.0 0.0096034
10590.0 0.0096196
10610.0 0.0096352
10630.0 0.0096512
10650.0 0.0096666
10670.0 0.0096809
10690.0 0.0096952
10710.0 0.0097094
10730.0 0.0097227
10750.0 0.009735
10770.0 0.0097478
10790.0 0.0097598
10810.0 0.0097707
10830.0 0.0097809
10850.0 0.0097901
10870.0 0.0097957
10890.0 0.0097963
10910.0 0.0097895
10930.0 0.0097694
10950.0 0.0097269
10970.0 0.0096579
10990.0 0.0095602
11010.0 0.0097236
11030.0 0.0095252
11050.0 0.009297
11070.0 0.0090353
11090.0 0.0087334
11110.0 0.0084341
11130.0 0.0081358
11150.0 0.0078312
11170.0 0.0075369
11190.0 0.0072713
11210.0 0.007018
11230.0 0.0067809
11250.0 0.0065754
11270.0 0.0063964
11290.0 0.0062339
11310.0 0.006094
11330.0 0.0059798
11350.0 0.0058768
11370.0 0.0057824
11390.0 0.0056971
11410.0 0.0056151
11430.0 0.0055268
11450.0 0.0054349
11470.0 0.0053387
11490.0 0.0052321
11510.0 0.0051126
11530.0 0.0049895
11550.0 0.0048603
11570.0 0.0047203
11590.0 0.0045778
11610.0 0.0044383
11630.0 0.0042944
11650.0 0.0041496
11670.0 0.0040156
11690.0 0.003887
11710.0 0.0037609
11730.0 0.0036433
11750.0 0.0035368
11770.0 0.0034332
11790.0 0.0033349
11810.0 0.0032452
11830.0 0.0031601
11850.0 0.0030749
11870.0 0.0029948
11890.0 0.0029189
11910.0 0.0028418
11930.0 0.0027642
11950.0 0.0026892
11970.0 0.0026132
11990.0 0.0025338
12010.0 0.0024559
12030.0 0.0023798
12050.0 0.0023024
12070.0 0.0022253
12090.0 0.0021553
12110.0 0.0020882
12130.0 0.0020248
12150.0 0.0019694
12170.0 0.0019229
12190.0 0.0018831
12210.0 0.0018542
12230.0 0.0018369
12250.0 0.0018307
12270.0 0.0018367
12290.0 0.0018542
12310.0 0.0018815
12330.0 0.0019206
12350.0 0.001969
12370.0 0.0020228
12390.0 0.0020829
12410.0 0.0021506
12430.0 0.0022159
12450.0 0.0022799
12470.0 0.0023439
12490.0 0.0024036
12510.0 0.002455
12530.0 0.0025017
12550.0 0.0025421
12570.0 0.0025729
12590.0 0.0025954
12610.0 0.0026108
12630.0 0.0026179
12650.0 0.0026169
12670.0 0.0026094
12690.0 0.0025955
12710.0 0.0025761
12730.0 0.0025523
12750.0 0.0025232
12770.0 0.0024907
12790.0 0.002456
12810.0 0.0024181
12830.0 0.0023769
12850.0 0.0023351
12870.0 0.0022914
12890.0 0.0022441
12910.0 0.002195
12930.0 0.0021449
12950.0 0.0020905
12970.0 0.0020323
12990.0 0.0019742
13010.0 0.0019139
13030.0 0.00185
13050.0 0.0017859
13070.0 0.0017239
13090.0 0.0016602
13110.0 0.0015977
13130.0 0.0015399
13150.0 0.0014858
13170.0 0.001434
13190.0 0.0013896
13210.0 0.0013524
13230.0 0.0013205
13250.0 0.0012953
13270.0 0.0012774
13290.0 0.0012652
13310.0 0.0012586
13330.0 0.0012573
13350.0 0.0012599
13370.0 0.0012658
13390.0 0.0012741
13410.0 0.0012828
13430.0 0.0012919
13450.0 0.0013007
13470.0 0.001308
13490.0 0.0013134
13510.0 0.0013173
13530.0 0.0013191
13550.0 0.0013188
13570.0 0.001317
13590.0 0.0013139
13610.0 0.00131
13630.0 0.0013057
13650.0 0.0013012
13670.0 0.0012971
13690.0 0.0012934
13710.0 0.0012902
13730.0 0.0012876
13750.0 0.0012854
13770.0 0.0012836
13790.0 0.0012817
13810.0 0.0012796
13830.0 0.001277
13850.0 0.0012735
13870.0 0.0012688
13890.0 0.0012629
13910.0 0.0012557
13930.0 0.0012469
13950.0 0.0012368
13970.0 0.001226
13990.0 0.0012143
14010.0 0.001202
14030.0 0.00119
14050.0 0.0011784
14070.0 0.001167
14090.0 0.0011567
14110.0 0.0011478
14130.0 0.0011399
14150.0 0.0011332
14170.0 0.0011279
14190.0 0.0011237
14210.0 0.0011207
14230.0 0.0011187
14250.0 0.0011179
14270.0 0.0011183
14290.0 0.00112
14310.0 0.0011228
14330.0 0.001127
14350.0 0.0011328
14370.0 0.0011398
14390.0 0.0011477
14410.0 0.0011572
14430.0 0.0011678
14450.0 0.001179
14470.0 0.0011909
14490.0 0.0012043
14510.0 0.0012179
14530.0 0.0012319
14550.0 0.0012473
14570.0 0.0012642
14590.0 0.0012818
14610.0 0.0013016
14630.0 0.0013245
14650.0 0.0013494
14670.0 0.0013766
14690.0 0.0014079
14710.0 0.0014429
14730.0 0.0014786
14750.0 0.0015177
14770.0 0.0015601
14790.0 0.0016031
14810.0 0.0016458
14830.0 0.0016915
14850.0 0.0017356
14870.0 0.0017764
14890.0 0.0018153
14910.0 0.0018516
14930.0 0.0018823
14950.0 0.0019076
14970.0 0.0019287
14990.0 0.0019439
15010.0 0.0019536
15030.0 0.0019589
15050.0 0.0019604
15070.0 0.0019589
15090.0 0.0019556
15110.0 0.0019509
15130.0 0.0019455
15150.0 0.00194
15170.0 0.0019341
15190.0 0.0019281
15210.0 0.0019222
15230.0 0.0019165
15250.0 0.0019105
15270.0 0.0019046
15290.0 0.001899
15310.0 0.0018932
15330.0 0.0018874
15350.0 0.0018819
15370.0 0.0018764
15390.0 0.0018706
15410.0 0.001865
15430.0 0.0018595
15450.0 0.001854
15470.0 0.0018483
15490.0 0.001843
15510.0 0.0018376
15530.0 0.0018321
15550.0 0.0018267
15570.0 0.0018215
15590.0 0.0018161
15610.0 0.0018106
15630.0 0.0018054
15650.0 0.0018001
15670.0 0.0017947
15690.0 0.0017895
15710.0 0.0017844
15730.0 0.0017791
15750.0 0.0017738
15770.0 0.0017687
15790.0 0.0017636
15810.0 0.0017582
15830.0 0.001753
15850.0 0.001748
15870.0 0.0017428
15890.0 0.0017376
15910.0 0.0017326
15930.0 0.0017275
15950.0 0.0017222
15970.0 0.0017171
15990.0 0.0017121
16010.0 0.0017069
16030.0 0.0017017
16050.0 0.0016968
16070.0 0.0016917
16090.0 0.0016865
16110.0 0.0016814
16130.0 0.0016765
16150.0 0.0016712
16170.0 0.001666
16190.0 0.001661
16210.0 0.0016559
16230.0 0.0016507
16250.0 0.0016456
16270.0 0.0016406
16290.0 0.0016354
16310.0 0.0016302
16330.0 0.0016252
16350.0 0.0016201
16370.0 0.0016146
16390.0 0.0016096
16410.0 0.0016045
16430.0 0.0015992
16450.0 0.001594
16470.0 0.001589
16490.0 0.0015837
16510.0 0.0015783
16530.0 0.0015731
16550.0 0.001568
16570.0 0.0015625
16590.0 0.0015572
16610.0 0.0015521
16630.0 0.0015467
16650.0 0.0015413
16670.0 0.0015361
16690.0 0.0015308
16710.0 0.0015252
16730.0 0.0015198
16750.0 0.0015146
16770.0 0.0015091
16790.0 0.0015035
16810.0 0.0014982
16830.0 0.0014928
16850.0 0.0014872
16870.0 0.0014817
16890.0 0.0014764
16910.0 0.0014707
16930.0 0.001465
16950.0 0.0014596
16970.0 0.001454
16990.0 0.0014483
17010.0 0.0014427
17030.0 0.0014372
17050.0 0.0014315
17070.0 0.0014257
17090.0 0.0014201
17110.0 0.0014144
17130.0 0.0014085
17150.0 0.0014028
17170.0 0.0013971
17190.0 0.0013913
17210.0 0.0013854
17230.0 0.0013798
17250.0 0.0013739
17270.0 0.0013679
17290.0 0.0013621
17310.0 0.0013563
17330.0 0.0013503
17350.0 0.0013442
17370.0 0.0013385
17390.0 0.0013325
17410.0 0.0013265
17430.0 0.0013205
17450.0 0.0013147
17470.0 0.0013084
17490.0 0.0013023
17510.0 0.0012964
17530.0 0.0012903
17550.0 0.0012841
17570.0 0.0012781
17590.0 0.0012721
17610.0 0.0012659
17630.0 0.0012597
17650.0 0.0012537
17670.0 0.0012475
17690.0 0.001241
17710.0 0.001235
17730.0 0.0012289
17750.0 0.0012225
17770.0 0.0012163
17790.0 0.0012102
17810.0 0.0012039
17830.0 0.0011975
17850.0 0.0011913
17870.0 0.0011851
17890.0 0.0011786
17910.0 0.0011723
17930.0 0.0011661
17950.0 0.0011598
17970.0 0.0011534
17990.0 0.0011471
18010.0 0.0011409
18030.0 0.0011343
18050.0 0.0011279
18070.0 0.0011217
18090.0 0.0011152
18110.0 0.0011087
18130.0 0.0011025
18150.0 0.0010962
18170.0 0.0010896
18190.0 0.0010832
18210.0 0.001077
18230.0 0.0010704
18250.0 0.0010639
18270.0 0.0010576
18290.0 0.0010512
18310.0 0.0010447
18330.0 0.0010383
18350.0 0.001032
18370.0 0.0010255
18390.0 0.0010189
18410.0 0.0010126
18430.0 0.0010062
18450.0 0.00099956
18470.0 0.00099317
18490.0 0.00098688
18510.0 0.00098037
18530.0 0.00097389
18550.0 0.00096762
18570.0 0.00096119
18590.0 0.00095459
18610.0 0.00094821
18630.0 0.00094189
18650.0 0.00093537
18670.0 0.00092884
18690.0 0.00092262
18710.0 0.00091623
18730.0 0.00090972
18750.0 0.00090339
18770.0 0.00089714
18790.0 0.00089054
18810.0 0.00088411
18830.0 0.00087787
18850.0 0.00087149
18870.0 0.000865
18890.0 0.00085875
18910.0 0.00085252
18930.0 0.00084606
18950.0 0.0008397
18970.0 0.00083351
18990.0 0.00082717
19010.0 0.00082062
19030.0 0.00081446
19050.0 0.00080825
19070.0 0.00080187
19090.0 0.0007956
19110.0 0.00078953
19130.0 0.00078318
19150.0 0.00077682
19170.0 0.00077067
19190.0 0.00076451
19210.0 0.00075815
19230.0 0.00075191
19250.0 0.0007459
19270.0 0.00073968
19290.0 0.00073344
19310.0 0.0007274
19330.0 0.00072133
19350.0 0.00071499
19370.0 0.00070888
19390.0 0.00070289
19410.0 0.00069673
19430.0 0.00069054
19450.0 0.00068462
19470.0 0.00067861
19490.0 0.00067245
19510.0 0.00066645
19530.0 0.00066056
19550.0 0.00065443
19570.0 0.0006483
19590.0 0.00064246
19610.0 0.00063653
19630.0 0.00063047
19650.0 0.00062458
19670.0 0.00061881
19690.0 0.00061278
19710.0 0.00060682
19730.0 0.00060104
19750.0 0.00059519
19770.0 0.00058914
19790.0 0.00058335
19810.0 0.00057764
19830.0 0.00057174
19850.0 0.00056583
19870.0 0.00056007
19890.0 0.00055397
19910.0 0.00054743
19930.0 0.00054064
19950.0 0.0005332
19970.0 0.00052451
19990.0 0.00051462
20010.0 0.00050399
20030.0 0.00049185
20050.0 0.0004785
20070.0 0.00046496
20090.0 0.00045136
20110.0 0.00043717
20130.0 0.00042399
20150.0 0.00041204
20170.0 0.00040077
20190.0 0.00039044
20210.0 0.00038164
20230.0 0.00037391
20250.0 0.000367
20270.0 0.00036133
20290.0 0.00035677
20310.0 0.00035305
20330.0 0.00035018
20350.0 0.00034834
20370.0 0.00034725
20390.0 0.00034693
20410.0 0.00034738
20430.0 0.0003485
20450.0 0.00035045
20470.0 0.00035318
20490.0 0.00035653
20510.0 0.00036062
20530.0 0.00036561
20550.0 0.00037118
20570.0 0.00037714
20590.0 0.00038391
20610.0 0.00039119
20630.0 0.00039856
20650.0 0.00040625
20670.0 0.00041447
20690.0 0.00042231
20710.0 0.00042987
20730.0 0.00043745
20750.0 0.00044473
20770.0 0.0004513
20790.0 0.00045764
20810.0 0.00046378
20830.0 0.00046942
20850.0 0.00047471
20870.0 0.00048011
20890.0 0.00048544
20910.0 0.00049051
20930.0 0.00049581
20950.0 0.00050138
20970.0 0.00050692
20990.0 0.00051246
21010.0 0.00051837
21030.0 0.00052413
21050.0 0.00052953
21070.0 0.00053474
21090.0 0.00053968
21110.0 0.00054379
21130.0 0.00054723
21150.0 0.00055005
21170.0 0.00055202
21190.0 0.00055312
21210.0 0.00055343
21230.0 0.00055288
21250.0 0.00055152
21270.0 0.00054945
21290.0 0.0005466
21310.0 0.00054312
21330.0 0.00053923
21350.0 0.00053472
21370.0 0.00052971
21390.0 0.00052451
21410.0 0.00051907
21430.0 0.0005131
21450.0 0.00050719
21470.0 0.0005014
21490.0 0.00049548
21510.0 0.00048958
21530.0 0.00048408
21550.0 0.00047878
21570.0 0.00047361
21590.0 0.00046895
21610.0 0.00046482
21630.0 0.00046109
21650.0 0.00045787
21670.0 0.00045545
21690.0 0.00045363
21710.0 0.00045248
21730.0 0.00045207
21750.0 0.00045236
21770.0 0.00045344
21790.0 0.0004553
21810.0 0.00045779
21830.0 0.00046101
21850.0 0.00046506
21870.0 0.00046964
21890.0 0.00047463
21910.0 0.00048038
21930.0 0.00048663
21950.0 0.00049306
21970.0 0.00049993
21990.0 0.00050744
22010.0 0.0005148
22030.0 0.00052217
22050.0 0.00052984
22070.0 0.00053747
22090.0 0.00054462
22110.0 0.00055175
22130.0 0.00055875
22150.0 0.00056513
22170.0 0.00057095
22190.0 0.00057646
22210.0 0.00058123
22230.0 0.00058503
22250.0 0.00058812
22270.0 0.00059035
22290.0 0.00059155
22310.0 0.00059178
22330.0 0.00059093
22350.0 0.00058898
22370.0 0.00058601
22390.0 0.00058189
22410.0 0.0005765
22430.0 0.00057032
22450.0 0.00056322
22470.0 0.0005549
22490.0 0.0005458
22510.0 0.00053626
22530.0 0.00052562
22550.0 0.00051416
22570.0 0.00050267
22590.0 0.00049081
22610.0 0.00047824
22630.0 0.00046564
22650.0 0.00045348
22670.0 0.00044085
22690.0 0.00042819
22710.0 0.00041614
22730.0 0.00040437
22750.0 0.0003923
22770.0 0.00038111
22790.0 0.00037073
22810.0 0.00036058
22830.0 0.00035099
22850.0 0.00034248
22870.0 0.00033459
22890.0 0.00032725
22910.0 0.00032099
22930.0 0.00031575
22950.0 0.00031131
22970.0 0.00030784
22990.0 0.00030562
23010.0 0.00030437
23030.0 0.00030417
23050.0 0.00030505
23070.0 0.00030687
23090.0 0.00030985
23110.0 0.00031379
23130.0 0.00031845
23150.0 0.00032394
23170.0 0.00033033
23190.0 0.00033708
23210.0 0.00034405
23230.0 0.0003516
23250.0 0.00035926
23270.0 0.00036665
23290.0 0.00037403
23310.0 0.00038143
23330.0 0.00038802
23350.0 0.00039401
23370.0 0.00039955
23390.0 0.00040432
23410.0 0.0004081
23430.0 0.00041117
23450.0 0.0004134
23470.0 0.00041465
23490.0 0.00041503
23510.0 0.00041452
23530.0 0.00041312
23550.0 0.00041101
23570.0 0.00040812
23590.0 0.00040448
23610.0 0.00040036
23630.0 0.00039578
