#lamb flux
1010.0 4.6431e-07
1030.0 5.0394e-07
1050.0 5.4958e-07
1070.0 6.0097e-07
1090.0 6.5935e-07
1110.0 7.1927e-07
1130.0 7.7962e-07
1150.0 8.4289e-07
1170.0 9.082e-07
1190.0 9.7021e-07
1210.0 1.0331e-06
1230.0 1.0982e-06
1250.0 1.162e-06
1270.0 1.2241e-06
1290.0 1.2898e-06
1310.0 1.3555e-06
1330.0 1.4187e-06
1350.0 1.4826e-06
1370.0 1.5487e-06
1390.0 1.6133e-06
1410.0 1.6761e-06
1430.0 1.7419e-06
1450.0 1.8077e-06
1470.0 1.8715e-06
1490.0 1.936e-06
1510.0 2.0043e-06
1530.0 2.0691e-06
1550.0 2.1331e-06
1570.0 2.1994e-06
1590.0 2.2658e-06
1610.0 2.3293e-06
1630.0 2.3947e-06
1650.0 2.4618e-06
1670.0 2.5267e-06
1690.0 2.5907e-06
1710.0 2.657e-06
1730.0 2.7235e-06
1750.0 2.7859e-06
1770.0 2.8499e-06
1790.0 2.9148e-06
1810.0 2.9774e-06
1830.0 3.0384e-06
1850.0 3.1028e-06
1870.0 3.165e-06
1890.0 3.2245e-06
1910.0 3.2846e-06
1930.0 3.3456e-06
1950.0 3.4029e-06
1970.0 3.4588e-06
1990.0 3.5161e-06
2010.0 3.5715e-06
2030.0 3.6237e-06
2050.0 3.6768e-06
2070.0 3.7304e-06
2090.0 3.7794e-06
2110.0 3.8271e-06
2130.0 3.8755e-06
2150.0 3.9215e-06
2170.0 3.9637e-06
2190.0 4.0069e-06
2210.0 4.0492e-06
2230.0 4.0878e-06
2250.0 4.1248e-06
2270.0 4.1631e-06
2290.0 4.1981e-06
2310.0 4.2295e-06
2330.0 4.2612e-06
2350.0 4.292e-06
2370.0 4.319e-06
2390.0 4.3454e-06
2410.0 4.3733e-06
2430.0 4.3986e-06
2450.0 4.4225e-06
2470.0 4.4492e-06
2490.0 4.4813e-06
2510.0 4.5201e-06
2530.0 4.5839e-06
2550.0 4.7013e-06
2570.0 4.9019e-06
2590.0 5.2198e-06
2610.0 5.7448e-06
2630.0 6.4964e-06
2650.0 7.4305e-06
2670.0 8.5542e-06
2690.0 9.8223e-06
2710.0 1.1055e-05
2730.0 1.2169e-05
2750.0 1.3181e-05
2770.0 1.3998e-05
2790.0 1.4612e-05
2810.0 1.5103e-05
2830.0 1.5526e-05
2850.0 1.5864e-05
2870.0 1.6177e-05
2890.0 1.6501e-05
2910.0 1.6826e-05
2930.0 1.7136e-05
2950.0 1.7469e-05
2970.0 1.7817e-05
2990.0 1.8155e-05
3010.0 0.00012458
3030.0 0.00012698
3050.0 0.00012931
3070.0 0.0001313
3090.0 0.00013294
3110.0 0.00013375
3130.0 0.00013311
3150.0 0.00013051
3170.0 0.0001249
3190.0 0.00011626
3210.0 0.00010491
3230.0 9.2371e-05
3250.0 0.00010196
3270.0 8.9431e-05
3290.0 0.00011532
3310.0 8.8124e-05
3330.0 8.9138e-05
3350.0 9.4496e-05
3370.0 0.00010122
3390.0 0.00010889
3410.0 0.00011668
3430.0 0.00012495
3450.0 0.00013354
3470.0 0.00014178
3490.0 0.00014865
3510.0 0.00016314
3530.0 0.00018563
3550.0 0.00018706
3570.0 0.00017678
3590.0 0.00020444
3610.0 0.0001784
3630.0 0.00022044
3650.0 0.00024178
3670.0 0.00027534
3690.0 0.00026631
3710.0 0.00022219
3730.0 0.00024492
3750.0 0.00024661
3770.0 0.0002663
3790.0 0.00028042
3810.0 0.00031659
3830.0 0.00044497
3850.0 0.00055691
3870.0 0.00066283
3890.0 0.00068553
3910.0 0.00065772
3930.0 0.00066417
3950.0 0.00069487
3970.0 0.00064714
3990.0 0.00039368
4010.0 0.0002662
4030.0 0.0004388
4050.0 0.00059647
4070.0 0.00056475
4090.0 0.00033644
4110.0 0.000266
4130.0 0.0004373
4150.0 0.00049066
4170.0 0.00040981
4190.0 0.00034376
4210.0 0.00049326
4230.0 0.00045363
4250.0 0.00043744
4270.0 0.00043553
4290.0 0.00039243
4310.0 0.00047594
4330.0 0.00054885
4350.0 0.00056549
4370.0 0.00052217
4390.0 0.00054929
4410.0 0.00051656
4430.0 0.00038778
4450.0 0.0003048
4470.0 0.00036267
4490.0 0.00034308
4510.0 0.00049413
4530.0 0.00050835
4550.0 0.00051771
4570.0 0.00064603
4590.0 0.00075067
4610.0 0.00088892
4630.0 0.0011811
4650.0 0.001301
4670.0 0.001318
4690.0 0.0012633
4710.0 0.001254
4730.0 0.00111
4750.0 0.00081972
4770.0 0.00066563
4790.0 0.00052432
4810.0 0.00056394
4830.0 0.0006481
4850.0 0.00065527
4870.0 0.00058876
4890.0 0.00080501
4910.0 0.00082754
4930.0 0.0008966
4950.0 0.0010527
4970.0 0.0010877
4990.0 0.0012372
5010.0 0.0012822
5030.0 0.0011822
5050.0 0.00094608
5070.0 0.00068214
5090.0 0.00057461
5110.0 0.00058251
5130.0 0.00060932
5150.0 0.00057827
5170.0 0.00055648
5190.0 0.00058757
5210.0 0.00060423
5230.0 0.00066448
5250.0 0.00071283
5270.0 0.00068535
5290.0 0.00079216
5310.0 0.00099077
5330.0 0.0010831
5350.0 0.0010189
5370.0 0.0010259
5390.0 0.0011097
5410.0 0.0011126
5430.0 0.0010801
5450.0 0.0011231
5470.0 0.0012426
5490.0 0.0014779
5510.0 0.0017699
5530.0 0.0018442
5550.0 0.0018405
5570.0 0.0018132
5590.0 0.0017363
5610.0 0.0016438
5630.0 0.0016525
5650.0 0.0017144
5670.0 0.0016571
5690.0 0.0015015
5710.0 0.0014796
5730.0 0.0013687
5750.0 0.001221
5770.0 0.0010872
5790.0 0.001153
5810.0 0.0012332
5830.0 0.0013593
5850.0 0.0013396
5870.0 0.0013113
5890.0 0.0013475
5910.0 0.0012444
5930.0 0.0011484
5950.0 0.0011507
5970.0 0.0012013
5990.0 0.0010603
6010.0 0.00089666
6030.0 0.0007796
6050.0 0.00070555
6070.0 0.0006652
6090.0 0.00071088
6110.0 0.00078809
6130.0 0.00079167
6150.0 0.0007985
6170.0 0.00083765
6190.0 0.00090392
6210.0 0.0010388
6230.0 0.00121
6250.0 0.0011281
6270.0 0.00098825
6290.0 0.00085289
6310.0 0.00070713
6330.0 0.00062178
6350.0 0.0005967
6370.0 0.00063718
6390.0 0.00071099
6410.0 0.00085257
6430.0 0.0010473
6450.0 0.0012146
6470.0 0.0013458
6490.0 0.0015327
6510.0 0.0016707
6530.0 0.001614
6550.0 0.001544
6570.0 0.0015584
6590.0 0.0015573
6610.0 0.0015437
6630.0 0.0014523
6650.0 0.0013111
6670.0 0.0012669
6690.0 0.001242
6710.0 0.0012578
6730.0 0.0011
6750.0 0.00094432
6770.0 0.00092819
6790.0 0.0009899
6810.0 0.0011068
6830.0 0.0011217
6850.0 0.001031
6870.0 0.0010271
6890.0 0.0010134
6910.0 0.00095451
6930.0 0.00096782
6950.0 0.00094722
6970.0 0.00093431
6990.0 0.00096165
7010.0 0.0010212
7030.0 0.0010054
7050.0 0.00092411
7070.0 0.00088678
7090.0 0.00078362
7110.0 0.00067886
7130.0 0.00066862
7150.0 0.00070978
7170.0 0.00077459
7190.0 0.00077849
7210.0 0.00075597
7230.0 0.00082903
7250.0 0.00089401
7270.0 0.00092724
7290.0 0.00094807
7310.0 0.00094823
7330.0 0.00089315
7350.0 0.00082814
7370.0 0.00077129
7390.0 0.00075594
7410.0 0.00082937
7430.0 0.0009592
7450.0 0.0010533
7470.0 0.0011515
7490.0 0.0013335
7510.0 0.0013142
7530.0 0.0010989
7550.0 0.00095385
7570.0 0.00079962
7590.0 0.000699
7610.0 0.00067928
7630.0 0.00067444
7650.0 0.00073061
7670.0 0.00083091
7690.0 0.00091194
7710.0 0.0010393
7730.0 0.0010792
7750.0 0.0011171
7770.0 0.0011969
7790.0 0.0012454
7810.0 0.0012269
7830.0 0.0011276
7850.0 0.0011187
7870.0 0.0010892
7890.0 0.0010415
7910.0 0.00096506
7930.0 0.00091376
7950.0 0.00076508
7970.0 0.00073881
7990.0 0.00074228
8010.0 0.00086192
8030.0 0.00086358
8050.0 0.00091089
8070.0 0.00088673
8090.0 0.00088924
8110.0 0.00087358
8130.0 0.00084063
8150.0 0.00078068
8170.0 0.00077282
8190.0 0.00077965
8210.0 0.00078799
8230.0 0.0007116
8250.0 0.00065941
8270.0 0.00058153
8290.0 0.00048828
8310.0 0.0004094
8330.0 0.00030819
8350.0 0.00023991
8370.0 0.00022458
8390.0 0.00022961
8410.0 0.00025531
8430.0 0.00032659
8450.0 0.00035987
8470.0 0.00038866
8490.0 0.00044309
8510.0 0.0004802
8530.0 0.00053774
8550.0 0.0006364
8570.0 0.00071062
8590.0 0.00075922
8610.0 0.00086152
8630.0 0.00099305
8650.0 0.0010325
8670.0 0.0010544
8690.0 0.0010716
8710.0 0.0010445
8730.0 0.0010032
8750.0 0.00092793
8770.0 0.00092035
8790.0 0.00089815
8810.0 0.00082854
8830.0 0.00080615
8850.0 0.0007168
8870.0 0.00067093
8890.0 0.00060879
8910.0 0.00067967
8930.0 0.00062717
8950.0 0.00063586
8970.0 0.00065107
8990.0 0.00063994
9010.0 0.00065178
9030.0 0.0006219
9050.0 0.00061963
9070.0 0.00062027
9090.0 0.00062085
9110.0 0.00062185
9130.0 0.00062237
9150.0 0.00062266
9170.0 0.00062164
9190.0 0.00061881
9210.0 0.00062736
9230.0 0.0006258
9250.0 0.00062524
9270.0 0.00062495
9290.0 0.00062482
9310.0 0.0006248
9330.0 0.00062483
9350.0 0.00062492
9370.0 0.00062501
9390.0 0.00062508
9410.0 0.00062516
9430.0 0.00062526
9450.0 0.0006253
9470.0 0.00062535
9490.0 0.00062541
9510.0 0.00062546
9530.0 0.00062548
9550.0 0.00062556
9570.0 0.00062564
9590.0 0.0006257
9610.0 0.00062577
9630.0 0.00062588
9650.0 0.000626
9670.0 0.00062609
9690.0 0.00062624
9710.0 0.00062641
9730.0 0.00062656
9750.0 0.00062675
9770.0 0.00062702
9790.0 0.00062725
9810.0 0.0006275
9830.0 0.0006278
9850.0 0.00062814
9870.0 0.00062845
9890.0 0.0006288
9910.0 0.00062923
9930.0 0.00062964
9950.0 0.00062944
9970.0 0.00063012
9990.0 0.00063081
10010.0 0.00063141
10030.0 0.00063203
10050.0 0.00063241
10070.0 0.00063143
10090.0 0.0006326
10110.0 0.00063376
10130.0 0.00063477
10150.0 0.00063572
10170.0 0.00063657
10190.0 0.00063734
10210.0 0.00063815
10230.0 0.00063897
10250.0 0.00063976
10270.0 0.00064056
10290.0 0.00064142
10310.0 0.00064226
10330.0 0.00064307
10350.0 0.00064395
10370.0 0.00064483
10390.0 0.00064569
10410.0 0.00064657
10430.0 0.00064749
10450.0 0.00064838
10470.0 0.00064926
10490.0 0.00065017
10510.0 0.00065109
10530.0 0.00065195
10550.0 0.00065283
10570.0 0.00065374
10590.0 0.00065462
10610.0 0.00065547
10630.0 0.00065636
10650.0 0.00065723
10670.0 0.00065804
10690.0 0.00065887
10710.0 0.00065971
10730.0 0.0006605
10750.0 0.00066126
10770.0 0.00066205
10790.0 0.00066281
10810.0 0.00066351
10830.0 0.00066419
10850.0 0.00066481
10870.0 0.00066521
10890.0 0.0006653
10910.0 0.00066489
10930.0 0.0006636
10950.0 0.00066082
10970.0 0.00065627
10990.0 0.00064978
11010.0 0.00066396
11030.0 0.00065079
11050.0 0.00063556
11070.0 0.00061806
11090.0 0.00059785
11110.0 0.0005778
11130.0 0.00055781
11150.0 0.00053741
11170.0 0.00051771
11190.0 0.00049993
11210.0 0.00048295
11230.0 0.00046704
11250.0 0.00045321
11270.0 0.00044113
11290.0 0.00043011
11310.0 0.00042056
11330.0 0.00041271
11350.0 0.00040559
11370.0 0.00039903
11390.0 0.0003931
11410.0 0.0003874
11430.0 0.00038129
11450.0 0.00037498
11470.0 0.00036843
11490.0 0.00036123
11510.0 0.0003532
11530.0 0.00034498
11550.0 0.00033638
11570.0 0.00032708
11590.0 0.00031761
11610.0 0.00030834
11630.0 0.00029874
11650.0 0.00028906
11670.0 0.00028005
11690.0 0.00027135
11710.0 0.00026276
11730.0 0.00025468
11750.0 0.00024732
11770.0 0.0002401
11790.0 0.00023318
11810.0 0.00022684
11830.0 0.0002208
11850.0 0.00021472
11870.0 0.00020902
11890.0 0.00020363
11910.0 0.00019819
11930.0 0.00019274
11950.0 0.00018753
11970.0 0.00018229
11990.0 0.00017684
12010.0 0.00017155
12030.0 0.00016642
12050.0 0.00016121
12070.0 0.00015604
12090.0 0.00015137
12110.0 0.00014689
12130.0 0.00014264
12150.0 0.00013893
12170.0 0.00013579
12190.0 0.00013308
12210.0 0.00013108
12230.0 0.00012986
12250.0 0.00012936
12270.0 0.00012966
12290.0 0.00013075
12310.0 0.00013251
12330.0 0.00013507
12350.0 0.00013828
12370.0 0.00014189
12390.0 0.00014595
12410.0 0.00015056
12430.0 0.00015505
12450.0 0.00015948
12470.0 0.00016395
12490.0 0.00016817
12510.0 0.00017185
12530.0 0.00017525
12550.0 0.00017825
12570.0 0.00018063
12590.0 0.00018246
12610.0 0.00018384
12630.0 0.00018468
12650.0 0.00018498
12670.0 0.00018485
12690.0 0.00018431
12710.0 0.0001834
12730.0 0.00018219
12750.0 0.00018063
12770.0 0.00017884
12790.0 0.00017688
12810.0 0.0001747
12830.0 0.00017228
12850.0 0.00016979
12870.0 0.00016715
12890.0 0.00016425
12910.0 0.00016119
12930.0 0.00015805
12950.0 0.00015458
12970.0 0.00015083
12990.0 0.00014705
13010.0 0.0001431
13030.0 0.00013887
13050.0 0.00013459
13070.0 0.00013043
13090.0 0.00012612
13110.0 0.00012186
13130.0 0.0001179
13150.0 0.00011415
13170.0 0.00011054
13190.0 0.00010741
13210.0 0.00010477
13230.0 0.00010247
13250.0 0.00010062
13270.0 9.9271e-05
13290.0 9.8321e-05
13310.0 9.7748e-05
13330.0 9.7545e-05
13350.0 9.7619e-05
13370.0 9.7915e-05
13390.0 9.8372e-05
13410.0 9.8864e-05
13430.0 9.9368e-05
13450.0 9.9831e-05
13470.0 0.00010017
13490.0 0.00010038
13510.0 0.00010044
13530.0 0.00010032
13550.0 0.00010006
13570.0 9.9678e-05
13590.0 9.9182e-05
13610.0 9.8632e-05
13630.0 9.8065e-05
13650.0 9.748e-05
13670.0 9.6925e-05
13690.0 9.6431e-05
13710.0 9.5987e-05
13730.0 9.5593e-05
13750.0 9.527e-05
13770.0 9.4989e-05
13790.0 9.4727e-05
13810.0 9.4469e-05
13830.0 9.4196e-05
13850.0 9.3876e-05
13870.0 9.3486e-05
13890.0 9.3024e-05
13910.0 9.2481e-05
13930.0 9.1828e-05
13950.0 9.1089e-05
13970.0 9.0314e-05
13990.0 8.9471e-05
14010.0 8.8589e-05
14030.0 8.7734e-05
14050.0 8.6909e-05
14070.0 8.6095e-05
14090.0 8.5371e-05
14110.0 8.4741e-05
14130.0 8.4187e-05
14150.0 8.372e-05
14170.0 8.3357e-05
14190.0 8.3076e-05
14210.0 8.2875e-05
14230.0 8.2758e-05
14250.0 8.2717e-05
14270.0 8.2764e-05
14290.0 8.2907e-05
14310.0 8.3127e-05
14330.0 8.3438e-05
14350.0 8.3861e-05
14370.0 8.4367e-05
14390.0 8.4934e-05
14410.0 8.5608e-05
14430.0 8.6358e-05
14450.0 8.7134e-05
14470.0 8.7959e-05
14490.0 8.8876e-05
14510.0 8.9796e-05
14530.0 9.0727e-05
14550.0 9.175e-05
14570.0 9.2853e-05
14590.0 9.3994e-05
14610.0 9.527e-05
14630.0 9.675e-05
14650.0 9.8348e-05
14670.0 0.0001001
14690.0 0.00010211
14710.0 0.00010437
14730.0 0.00010669
14750.0 0.00010924
14770.0 0.00011202
14790.0 0.00011486
14810.0 0.0001177
14830.0 0.00012076
14850.0 0.00012375
14870.0 0.00012653
14890.0 0.00012921
14910.0 0.00013173
14930.0 0.00013389
14950.0 0.00013567
14970.0 0.00013717
14990.0 0.00013826
15010.0 0.00013894
15030.0 0.0001393
15050.0 0.00013938
15070.0 0.00013923
15090.0 0.00013894
15110.0 0.00013855
15130.0 0.0001381
15150.0 0.00013763
15170.0 0.00013715
15190.0 0.00013665
15210.0 0.00013616
15230.0 0.00013567
15250.0 0.00013518
15270.0 0.00013468
15290.0 0.00013421
15310.0 0.00013373
15330.0 0.00013324
15350.0 0.00013277
15370.0 0.00013231
15390.0 0.00013182
15410.0 0.00013135
15430.0 0.00013089
15450.0 0.00013042
15470.0 0.00012995
15490.0 0.00012949
15510.0 0.00012904
15530.0 0.00012857
15550.0 0.00012812
15570.0 0.00012768
15590.0 0.00012722
15610.0 0.00012676
15630.0 0.00012631
15650.0 0.00012587
15670.0 0.00012542
15690.0 0.00012498
15710.0 0.00012455
15730.0 0.0001241
15750.0 0.00012366
15770.0 0.00012323
15790.0 0.0001228
15810.0 0.00012235
15830.0 0.00012192
15850.0 0.0001215
15870.0 0.00012107
15890.0 0.00012063
15910.0 0.00012022
15930.0 0.00011979
15950.0 0.00011936
15970.0 0.00011894
15990.0 0.00011852
16010.0 0.0001181
16030.0 0.00011767
16050.0 0.00011726
16070.0 0.00011685
16090.0 0.00011642
16110.0 0.00011601
16130.0 0.00011561
16150.0 0.00011518
16170.0 0.00011476
16190.0 0.00011436
16210.0 0.00011395
16230.0 0.00011353
16250.0 0.00011312
16270.0 0.00011272
16290.0 0.00011231
16310.0 0.0001119
16330.0 0.0001115
16350.0 0.00011109
16370.0 0.00011067
16390.0 0.00011027
16410.0 0.00010987
16430.0 0.00010946
16450.0 0.00010905
16470.0 0.00010866
16490.0 0.00010825
16510.0 0.00010783
16530.0 0.00010743
16550.0 0.00010704
16570.0 0.00010662
16590.0 0.00010621
16610.0 0.00010582
16630.0 0.00010541
16650.0 0.000105
16670.0 0.00010461
16690.0 0.00010421
16710.0 0.00010379
16730.0 0.00010339
16750.0 0.00010299
16770.0 0.00010258
16790.0 0.00010217
16810.0 0.00010177
16830.0 0.00010137
16850.0 0.00010096
16870.0 0.00010055
16890.0 0.00010016
16910.0 9.9743e-05
16930.0 9.9325e-05
16950.0 9.8927e-05
16970.0 9.8523e-05
16990.0 9.8107e-05
17010.0 9.7701e-05
17030.0 9.7304e-05
17050.0 9.6889e-05
17070.0 9.6474e-05
17090.0 9.6072e-05
17110.0 9.5665e-05
17130.0 9.5241e-05
17150.0 9.4832e-05
17170.0 9.443e-05
17190.0 9.4015e-05
17210.0 9.3599e-05
17230.0 9.3197e-05
17250.0 9.2785e-05
17270.0 9.236e-05
17290.0 9.1949e-05
17310.0 9.1542e-05
17330.0 9.1121e-05
17350.0 9.0697e-05
17370.0 9.0294e-05
17390.0 8.988e-05
17410.0 8.9457e-05
17430.0 8.9044e-05
17450.0 8.8638e-05
17470.0 8.8206e-05
17490.0 8.7784e-05
17510.0 8.7374e-05
17530.0 8.6956e-05
17550.0 8.6528e-05
17570.0 8.6114e-05
17590.0 8.5703e-05
17610.0 8.5275e-05
17630.0 8.4852e-05
17650.0 8.444e-05
17670.0 8.4018e-05
17690.0 8.358e-05
17710.0 8.3167e-05
17730.0 8.2751e-05
17750.0 8.2322e-05
17770.0 8.1898e-05
17790.0 8.1488e-05
17810.0 8.106e-05
17830.0 8.0628e-05
17850.0 8.021e-05
17870.0 7.9791e-05
17890.0 7.9357e-05
17910.0 7.8928e-05
17930.0 7.8516e-05
17950.0 7.809e-05
17970.0 7.766e-05
17990.0 7.7243e-05
18010.0 7.6824e-05
18030.0 7.6385e-05
18050.0 7.596e-05
18070.0 7.5543e-05
18090.0 7.5115e-05
18110.0 7.4681e-05
18130.0 7.4266e-05
18150.0 7.3846e-05
18170.0 7.3413e-05
18190.0 7.2989e-05
18210.0 7.2574e-05
18230.0 7.2142e-05
18250.0 7.1707e-05
18270.0 7.1291e-05
18290.0 7.087e-05
18310.0 7.0438e-05
18330.0 7.0017e-05
18350.0 6.9604e-05
18370.0 6.9174e-05
18390.0 6.8745e-05
18410.0 6.833e-05
18430.0 6.7909e-05
18450.0 6.7473e-05
18470.0 6.7054e-05
18490.0 6.6641e-05
18510.0 6.6215e-05
18530.0 6.5791e-05
18550.0 6.5381e-05
18570.0 6.496e-05
18590.0 6.4529e-05
18610.0 6.4113e-05
18630.0 6.37e-05
18650.0 6.3275e-05
18670.0 6.285e-05
18690.0 6.2444e-05
18710.0 6.2028e-05
18730.0 6.1605e-05
18750.0 6.1193e-05
18770.0 6.0787e-05
18790.0 6.0358e-05
18810.0 5.994e-05
18830.0 5.9536e-05
18850.0 5.9122e-05
18870.0 5.8701e-05
18890.0 5.8296e-05
18910.0 5.7893e-05
18930.0 5.7474e-05
18950.0 5.7063e-05
18970.0 5.6662e-05
18990.0 5.6253e-05
19010.0 5.5829e-05
19030.0 5.5431e-05
19050.0 5.5031e-05
19070.0 5.4619e-05
19090.0 5.4214e-05
19110.0 5.3823e-05
19130.0 5.3413e-05
19150.0 5.3004e-05
19170.0 5.2608e-05
19190.0 5.2211e-05
19210.0 5.1801e-05
19230.0 5.14e-05
19250.0 5.1013e-05
19270.0 5.0613e-05
19290.0 5.0212e-05
19310.0 4.9824e-05
19330.0 4.9434e-05
19350.0 4.9027e-05
19370.0 4.8635e-05
19390.0 4.825e-05
19410.0 4.7855e-05
19430.0 4.7458e-05
19450.0 4.7078e-05
19470.0 4.6694e-05
19490.0 4.6299e-05
19510.0 4.5914e-05
19530.0 4.5537e-05
19550.0 4.5145e-05
19570.0 4.4752e-05
19590.0 4.4378e-05
19610.0 4.3999e-05
19630.0 4.3611e-05
19650.0 4.3234e-05
19670.0 4.2866e-05
19690.0 4.248e-05
19710.0 4.2099e-05
19730.0 4.173e-05
19750.0 4.1356e-05
19770.0 4.097e-05
19790.0 4.06e-05
19810.0 4.0236e-05
19830.0 3.9859e-05
19850.0 3.9482e-05
19870.0 3.9113e-05
19890.0 3.8723e-05
19910.0 3.8302e-05
19930.0 3.7863e-05
19950.0 3.7379e-05
19970.0 3.6809e-05
19990.0 3.6155e-05
20010.0 3.5448e-05
20030.0 3.4634e-05
20050.0 3.3735e-05
20070.0 3.2818e-05
20090.0 3.1893e-05
20110.0 3.0921e-05
20130.0 3.0015e-05
20150.0 2.9189e-05
20170.0 2.8403e-05
20190.0 2.7678e-05
20210.0 2.7055e-05
20230.0 2.6503e-05
20250.0 2.6003e-05
20270.0 2.5588e-05
20290.0 2.5249e-05
20310.0 2.4967e-05
20330.0 2.4745e-05
20350.0 2.4596e-05
20370.0 2.4502e-05
20390.0 2.4463e-05
20410.0 2.4482e-05
20430.0 2.4552e-05
20450.0 2.4682e-05
20470.0 2.487e-05
20490.0 2.5105e-05
20510.0 2.5395e-05
20530.0 2.5752e-05
20550.0 2.6151e-05
20570.0 2.658e-05
20590.0 2.7068e-05
20610.0 2.7592e-05
20630.0 2.8123e-05
20650.0 2.8677e-05
20670.0 2.9269e-05
20690.0 2.9831e-05
20710.0 3.0373e-05
20730.0 3.0915e-05
20750.0 3.1432e-05
20770.0 3.1896e-05
20790.0 3.2341e-05
20810.0 3.2767e-05
20830.0 3.3152e-05
20850.0 3.3508e-05
20870.0 3.3864e-05
20890.0 3.4209e-05
20910.0 3.4531e-05
20930.0 3.4862e-05
20950.0 3.5205e-05
20970.0 3.5542e-05
20990.0 3.5876e-05
21010.0 3.6229e-05
21030.0 3.6569e-05
21050.0 3.6885e-05
21070.0 3.7186e-05
21090.0 3.7467e-05
21110.0 3.7696e-05
21130.0 3.7881e-05
21150.0 3.8026e-05
21170.0 3.8116e-05
21190.0 3.8153e-05
21210.0 3.814e-05
21230.0 3.8074e-05
21250.0 3.7961e-05
21270.0 3.7806e-05
21290.0 3.7605e-05
21310.0 3.7369e-05
21330.0 3.7113e-05
21350.0 3.6823e-05
21370.0 3.6508e-05
21390.0 3.6186e-05
21410.0 3.5855e-05
21430.0 3.5497e-05
21450.0 3.5149e-05
21470.0 3.4813e-05
21490.0 3.4474e-05
21510.0 3.4141e-05
21530.0 3.3836e-05
21550.0 3.3547e-05
21570.0 3.327e-05
21590.0 3.3027e-05
21610.0 3.2817e-05
21630.0 3.2634e-05
21650.0 3.2484e-05
21670.0 3.2382e-05
21690.0 3.2318e-05
21710.0 3.2296e-05
21730.0 3.232e-05
21750.0 3.2385e-05
21770.0 3.2501e-05
21790.0 3.2665e-05
21810.0 3.2867e-05
21830.0 3.3114e-05
21850.0 3.3414e-05
21870.0 3.3747e-05
21890.0 3.4103e-05
21910.0 3.4509e-05
21930.0 3.4946e-05
21950.0 3.5392e-05
21970.0 3.5865e-05
21990.0 3.638e-05
22010.0 3.6882e-05
22030.0 3.7383e-05
22050.0 3.7901e-05
22070.0 3.8415e-05
22090.0 3.8893e-05
22110.0 3.9367e-05
22130.0 3.9829e-05
22150.0 4.0246e-05
22170.0 4.0623e-05
22190.0 4.0975e-05
22210.0 4.1274e-05
22230.0 4.1505e-05
22250.0 4.1685e-05
22270.0 4.1803e-05
22290.0 4.185e-05
22310.0 4.183e-05
22330.0 4.1734e-05
22350.0 4.1562e-05
22370.0 4.1322e-05
22390.0 4.1004e-05
22410.0 4.0599e-05
22430.0 4.0143e-05
22450.0 3.9627e-05
22470.0 3.9029e-05
22490.0 3.8381e-05
22510.0 3.7708e-05
22530.0 3.6962e-05
22550.0 3.6164e-05
22570.0 3.537e-05
22590.0 3.4554e-05
22610.0 3.3693e-05
22630.0 3.2835e-05
22650.0 3.2011e-05
22670.0 3.1159e-05
22690.0 3.0309e-05
22710.0 2.9503e-05
22730.0 2.8718e-05
