#lamb flux
1010.0 3.5929e-07
1030.0 3.9388e-07
1050.0 4.3367e-07
1070.0 4.7845e-07
1090.0 5.2932e-07
1110.0 5.815e-07
1130.0 6.3401e-07
1150.0 6.8902e-07
1170.0 7.4577e-07
1190.0 7.9957e-07
1210.0 8.541e-07
1230.0 9.1045e-07
1250.0 9.6566e-07
1270.0 1.0193e-06
1290.0 1.0759e-06
1310.0 1.1325e-06
1330.0 1.1868e-06
1350.0 1.2417e-06
1370.0 1.2984e-06
1390.0 1.3536e-06
1410.0 1.4072e-06
1430.0 1.4633e-06
1450.0 1.5193e-06
1470.0 1.5734e-06
1490.0 1.6281e-06
1510.0 1.6859e-06
1530.0 1.7407e-06
1550.0 1.7947e-06
1570.0 1.8505e-06
1590.0 1.9064e-06
1610.0 1.9597e-06
1630.0 2.0147e-06
1650.0 2.0711e-06
1670.0 2.1256e-06
1690.0 2.1794e-06
1710.0 2.2351e-06
1730.0 2.2912e-06
1750.0 2.3438e-06
1770.0 2.3978e-06
1790.0 2.4529e-06
1810.0 2.506e-06
1830.0 2.5581e-06
1850.0 2.6132e-06
1870.0 2.6667e-06
1890.0 2.7181e-06
1910.0 2.7703e-06
1930.0 2.8235e-06
1950.0 2.8739e-06
1970.0 2.9232e-06
1990.0 2.9741e-06
2010.0 3.0235e-06
2030.0 3.0705e-06
2050.0 3.1185e-06
2070.0 3.1672e-06
2090.0 3.2119e-06
2110.0 3.2557e-06
2130.0 3.3002e-06
2150.0 3.3427e-06
2170.0 3.3818e-06
2190.0 3.4218e-06
2210.0 3.4608e-06
2230.0 3.4965e-06
2250.0 3.5306e-06
2270.0 3.5655e-06
2290.0 3.5973e-06
2310.0 3.6256e-06
2330.0 3.6541e-06
2350.0 3.6823e-06
2370.0 3.7085e-06
2390.0 3.7371e-06
2410.0 3.7736e-06
2430.0 3.8176e-06
2450.0 3.8735e-06
2470.0 3.9513e-06
2490.0 4.0553e-06
2510.0 4.1761e-06
2530.0 4.3276e-06
2550.0 4.5264e-06
2570.0 4.7825e-06
2590.0 5.1239e-06
2610.0 5.6452e-06
2630.0 6.3859e-06
2650.0 7.3361e-06
2670.0 8.5387e-06
2690.0 9.9796e-06
2710.0 1.1466e-05
2730.0 1.2881e-05
2750.0 1.422e-05
2770.0 1.532e-05
2790.0 1.6122e-05
2810.0 1.6693e-05
2830.0 1.7074e-05
2850.0 1.7255e-05
2870.0 1.7325e-05
2890.0 1.733e-05
2910.0 1.729e-05
2930.0 1.7221e-05
2950.0 1.7147e-05
2970.0 1.7073e-05
2990.0 1.6995e-05
3010.0 0.00054219
3030.0 0.00053997
3050.0 0.00053779
3070.0 0.00053528
3090.0 0.00053251
3110.0 0.00052889
3130.0 0.00052378
3150.0 0.00051671
3170.0 0.00050664
3190.0 0.00049378
3210.0 0.00047896
3230.0 0.00046277
3250.0 0.00044624
3270.0 0.00043385
3290.0 0.0004244
3310.0 0.00042221
3330.0 0.00042486
3350.0 0.00043226
3370.0 0.00044432
3390.0 0.00046046
3410.0 0.00047855
3430.0 0.00049924
3450.0 0.00052338
3470.0 0.00055006
3490.0 0.00057874
3510.0 0.00061147
3530.0 0.00064727
3550.0 0.0006857
3570.0 0.00072815
3590.0 0.00077559
3610.0 0.00082851
3630.0 0.00088112
3650.0 0.00093692
3670.0 0.00098717
3690.0 0.0010245
3710.0 0.0010432
3730.0 0.001032
3750.0 0.00099156
3770.0 0.0010143
3790.0 0.00099093
3810.0 0.00076393
3830.0 0.00073387
3850.0 0.0010816
3870.0 0.0010438
3890.0 0.00078982
3910.0 0.00076777
3930.0 0.00098044
3950.0 0.0011732
3970.0 0.0013336
3990.0 0.00091735
4010.0 0.0017165
4030.0 0.0016559
4050.0 0.0017472
4070.0 0.0019813
4090.0 0.0018769
4110.0 0.0016553
4130.0 0.0020405
4150.0 0.0027358
4170.0 0.0021654
4190.0 0.0019094
4210.0 0.0021538
4230.0 0.0026723
4250.0 0.0031954
4270.0 0.0034745
4290.0 0.0030858
4310.0 0.0028495
4330.0 0.00282
4350.0 0.0036165
4370.0 0.004402
4390.0 0.0034927
4410.0 0.0019421
4430.0 0.0013712
4450.0 0.0012811
4470.0 0.00079016
4490.0 0.0014001
4510.0 0.0030196
4530.0 0.0036847
4550.0 0.0034728
4570.0 0.0031062
4590.0 0.0033231
4610.0 0.0066142
4630.0 0.0092863
4650.0 0.0087517
4670.0 0.0076867
4690.0 0.0079047
4710.0 0.0082754
4730.0 0.0067386
4750.0 0.0043345
4770.0 0.0029703
4790.0 0.0033251
4810.0 0.0035069
4830.0 0.0034763
4850.0 0.0037777
4870.0 0.0050053
4890.0 0.0057993
4910.0 0.0044831
4930.0 0.0043573
4950.0 0.0050297
4970.0 0.0067211
4990.0 0.0090692
5010.0 0.010468
5030.0 0.0083206
5050.0 0.0050516
5070.0 0.003602
5090.0 0.0027423
5110.0 0.0025573
5130.0 0.0030698
5150.0 0.0029524
5170.0 0.002768
5190.0 0.0024572
5210.0 0.0027367
5230.0 0.0034346
5250.0 0.0040237
5270.0 0.0037
5290.0 0.0039943
5310.0 0.0054036
5330.0 0.0057687
5350.0 0.005681
5370.0 0.0064179
5390.0 0.008027
5410.0 0.00682
5430.0 0.0051726
5450.0 0.0052444
5470.0 0.0061473
5490.0 0.007729
5510.0 0.0094204
5530.0 0.010927
5550.0 0.0098284
5570.0 0.0087955
5590.0 0.0072029
5610.0 0.0073528
5630.0 0.0083161
5650.0 0.0076767
5670.0 0.0070603
5690.0 0.005677
5710.0 0.0058524
5730.0 0.0057092
5750.0 0.0030364
5770.0 0.0021663
5790.0 0.0027093
5810.0 0.00286
5830.0 0.0045183
5850.0 0.0059197
5870.0 0.0063279
5890.0 0.0059956
5910.0 0.005821
5930.0 0.0056201
5950.0 0.0058122
5970.0 0.0072467
5990.0 0.0059081
6010.0 0.0045155
6030.0 0.0036681
6050.0 0.0032775
6070.0 0.0039613
6090.0 0.0044806
6110.0 0.0045434
6130.0 0.0041437
6150.0 0.0032421
6170.0 0.0025281
6190.0 0.0031299
6210.0 0.0050072
6230.0 0.0074074
6250.0 0.007944
6270.0 0.0060217
6290.0 0.0051581
6310.0 0.0039303
6330.0 0.0028563
6350.0 0.0028263
6370.0 0.0029684
6390.0 0.0035717
6410.0 0.0046236
6430.0 0.0055792
6450.0 0.0068881
6470.0 0.0072571
6490.0 0.0087084
6510.0 0.0097753
6530.0 0.0099601
6550.0 0.0091798
6570.0 0.0073999
6590.0 0.0071073
6610.0 0.0058756
6630.0 0.0061517
6650.0 0.0059678
6670.0 0.0052096
6690.0 0.0040291
6710.0 0.003947
6730.0 0.0017029
6750.0 0.0023148
6770.0 0.0036945
6790.0 0.0049359
6810.0 0.0034901
6830.0 0.0035631
6850.0 0.0029576
6870.0 0.0027873
6890.0 0.0023384
6910.0 0.0028437
6930.0 0.0026739
6950.0 0.0032354
6970.0 0.0033385
6990.0 0.0036965
7010.0 0.0035861
7030.0 0.0040994
7050.0 0.0035243
7070.0 0.0029227
7090.0 0.0031312
7110.0 0.0033007
7130.0 0.0038049
7150.0 0.0043418
7170.0 0.0048632
7190.0 0.0051467
7210.0 0.0045371
7230.0 0.0045843
7250.0 0.0049363
7270.0 0.0053285
7290.0 0.0065459
7310.0 0.006846
7330.0 0.0063354
7350.0 0.0056598
7370.0 0.0041325
7390.0 0.004315
7410.0 0.0053764
7430.0 0.0061322
7450.0 0.0065961
7470.0 0.0060303
7490.0 0.0048654
7510.0 0.0080535
7530.0 0.007245
7550.0 0.0068098
7570.0 0.0045587
7590.0 0.0019225
7610.0 0.0013177
7630.0 0.0020824
7650.0 0.0028386
7670.0 0.0046222
7690.0 0.0051733
7710.0 0.0046101
7730.0 0.0045296
7750.0 0.0060193
7770.0 0.0061815
7790.0 0.0056643
7810.0 0.0045503
7830.0 0.0049353
7850.0 0.0054504
7870.0 0.0053589
7890.0 0.004175
7910.0 0.0027525
7930.0 0.0028569
7950.0 0.0025739
7970.0 0.0021509
7990.0 0.001924
8010.0 0.0013084
8030.0 0.0012097
8050.0 0.0013033
8070.0 0.0014475
8090.0 0.0017392
8110.0 0.0016287
8130.0 0.0010009
8150.0 0.0010219
8170.0 0.00060508
8190.0 0.0003963
8210.0 0.00091286
8230.0 0.0010909
8250.0 0.00047149
8270.0 0.00037785
8290.0 0.00065479
8310.0 0.00056215
8330.0 0.00034403
8350.0 0.00027662
8370.0 7.8422e-05
8390.0 0.00029791
8410.0 0.00034894
8430.0 0.00043447
8450.0 0.00048799
8470.0 0.00079662
8490.0 0.00065245
8510.0 0.00050873
8530.0 0.00026674
8550.0 0.0008816
8570.0 0.0013672
8590.0 0.00097214
8610.0 0.0014437
8630.0 0.0015697
8650.0 0.00086993
8670.0 0.0012555
8690.0 0.0019255
8710.0 0.0016614
8730.0 0.0017853
8750.0 0.0014132
8770.0 0.0012616
8790.0 0.0013976
8810.0 0.0015082
8830.0 0.00085213
8850.0 0.00038972
8870.0 0.00028245
8890.0 0.00065886
8910.0 0.0010259
8930.0 0.0013448
8950.0 0.0015116
8970.0 0.0014603
8990.0 0.0011121
9010.0 0.00087885
9030.0 0.00067251
9050.0 0.00070116
9070.0 0.00072998
9090.0 0.0007532
9110.0 0.00078093
9130.0 0.00080099
9150.0 0.00081536
9170.0 0.00083066
9190.0 0.00084704
9210.0 0.00086422
9230.0 0.00088239
9250.0 0.00090078
9270.0 0.00091977
9290.0 0.00093926
9310.0 0.00095874
9330.0 0.00097851
9350.0 0.00099894
9370.0 0.0010195
9390.0 0.0010401
9410.0 0.0010613
9430.0 0.0010831
9450.0 0.0011046
9470.0 0.0011266
9490.0 0.0011491
9510.0 0.0011718
9530.0 0.0011946
9550.0 0.0012181
9570.0 0.001242
9590.0 0.0012658
9610.0 0.0012901
9630.0 0.0013149
9650.0 0.0013399
9670.0 0.0013649
9690.0 0.0013906
9710.0 0.0014166
9730.0 0.0014427
9750.0 0.0014691
9770.0 0.0014963
9790.0 0.0015234
9810.0 0.0015506
9830.0 0.0015784
9850.0 0.0016065
9870.0 0.0016345
9890.0 0.0016629
9910.0 0.0016919
9930.0 0.0017208
9950.0 0.0017499
9970.0 0.0017795
9990.0 0.0018094
10010.0 0.0016298
10030.0 0.0016561
10050.0 0.0016828
10070.0 0.0017092
10090.0 0.0017359
10110.0 0.0017632
10130.0 0.0017904
10150.0 0.0018174
10170.0 0.0018447
10190.0 0.0018722
10210.0 0.0018995
10230.0 0.0019267
10250.0 0.0019542
10270.0 0.0019816
10290.0 0.0020087
10310.0 0.0020361
10330.0 0.0020637
10350.0 0.0020908
10370.0 0.0021178
10390.0 0.002145
10410.0 0.002172
10430.0 0.0021985
10450.0 0.0022252
10470.0 0.0022518
10490.0 0.0022779
10510.0 0.0023038
10530.0 0.00233
10550.0 0.0023557
10570.0 0.0023809
10590.0 0.002406
10610.0 0.002431
10630.0 0.0024553
10650.0 0.0024793
10670.0 0.0025034
10690.0 0.0025269
10710.0 0.0025499
10730.0 0.0025727
10750.0 0.0025954
10770.0 0.0026171
10790.0 0.0026385
10810.0 0.0026597
10830.0 0.0026802
10850.0 0.0026996
10870.0 0.0027184
10890.0 0.0027354
10910.0 0.0027492
10930.0 0.0027589
10950.0 0.0027619
10970.0 0.0027561
10990.0 0.0027407
11010.0 0.0027802
11030.0 0.0027382
11050.0 0.0026856
11070.0 0.0026216
11090.0 0.0025441
11110.0 0.0024636
11130.0 0.0023795
11150.0 0.0022892
11170.0 0.0021964
11190.0 0.0021068
11210.0 0.0020149
11230.0 0.0019214
11250.0 0.0018325
11270.0 0.0017477
11290.0 0.0016633
11310.0 0.0015836
11330.0 0.0015135
11350.0 0.0014473
11370.0 0.0013859
11390.0 0.0013323
11410.0 0.0012848
11430.0 0.0012401
11450.0 0.0012007
11470.0 0.0011657
11490.0 0.0011325
11510.0 0.0010998
11530.0 0.0010689
11550.0 0.0010381
11570.0 0.0010053
11590.0 0.00097167
11610.0 0.0009377
11630.0 0.00090128
11650.0 0.00086284
11670.0 0.00082526
11690.0 0.00078746
11710.0 0.00074882
11730.0 0.00071151
11750.0 0.00067693
11770.0 0.00064305
11790.0 0.00061119
11810.0 0.00058284
11830.0 0.00055719
11850.0 0.00053327
11870.0 0.00051277
11890.0 0.00049521
11910.0 0.00047936
11930.0 0.00046528
11950.0 0.00045306
11970.0 0.00044181
11990.0 0.00043098
12010.0 0.00042079
12030.0 0.00041092
12050.0 0.00040082
12070.0 0.00039044
12090.0 0.0003804
12110.0 0.00037024
12130.0 0.00035999
12150.0 0.00035027
12170.0 0.00034133
12190.0 0.00033293
12210.0 0.00032585
12230.0 0.00032041
12250.0 0.00031662
12270.0 0.00031482
12290.0 0.00031513
12310.0 0.00031737
12330.0 0.00032197
12350.0 0.00032869
12370.0 0.00033695
12390.0 0.000347
12410.0 0.00035929
12430.0 0.00037194
12450.0 0.00038515
12470.0 0.00039934
12490.0 0.0004136
12510.0 0.00042682
12530.0 0.00043993
12550.0 0.00045247
12570.0 0.00046327
12590.0 0.00047248
12610.0 0.00048046
12630.0 0.00048644
12650.0 0.00048995
12670.0 0.00049166
12690.0 0.00049128
12710.0 0.00048873
12730.0 0.00048429
12750.0 0.0004778
12770.0 0.00046957
12790.0 0.00045999
12810.0 0.00044895
12830.0 0.00043652
12850.0 0.00042365
12870.0 0.00041021
12890.0 0.00039589
12910.0 0.00038145
12930.0 0.00036727
12950.0 0.00035262
12970.0 0.00033781
12990.0 0.00032378
13010.0 0.00030995
13030.0 0.00029601
13050.0 0.00028258
13070.0 0.00026994
13090.0 0.00025723
13110.0 0.00024487
13130.0 0.00023337
13150.0 0.00022238
13170.0 0.00021154
13190.0 0.00020173
13210.0 0.00019294
13230.0 0.00018474
13250.0 0.00017746
13270.0 0.00017144
13290.0 0.00016641
13310.0 0.00016246
13330.0 0.00015987
13350.0 0.00015854
13370.0 0.00015851
13390.0 0.00015988
13410.0 0.00016233
13430.0 0.00016596
13450.0 0.00017081
13470.0 0.00017645
13490.0 0.00018263
13510.0 0.00018984
13530.0 0.00019733
13550.0 0.00020464
13570.0 0.000212
13590.0 0.00021934
13610.0 0.000226
13630.0 0.00023191
13650.0 0.00023744
13670.0 0.00024213
13690.0 0.00024584
13710.0 0.00024881
13730.0 0.00025105
13750.0 0.00025227
13770.0 0.00025272
13790.0 0.00025246
13810.0 0.00025148
13830.0 0.00024988
13850.0 0.00024767
13870.0 0.00024485
13890.0 0.00024159
13910.0 0.00023792
13930.0 0.0002337
13950.0 0.00022912
13970.0 0.00022446
13990.0 0.00021942
14010.0 0.00021411
14030.0 0.00020885
14050.0 0.00020358
14070.0 0.00019807
14090.0 0.0001928
14110.0 0.00018785
14130.0 0.00018307
14150.0 0.00017856
14170.0 0.00017469
14190.0 0.00017132
14210.0 0.00016841
14230.0 0.0001662
14250.0 0.00016469
14270.0 0.00016384
14290.0 0.00016374
14310.0 0.00016436
14330.0 0.00016565
14350.0 0.00016768
14370.0 0.00017029
14390.0 0.00017335
14410.0 0.00017703
14430.0 0.00018117
14450.0 0.00018549
14470.0 0.00019008
14490.0 0.00019506
14510.0 0.00019996
14530.0 0.00020473
14550.0 0.00020963
14570.0 0.00021446
14590.0 0.000219
14610.0 0.0002235
14630.0 0.00022808
14650.0 0.00023247
14670.0 0.00023678
14690.0 0.00024132
14710.0 0.0002461
14730.0 0.00025088
14750.0 0.00025612
14770.0 0.00026197
14790.0 0.00026822
14810.0 0.00027489
14830.0 0.00028266
14850.0 0.00029098
14870.0 0.00029958
14890.0 0.00030875
14910.0 0.00031841
14930.0 0.00032767
14950.0 0.00033633
14970.0 0.00034452
14990.0 0.00035146
15010.0 0.00035689
15030.0 0.00036104
15050.0 0.00036396
15070.0 0.00036567
15090.0 0.00036662
15110.0 0.00036705
15130.0 0.00036715
15150.0 0.00036711
15170.0 0.00036695
15190.0 0.00036675
15210.0 0.00036657
15230.0 0.00036639
15250.0 0.00036618
15270.0 0.00036599
15290.0 0.00036585
15310.0 0.00036569
15330.0 0.00036552
15350.0 0.00036539
15370.0 0.00036527
15390.0 0.0003651
15410.0 0.00036497
15430.0 0.00036487
15450.0 0.00036474
15470.0 0.0003646
15490.0 0.00036451
15510.0 0.00036442
15530.0 0.00036429
15550.0 0.00036419
15570.0 0.00036411
15590.0 0.000364
15610.0 0.00036388
15630.0 0.0003638
15650.0 0.00036371
15670.0 0.0003636
15690.0 0.0003635
15710.0 0.00036344
15730.0 0.00036333
15750.0 0.00036322
15770.0 0.00036313
15790.0 0.00036304
15810.0 0.00036291
15830.0 0.0003628
15850.0 0.00036272
15870.0 0.0003626
15890.0 0.00036247
15910.0 0.00036238
15930.0 0.00036226
15950.0 0.0003621
15970.0 0.00036198
15990.0 0.00036186
16010.0 0.0003617
16030.0 0.00036153
16050.0 0.0003614
16070.0 0.00036125
16090.0 0.00036106
16110.0 0.0003609
16130.0 0.00036075
16150.0 0.00036053
16170.0 0.00036032
16190.0 0.00036014
16210.0 0.00035993
16230.0 0.00035969
16250.0 0.00035947
16270.0 0.00035926
16290.0 0.000359
16310.0 0.00035873
16330.0 0.00035849
16350.0 0.00035822
16370.0 0.0003579
16390.0 0.00035762
16410.0 0.00035734
16430.0 0.00035701
16450.0 0.00035668
16470.0 0.00035638
16490.0 0.00035602
16510.0 0.00035565
16530.0 0.00035529
16550.0 0.00035493
16570.0 0.00035452
16590.0 0.0003541
16610.0 0.00035372
16630.0 0.00035329
16650.0 0.00035284
16670.0 0.00035242
16690.0 0.00035198
16710.0 0.00035147
16730.0 0.00035098
16750.0 0.00035051
16770.0 0.00034999
16790.0 0.00034945
16810.0 0.00034894
16830.0 0.00034841
16850.0 0.00034783
16870.0 0.00034726
16890.0 0.00034671
16910.0 0.0003461
16930.0 0.00034546
16950.0 0.00034486
16970.0 0.00034424
16990.0 0.00034357
17010.0 0.00034292
17030.0 0.00034228
17050.0 0.00034158
17070.0 0.00034087
17090.0 0.00034018
17110.0 0.00033946
17130.0 0.00033869
17150.0 0.00033795
17170.0 0.00033722
17190.0 0.00033644
17210.0 0.00033564
17230.0 0.00033487
17250.0 0.00033407
17270.0 0.00033322
17290.0 0.00033239
17310.0 0.00033157
17330.0 0.00033069
17350.0 0.0003298
17370.0 0.00032896
17390.0 0.00032807
17410.0 0.00032715
17430.0 0.00032624
17450.0 0.00032535
17470.0 0.00032437
17490.0 0.00032341
17510.0 0.00032248
17530.0 0.00032151
17550.0 0.0003205
17570.0 0.00031953
17590.0 0.00031855
17610.0 0.00031751
17630.0 0.00031649
17650.0 0.00031548
17670.0 0.00031443
17690.0 0.00031333
17710.0 0.00031229
17730.0 0.00031124
17750.0 0.00031014
17770.0 0.00030905
17790.0 0.00030798
17810.0 0.00030686
17830.0 0.00030572
17850.0 0.00030461
17870.0 0.00030349
17890.0 0.00030232
17910.0 0.00030115
17930.0 0.00030003
17950.0 0.00029886
17970.0 0.00029767
17990.0 0.00029651
18010.0 0.00029534
18030.0 0.0002941
18050.0 0.00029289
18070.0 0.00029171
18090.0 0.00029048
18110.0 0.00028923
18130.0 0.00028803
18150.0 0.00028681
18170.0 0.00028554
18190.0 0.0002843
18210.0 0.00028307
18230.0 0.00028179
18250.0 0.0002805
18270.0 0.00027926
18290.0 0.00027799
18310.0 0.00027669
18330.0 0.00027541
18350.0 0.00027416
18370.0 0.00027284
18390.0 0.00027153
18410.0 0.00027025
18430.0 0.00026895
18450.0 0.00026761
18470.0 0.0002663
18490.0 0.00026502
18510.0 0.00026369
18530.0 0.00026236
18550.0 0.00026106
18570.0 0.00025974
18590.0 0.00025837
18610.0 0.00025705
18630.0 0.00025574
18650.0 0.00025438
18670.0 0.00025303
18690.0 0.00025172
18710.0 0.00025038
18730.0 0.00024902
18750.0 0.00024769
18770.0 0.00024637
18790.0 0.00024499
18810.0 0.00024363
18830.0 0.00024231
18850.0 0.00024096
18870.0 0.00023959
18890.0 0.00023826
18910.0 0.00023693
18930.0 0.00023556
18950.0 0.00023421
18970.0 0.00023289
18990.0 0.00023153
19010.0 0.00023014
19030.0 0.00022882
19050.0 0.00022749
19070.0 0.00022612
19090.0 0.00022478
19110.0 0.00022347
19130.0 0.00022211
19150.0 0.00022075
19170.0 0.00021942
19190.0 0.00021809
19210.0 0.00021673
19230.0 0.00021539
19250.0 0.00021409
19270.0 0.00021275
19290.0 0.0002114
19310.0 0.0002101
19330.0 0.00020878
19350.0 0.00020742
19370.0 0.0002061
19390.0 0.0002048
19410.0 0.00020347
19430.0 0.00020214
19450.0 0.00020085
19470.0 0.00019956
19490.0 0.00019823
19510.0 0.00019693
19530.0 0.00019565
19550.0 0.00019433
19570.0 0.00019301
19590.0 0.00019175
19610.0 0.00019046
19630.0 0.00018916
19650.0 0.00018788
19670.0 0.00018663
19690.0 0.00018534
19710.0 0.00018405
19730.0 0.0001828
19750.0 0.00018154
19770.0 0.00018024
19790.0 0.000179
19810.0 0.00017776
19830.0 0.0001765
19850.0 0.00017523
19870.0 0.00017399
19890.0 0.00017269
19910.0 0.0001713
19930.0 0.00016986
19950.0 0.00016829
19970.0 0.00016645
19990.0 0.00016434
20010.0 0.00015401
20030.0 0.00015143
20050.0 0.00014849
20070.0 0.00014538
20090.0 0.00014209
20110.0 0.00013843
20130.0 0.00013478
20150.0 0.00013119
20170.0 0.00012751
20190.0 0.00012381
20210.0 0.00012033
20230.0 0.00011695
20250.0 0.00011358
20270.0 0.00011046
20290.0 0.00010759
20310.0 0.00010487
20330.0 0.00010231
20350.0 0.00010015
20370.0 9.8207e-05
20390.0 9.6473e-05
20410.0 9.503e-05
20430.0 9.3868e-05
20450.0 9.2901e-05
20470.0 9.2185e-05
20490.0 9.1713e-05
20510.0 9.1444e-05
20530.0 9.1377e-05
20550.0 9.1495e-05
20570.0 9.1759e-05
20590.0 9.2188e-05
20610.0 9.2756e-05
20630.0 9.3412e-05
20650.0 9.4176e-05
20670.0 9.5082e-05
20690.0 9.6018e-05
20710.0 9.6995e-05
20730.0 9.806e-05
20750.0 9.9176e-05
20770.0 0.00010026
20790.0 0.0001014
20810.0 0.0001026
20830.0 0.00010377
20850.0 0.00010493
20870.0 0.00010617
20890.0 0.00010741
20910.0 0.00010858
20930.0 0.00010978
20950.0 0.00011102
20970.0 0.00011221
20990.0 0.00011338
21010.0 0.0001146
21030.0 0.00011578
21050.0 0.0001169
21070.0 0.00011801
21090.0 0.00011913
21110.0 0.00012014
21130.0 0.00012109
21150.0 0.00012201
21170.0 0.00012284
21190.0 0.00012356
21210.0 0.00012422
21230.0 0.00012477
21250.0 0.00012517
21270.0 0.00012544
21290.0 0.00012556
21310.0 0.00012551
21330.0 0.00012528
21350.0 0.00012486
21370.0 0.00012422
21390.0 0.00012339
21410.0 0.00012236
21430.0 0.00012104
21450.0 0.00011954
21470.0 0.00011788
21490.0 0.00011598
21510.0 0.00011388
21530.0 0.00011172
21550.0 0.00010944
21570.0 0.00010699
21590.0 0.00010455
21610.0 0.00010216
21630.0 9.974e-05
21650.0 9.7346e-05
21670.0 9.5227e-05
21690.0 9.3234e-05
21710.0 9.1392e-05
21730.0 8.9821e-05
21750.0 8.8536e-05
21770.0 8.7464e-05
21790.0 8.6704e-05
21810.0 8.6259e-05
21830.0 8.6099e-05
21850.0 8.6243e-05
21870.0 8.6666e-05
21890.0 8.732e-05
21910.0 8.825e-05
21930.0 8.9407e-05
21950.0 9.0709e-05
21970.0 9.2198e-05
21990.0 9.3917e-05
22010.0 9.5668e-05
22030.0 9.7477e-05
22050.0 9.9414e-05
22070.0 0.00010139
22090.0 0.00010329
22110.0 0.00010523
22130.0 0.0001072
22150.0 0.00010906
22170.0 0.00011083
22190.0 0.00011261
22210.0 0.00011429
22230.0 0.00011577
22250.0 0.00011719
22270.0 0.0001185
22290.0 0.00011962
22310.0 0.00012059
22330.0 0.00012145
22350.0 0.00012212
22370.0 0.00012259
22390.0 0.00012289
22410.0 0.000123
22430.0 0.00012289
22450.0 0.00012258
22470.0 0.00012205
22490.0 0.00012129
22510.0 0.00012035
22530.0 0.00011915
22550.0 0.0001177
22570.0 0.00011608
22590.0 0.00011426
22610.0 0.00011217
22630.0 0.00010991
22650.0 0.00010756
22670.0 0.00010497
22690.0 0.0001022
22710.0 9.9399e-05
22730.0 9.6506e-05
22750.0 9.3368e-05
22770.0 9.0292e-05
22790.0 8.728e-05
22810.0 8.4184e-05
22830.0 8.1089e-05
22850.0 7.8184e-05
22870.0 7.5332e-05
22890.0 7.2491e-05
22910.0 6.9868e-05
22930.0 6.7459e-05
22950.0 6.5161e-05
22970.0 6.3029e-05
