#lamb flux
1010.0 1.8807e-05
1030.0 2.3203e-05
1050.0 2.7915e-05
1070.0 3.2771e-05
1090.0 3.7748e-05
1110.0 4.2059e-05
1130.0 4.5455e-05
1150.0 4.7494e-05
1170.0 4.848e-05
1190.0 4.8365e-05
1210.0 5.3209e-05
1230.0 5.8278e-05
1250.0 6.3311e-05
1270.0 6.8224e-05
1290.0 7.3336e-05
1310.0 7.8355e-05
1330.0 8.3041e-05
1350.0 8.7582e-05
1370.0 9.2033e-05
1390.0 9.6101e-05
1410.0 9.975e-05
1430.0 0.0001033
1450.0 0.00010656
1470.0 0.0001094
1490.0 0.00011204
1510.0 0.00012708
1530.0 0.0001476
1550.0 0.00016856
1570.0 0.0001876
1590.0 0.00020698
1610.0 0.00022611
1630.0 0.00024531
1650.0 0.00026443
1670.0 0.00028287
1690.0 0.00030068
1710.0 0.00031823
1730.0 0.00033525
1750.0 0.0003511
1770.0 0.00036659
1790.0 0.00038166
1810.0 0.00039585
1830.0 0.00040932
1850.0 0.00042283
1870.0 0.00043558
1890.0 0.00044755
1910.0 0.00045926
1930.0 0.00047081
1950.0 0.00048151
1970.0 0.00049174
1990.0 0.00050199
2010.0 0.00051174
2030.0 0.00052083
2050.0 0.00052993
2070.0 0.00053901
2090.0 0.00054728
2110.0 0.00055529
2130.0 0.00056338
2150.0 0.0005711
2170.0 0.00057825
2190.0 0.0005856
2210.0 0.00059291
2230.0 0.00059974
2250.0 0.00060648
2270.0 0.0006136
2290.0 0.00062042
2310.0 0.00062688
2330.0 0.00063367
2350.0 0.00064058
2370.0 0.00064718
2390.0 0.00065394
2410.0 0.00066125
2430.0 0.00066853
2450.0 0.00067611
2470.0 0.00068496
2490.0 0.00069588
2510.0 0.00070906
2530.0 0.00072698
2550.0 0.00075265
2570.0 0.0007877
2590.0 0.0008343
2610.0 0.00090099
2630.0 0.00098886
2650.0 0.0010952
2670.0 0.0012251
2690.0 0.0013802
2710.0 0.0015475
2730.0 0.0017206
2750.0 0.0019048
2770.0 0.0020842
2790.0 0.0022475
2810.0 0.0023975
2830.0 0.0025343
2850.0 0.0026449
2870.0 0.0027387
2890.0 0.0028221
2910.0 0.002896
2930.0 0.0029623
2950.0 0.0030275
2970.0 0.0030926
2990.0 0.0031559
3010.0 0.0032188
3030.0 0.0032833
3050.0 0.0033475
3070.0 0.0034083
3090.0 0.0034694
3110.0 0.0035314
3130.0 0.0035956
3150.0 0.0036839
3170.0 0.0038004
3190.0 0.0039628
3210.0 0.004183
3230.0 0.0044778
3250.0 0.004825
3270.0 0.0050824
3290.0 0.0056094
3310.0 0.0069276
3330.0 0.0072079
3350.0 0.0072317
3370.0 0.007239
3390.0 0.0072461
3410.0 0.0072589
3430.0 0.0072763
3450.0 0.0072956
3470.0 0.0073121
3490.0 0.0073316
3510.0 0.0073743
3530.0 0.0072563
3550.0 0.0069593
3570.0 0.0068284
3590.0 0.0069834
3610.0 0.0074382
3630.0 0.0073661
3650.0 0.006922
3670.0 0.0063707
3690.0 0.0061303
3710.0 0.0062702
3730.0 0.0064469
3750.0 0.006529
3770.0 0.0067462
3790.0 0.0070058
3810.0 0.0068597
3830.0 0.0064462
3850.0 0.0061409
3870.0 0.006043
3890.0 0.0059801
3910.0 0.0058768
3930.0 0.0059018
3950.0 0.0061591
3970.0 0.0064647
3990.0 0.0066966
4010.0 0.0065628
4030.0 0.0063694
4050.0 0.0063216
4070.0 0.006308
4090.0 0.0063111
4110.0 0.0062414
4130.0 0.006049
4150.0 0.0058576
4170.0 0.0058186
4190.0 0.005586
4210.0 0.0052463
4230.0 0.0048627
4250.0 0.004489
4270.0 0.0042412
4290.0 0.0040418
4310.0 0.0040002
4330.0 0.0041371
4350.0 0.0042453
4370.0 0.0044333
4390.0 0.0047171
4410.0 0.0049705
4430.0 0.0049129
4450.0 0.0046104
4470.0 0.0043543
4490.0 0.0042388
4510.0 0.0042032
4530.0 0.0042333
4550.0 0.0042695
4570.0 0.0043433
4590.0 0.0044849
4610.0 0.0047332
4630.0 0.0049089
4650.0 0.0050387
4670.0 0.0049707
4690.0 0.0047348
4710.0 0.0044795
4730.0 0.0043282
4750.0 0.0042328
4770.0 0.0042984
4790.0 0.0042801
4810.0 0.0041854
4830.0 0.0042615
4850.0 0.0043212
4870.0 0.0044168
4890.0 0.0042553
4910.0 0.0040701
4930.0 0.0037904
4950.0 0.0034719
4970.0 0.0031943
4990.0 0.0029663
5010.0 0.0029158
5030.0 0.0029828
5050.0 0.0029671
5070.0 0.003034
5090.0 0.0031621
5110.0 0.0031517
5130.0 0.0031299
5150.0 0.0031219
5170.0 0.0031212
5190.0 0.0031605
5210.0 0.0030974
5230.0 0.0030266
5250.0 0.0029777
5270.0 0.0029306
5290.0 0.0028942
5310.0 0.0028534
5330.0 0.0027529
5350.0 0.0026999
5370.0 0.0026298
5390.0 0.0025476
5410.0 0.0024971
5430.0 0.0024461
5450.0 0.0024831
5470.0 0.0025074
5490.0 0.0025029
5510.0 0.0025652
5530.0 0.0025794
5550.0 0.0026141
5570.0 0.0025952
5590.0 0.0025142
5610.0 0.0024895
5630.0 0.0025155
5650.0 0.0024832
5670.0 0.0024339
5690.0 0.0023584
5710.0 0.0023778
5730.0 0.0024068
5750.0 0.002316
5770.0 0.0022171
5790.0 0.0020306
5810.0 0.0017712
5830.0 0.001944
5850.0 0.0022089
5870.0 0.0022976
5890.0 0.0023399
5910.0 0.0023734
5930.0 0.0024078
5950.0 0.0023932
5970.0 0.0023991
5990.0 0.0023911
6010.0 0.0023584
6030.0 0.0023083
6050.0 0.00231
6070.0 0.0023526
6090.0 0.0023462
6110.0 0.0022987
6130.0 0.0022631
6150.0 0.0022051
6170.0 0.0021419
6190.0 0.0021011
6210.0 0.0020567
6230.0 0.0020514
6250.0 0.0020396
6270.0 0.0020284
6290.0 0.0020333
6310.0 0.0020368
6330.0 0.0020179
6350.0 0.0019811
6370.0 0.0019636
6390.0 0.001961
6410.0 0.0019232
6430.0 0.0018979
6450.0 0.0018709
6470.0 0.0018441
6490.0 0.0018302
6510.0 0.0018255
6530.0 0.0017895
6550.0 0.0017618
6570.0 0.001752
6590.0 0.0017509
6610.0 0.0017467
6630.0 0.0016925
6650.0 0.0016555
6670.0 0.0016454
6690.0 0.0016226
6710.0 0.0015869
6730.0 0.0015752
6750.0 0.0015861
6770.0 0.0016875
6790.0 0.0019191
6810.0 0.0018031
6830.0 0.0015552
6850.0 0.0014936
6870.0 0.001462
6890.0 0.0014541
6910.0 0.0014485
6930.0 0.0014434
6950.0 0.0014228
6970.0 0.0013752
6990.0 0.0013504
7010.0 0.0013572
7030.0 0.001345
7050.0 0.0013109
7070.0 0.0012955
7090.0 0.0012996
7110.0 0.001318
7130.0 0.0013013
7150.0 0.0012868
7170.0 0.0012775
7190.0 0.0012857
7210.0 0.0012706
7230.0 0.0012558
7250.0 0.0012565
7270.0 0.0012477
7290.0 0.0012449
7310.0 0.001258
7330.0 0.0012323
7350.0 0.0011901
7370.0 0.001148
7390.0 0.0011182
7410.0 0.0011208
7430.0 0.0011161
7450.0 0.0011063
7470.0 0.001096
7490.0 0.0010696
7510.0 0.001048
7530.0 0.0010398
7550.0 0.0010822
7570.0 0.0010707
7590.0 0.00098459
7610.0 0.0009505
7630.0 0.0009986
7650.0 0.00099754
7670.0 0.0010075
7690.0 0.001054
7710.0 0.0010653
7730.0 0.0010479
7750.0 0.0011019
7770.0 0.0010423
7790.0 0.00099754
7810.0 0.0010557
7830.0 0.0010752
7850.0 0.0011038
7870.0 0.0011025
7890.0 0.0011066
7910.0 0.0010866
7930.0 0.0010934
7950.0 0.0011428
7970.0 0.0011237
7990.0 0.0010267
8010.0 0.0010313
8030.0 0.001018
8050.0 0.00099915
8070.0 0.00097462
8090.0 0.00088518
8110.0 0.00088584
8130.0 0.00096116
8150.0 0.0010022
8170.0 0.0010158
8190.0 0.0010479
8210.0 0.0010242
8230.0 0.0010125
8250.0 0.001011
8270.0 0.00099332
8290.0 0.00097327
8310.0 0.00092671
8330.0 0.00092414
8350.0 0.0009414
8370.0 0.00094783
8390.0 0.0009395
8410.0 0.00092675
8430.0 0.00090798
8450.0 0.00090381
8470.0 0.00094473
8490.0 0.0009539
8510.0 0.00091172
8530.0 0.00088241
8550.0 0.00087657
8570.0 0.0008466
8590.0 0.00083616
8610.0 0.00085093
8630.0 0.00085644
8650.0 0.00085144
8670.0 0.00084647
8690.0 0.00083499
8710.0 0.00079977
8730.0 0.00079466
8750.0 0.00077795
8770.0 0.00078023
8790.0 0.00077757
8810.0 0.00075377
8830.0 0.00075475
8850.0 0.00076491
8870.0 0.00072815
8890.0 0.00069586
8910.0 0.00067508
8930.0 0.00064886
8950.0 0.00062714
8970.0 0.000601
8990.0 0.00059059
9010.0 0.00056717
9030.0 0.00056033
9050.0 0.000557
9070.0 0.00055384
9090.0 0.00055064
9110.0 0.00054736
9130.0 0.00054408
9150.0 0.00054086
9170.0 0.0005376
9190.0 0.00053431
9210.0 0.000531
9230.0 0.00052767
9250.0 0.00052432
9270.0 0.00052096
9290.0 0.00051758
9310.0 0.00051429
9330.0 0.00051112
9350.0 0.00050793
9370.0 0.00050474
9390.0 0.00050155
9410.0 0.00049835
9430.0 0.00049515
9450.0 0.00049195
9470.0 0.00048905
9490.0 0.00048599
9510.0 0.00048263
9530.0 0.00047931
9550.0 0.00047606
9570.0 0.00047286
9590.0 0.00046966
9610.0 0.00046659
9630.0 0.00046356
9650.0 0.00046054
9670.0 0.0004575
9690.0 0.0004545
9710.0 0.00045152
9730.0 0.00044854
9750.0 0.00044557
9770.0 0.00044265
9790.0 0.00043972
9810.0 0.0004368
9830.0 0.00043391
9850.0 0.00043079
9870.0 0.0004276
9890.0 0.00042502
9910.0 0.00042238
9930.0 0.00041925
9950.0 0.00041649
9970.0 0.00041396
9990.0 0.00041136
10010.0 0.00040878
10030.0 0.00040617
10050.0 0.00040353
10070.0 0.00040093
10090.0 0.00039836
10110.0 0.00039578
10130.0 0.00039323
10150.0 0.00039073
10170.0 0.00038825
10190.0 0.00038577
10210.0 0.00038335
10230.0 0.00038097
10250.0 0.00037859
10270.0 0.00037624
10290.0 0.00037394
10310.0 0.00037165
10330.0 0.00036936
10350.0 0.00036714
10370.0 0.00036494
10390.0 0.00036274
10410.0 0.00036038
10430.0 0.000358
10450.0 0.00035614
10470.0 0.00035417
10490.0 0.00035222
10510.0 0.00035028
10530.0 0.00034828
10550.0 0.00034633
10570.0 0.00034444
10590.0 0.00034254
10610.0 0.00034065
10630.0 0.00033883
10650.0 0.00033703
10670.0 0.00033521
10690.0 0.00033345
10710.0 0.00033173
10730.0 0.00033001
10750.0 0.00032828
10770.0 0.00032665
10790.0 0.00032503
10810.0 0.0003234
10830.0 0.00032182
10850.0 0.00032029
10870.0 0.00031872
10890.0 0.00031718
10910.0 0.00031569
10930.0 0.00031421
10950.0 0.00031268
10970.0 0.00031118
10990.0 0.00030971
11010.0 0.00031294
11030.0 0.00031134
11050.0 0.00030982
11070.0 0.00030827
11090.0 0.0003066
11110.0 0.00030502
11130.0 0.00030344
11150.0 0.00030178
11170.0 0.00030007
11190.0 0.00029845
11210.0 0.00029675
11230.0 0.00029499
11250.0 0.00029331
11270.0 0.00029168
11290.0 0.00029001
11310.0 0.00028839
11330.0 0.00028697
11350.0 0.00028558
11370.0 0.00028424
11390.0 0.00028306
11410.0 0.00028198
11430.0 0.0002809
11450.0 0.00027993
11470.0 0.00027906
11490.0 0.00027819
11510.0 0.00027731
11530.0 0.00027651
11550.0 0.0002757
11570.0 0.00027483
11590.0 0.00027394
11610.0 0.00027306
11630.0 0.00027208
11650.0 0.00027102
11670.0 0.00026998
11690.0 0.0002689
11710.0 0.00026772
11730.0 0.00026652
11750.0 0.00026536
11770.0 0.00026411
11790.0 0.00026282
11810.0 0.00026159
11830.0 0.00026037
11850.0 0.00025906
11870.0 0.00025784
11890.0 0.00025672
11910.0 0.00025558
11930.0 0.00025449
11950.0 0.00025352
11970.0 0.00025261
11990.0 0.00025171
12010.0 0.00025093
12030.0 0.00025026
12050.0 0.00024963
12070.0 0.00024907
12090.0 0.00024865
12110.0 0.00024828
12130.0 0.00024795
12150.0 0.0002477
12170.0 0.00024752
12190.0 0.00024733
12210.0 0.00024715
12230.0 0.00024701
12250.0 0.00024683
12270.0 0.00024659
12290.0 0.00024631
12310.0 0.00024597
12330.0 0.00024551
12350.0 0.00024494
12370.0 0.0002443
12390.0 0.00024351
12410.0 0.00024253
12430.0 0.00024149
12450.0 0.00024035
12470.0 0.00023903
12490.0 0.0002376
12510.0 0.00023616
12530.0 0.00023457
12550.0 0.00023285
12570.0 0.00023114
12590.0 0.00022939
12610.0 0.00022752
12630.0 0.00022563
12650.0 0.00022384
12670.0 0.000222
12690.0 0.00022013
12710.0 0.00021836
12730.0 0.00021666
12750.0 0.00021489
12770.0 0.00021324
12790.0 0.00021172
12810.0 0.00021024
12830.0 0.0002088
12850.0 0.00020753
12870.0 0.00020636
12890.0 0.00020525
12910.0 0.00020425
12930.0 0.0002034
12950.0 0.00020262
12970.0 0.00020195
12990.0 0.00020143
13010.0 0.00020101
13030.0 0.00020069
13050.0 0.00020048
13070.0 0.00020036
13090.0 0.00020032
13110.0 0.00020033
13130.0 0.00020038
13150.0 0.00020045
13170.0 0.0002005
13190.0 0.00020051
13210.0 0.00020046
13230.0 0.00020033
13250.0 0.00020008
13270.0 0.00019974
13290.0 0.00019926
13310.0 0.00019862
13330.0 0.00019786
13350.0 0.00019699
13370.0 0.00019596
13390.0 0.00019477
13410.0 0.00019353
13430.0 0.00019217
13450.0 0.00019067
13470.0 0.00018911
13490.0 0.00018751
13510.0 0.00018573
13530.0 0.0001839
13550.0 0.00018209
13570.0 0.0001802
13590.0 0.00017821
13610.0 0.00017624
13630.0 0.0001743
13650.0 0.00017225
13670.0 0.0001702
13690.0 0.00016821
13710.0 0.00016619
13730.0 0.00016408
13750.0 0.0001621
13770.0 0.00016016
13790.0 0.0001582
13810.0 0.00015628
13830.0 0.00015449
13850.0 0.00015269
13870.0 0.00015091
13890.0 0.00014925
13910.0 0.00014765
13930.0 0.00014606
13950.0 0.00014453
13970.0 0.00014312
13990.0 0.00014173
14010.0 0.00014037
14030.0 0.0001391
14050.0 0.00013789
14070.0 0.00013666
14090.0 0.00013551
14110.0 0.00013444
14130.0 0.00013339
14150.0 0.00013236
14170.0 0.00013142
14190.0 0.0001305
14210.0 0.0001296
14230.0 0.00012874
14250.0 0.00012792
14270.0 0.0001271
14290.0 0.00012629
14310.0 0.00012552
14330.0 0.00012476
14350.0 0.000124
14370.0 0.00012325
14390.0 0.00012254
14410.0 0.0001218
14430.0 0.00012107
14450.0 0.00012037
14470.0 0.00011967
14490.0 0.00011894
14510.0 0.00011824
14530.0 0.00011755
14550.0 0.00011685
14570.0 0.00011614
14590.0 0.00011545
14610.0 0.00011475
14630.0 0.00011403
14650.0 0.00011332
14670.0 0.00011261
14690.0 0.00011188
14710.0 0.00011113
14730.0 0.00011042
14750.0 0.00010968
14770.0 0.00010892
14790.0 0.00010817
14810.0 0.00010743
14830.0 0.00010664
14850.0 0.00010586
14870.0 0.00010509
14890.0 0.0001043
14910.0 0.00010351
14930.0 0.00010275
14950.0 0.00010203
14970.0 0.00010131
14990.0 0.00010065
15010.0 0.00010005
15030.0 9.9491e-05
15050.0 9.8962e-05
15070.0 9.8493e-05
15090.0 9.8051e-05
15110.0 9.762e-05
15130.0 9.7203e-05
15150.0 9.6804e-05
15170.0 9.6401e-05
15190.0 9.5996e-05
15210.0 9.5602e-05
15230.0 9.5212e-05
15250.0 9.4813e-05
15270.0 9.4418e-05
15290.0 9.4037e-05
15310.0 9.365e-05
15330.0 9.3261e-05
15350.0 9.2882e-05
15370.0 9.2506e-05
15390.0 9.2119e-05
15410.0 9.1741e-05
15430.0 9.1372e-05
15450.0 9.0998e-05
15470.0 9.0621e-05
15490.0 9.0258e-05
15510.0 8.9896e-05
15530.0 8.9528e-05
15550.0 8.9166e-05
15570.0 8.8813e-05
15590.0 8.8453e-05
15610.0 8.8091e-05
15630.0 8.7744e-05
15650.0 8.7396e-05
15670.0 8.7043e-05
15690.0 8.6698e-05
15710.0 8.6362e-05
15730.0 8.6018e-05
15750.0 8.5676e-05
15770.0 8.5344e-05
15790.0 8.5013e-05
15810.0 8.4673e-05
15830.0 8.4344e-05
15850.0 8.4023e-05
15870.0 8.3697e-05
15890.0 8.3372e-05
15910.0 8.3058e-05
15930.0 8.2742e-05
15950.0 8.242e-05
15970.0 8.2109e-05
15990.0 8.1803e-05
16010.0 8.1491e-05
16030.0 8.118e-05
16050.0 8.0883e-05
16070.0 8.0583e-05
16090.0 8.028e-05
16110.0 7.9985e-05
16130.0 7.9697e-05
16150.0 7.9398e-05
16170.0 7.9105e-05
16190.0 7.8822e-05
16210.0 7.8537e-05
16230.0 7.8248e-05
16250.0 7.7969e-05
16270.0 7.7696e-05
16290.0 7.7415e-05
16310.0 7.7138e-05
16330.0 7.687e-05
16350.0 7.66e-05
16370.0 7.6322e-05
16390.0 7.6059e-05
16410.0 7.5798e-05
16430.0 7.5532e-05
16450.0 7.527e-05
16470.0 7.5019e-05
16490.0 7.476e-05
16510.0 7.4501e-05
16530.0 7.4251e-05
16550.0 7.4003e-05
16570.0 7.3748e-05
16590.0 7.3497e-05
16610.0 7.3259e-05
16630.0 7.3014e-05
16650.0 7.2769e-05
16670.0 7.2533e-05
16690.0 7.2298e-05
16710.0 7.2053e-05
16730.0 7.1818e-05
16750.0 7.1589e-05
16770.0 7.1355e-05
16790.0 7.1119e-05
16810.0 7.0896e-05
16830.0 7.0672e-05
16850.0 7.0442e-05
16870.0 7.0218e-05
16890.0 7.0001e-05
16910.0 6.9775e-05
16930.0 6.9549e-05
16950.0 6.9336e-05
16970.0 6.9121e-05
16990.0 6.89e-05
17010.0 6.8687e-05
17030.0 6.848e-05
17050.0 6.8265e-05
17070.0 6.8051e-05
17090.0 6.7846e-05
17110.0 6.7639e-05
17130.0 6.7424e-05
17150.0 6.7219e-05
17170.0 6.702e-05
17190.0 6.6814e-05
17210.0 6.6609e-05
17230.0 6.6414e-05
17250.0 6.6214e-05
17270.0 6.6008e-05
17290.0 6.5811e-05
17310.0 6.5618e-05
17330.0 6.5417e-05
17350.0 6.5217e-05
17370.0 6.5029e-05
17390.0 6.4837e-05
17410.0 6.464e-05
17430.0 6.445e-05
17450.0 6.4265e-05
17470.0 6.4066e-05
17490.0 6.3874e-05
17510.0 6.369e-05
17530.0 6.3502e-05
17550.0 6.3309e-05
17570.0 6.3126e-05
17590.0 6.2945e-05
17610.0 6.2754e-05
17630.0 6.2568e-05
17650.0 6.2389e-05
17670.0 6.2205e-05
17690.0 6.2012e-05
17710.0 6.1834e-05
17730.0 6.1656e-05
17750.0 6.1471e-05
17770.0 6.1289e-05
17790.0 6.1116e-05
17810.0 6.0932e-05
17830.0 6.0748e-05
17850.0 6.0572e-05
17870.0 6.0395e-05
17890.0 6.0211e-05
17910.0 6.003e-05
17930.0 5.9859e-05
17950.0 5.9681e-05
17970.0 5.95e-05
17990.0 5.9328e-05
18010.0 5.9154e-05
18030.0 5.897e-05
18050.0 5.8793e-05
18070.0 5.8622e-05
18090.0 5.8444e-05
18110.0 5.8263e-05
18130.0 5.8094e-05
18150.0 5.7921e-05
18170.0 5.7741e-05
18190.0 5.7567e-05
18210.0 5.7398e-05
18230.0 5.7218e-05
18250.0 5.7037e-05
18270.0 5.6868e-05
18290.0 5.6695e-05
18310.0 5.6516e-05
18330.0 5.6343e-05
18350.0 5.6175e-05
18370.0 5.5996e-05
18390.0 5.5818e-05
18410.0 5.5648e-05
18430.0 5.5475e-05
18450.0 5.5292e-05
18470.0 5.5119e-05
18490.0 5.4949e-05
18510.0 5.4772e-05
18530.0 5.4595e-05
18550.0 5.4426e-05
18570.0 5.4251e-05
18590.0 5.4068e-05
18610.0 5.3895e-05
18630.0 5.3723e-05
18650.0 5.3543e-05
18670.0 5.3363e-05
18690.0 5.3194e-05
18710.0 5.3018e-05
18730.0 5.2837e-05
18750.0 5.2663e-05
18770.0 5.2491e-05
18790.0 5.2306e-05
18810.0 5.2126e-05
18830.0 5.1953e-05
18850.0 5.1775e-05
18870.0 5.1591e-05
18890.0 5.1417e-05
18910.0 5.1243e-05
18930.0 5.1058e-05
18950.0 5.0878e-05
18970.0 5.0703e-05
18990.0 5.0522e-05
19010.0 5.0332e-05
19030.0 5.0157e-05
19050.0 4.9979e-05
19070.0 4.9794e-05
19090.0 4.9611e-05
19110.0 4.9437e-05
19130.0 4.9251e-05
19150.0 4.9063e-05
19170.0 4.8883e-05
19190.0 4.8702e-05
19210.0 4.8511e-05
19230.0 4.8325e-05
19250.0 4.8148e-05
19270.0 4.7961e-05
19290.0 4.7772e-05
19310.0 4.759e-05
19330.0 4.7407e-05
19350.0 4.7211e-05
19370.0 4.7024e-05
19390.0 4.6841e-05
19410.0 4.665e-05
19430.0 4.6457e-05
19450.0 4.6274e-05
19470.0 4.6087e-05
19490.0 4.5891e-05
19510.0 4.5702e-05
19530.0 4.5517e-05
19550.0 4.532e-05
19570.0 4.5122e-05
19590.0 4.4936e-05
19610.0 4.4744e-05
19630.0 4.4546e-05
19650.0 4.4354e-05
19670.0 4.4167e-05
19690.0 4.3967e-05
19710.0 4.3769e-05
19730.0 4.3578e-05
19750.0 4.3382e-05
19770.0 4.3177e-05
19790.0 4.2982e-05
19810.0 4.279e-05
19830.0 4.2589e-05
19850.0 4.239e-05
19870.0 4.22e-05
19890.0 4.2004e-05
19910.0 4.1806e-05
19930.0 4.1625e-05
19950.0 4.1456e-05
19970.0 4.1296e-05
19990.0 4.1158e-05
20010.0 4.1051e-05
20030.0 4.0963e-05
20050.0 4.0896e-05
20070.0 4.0852e-05
20090.0 4.0823e-05
20110.0 4.0801e-05
20130.0 4.0789e-05
20150.0 4.0781e-05
20170.0 4.0772e-05
20190.0 4.0762e-05
20210.0 4.0751e-05
20230.0 4.0739e-05
20250.0 4.0721e-05
20270.0 4.0701e-05
20290.0 4.068e-05
20310.0 4.0653e-05
20330.0 4.062e-05
20350.0 4.0588e-05
20370.0 4.0553e-05
20390.0 4.0511e-05
20410.0 4.0468e-05
20430.0 4.0425e-05
20450.0 4.0376e-05
20470.0 4.0325e-05
20490.0 4.0276e-05
20510.0 4.0226e-05
20530.0 4.0173e-05
20550.0 4.0123e-05
20570.0 4.0078e-05
20590.0 4.0031e-05
20610.0 3.9985e-05
20630.0 3.9944e-05
20650.0 3.9903e-05
20670.0 3.9859e-05
20690.0 3.9819e-05
20710.0 3.978e-05
20730.0 3.9737e-05
20750.0 3.9691e-05
20770.0 3.9645e-05
20790.0 3.9593e-05
20810.0 3.9533e-05
20830.0 3.947e-05
20850.0 3.9401e-05
20870.0 3.932e-05
20890.0 3.9231e-05
20910.0 3.9142e-05
20930.0 3.9043e-05
20950.0 3.8935e-05
20970.0 3.8826e-05
20990.0 3.8715e-05
21010.0 3.8593e-05
21030.0 3.8472e-05
21050.0 3.8354e-05
21070.0 3.8233e-05
21090.0 3.8107e-05
21110.0 3.7989e-05
21130.0 3.7875e-05
21150.0 3.7757e-05
21170.0 3.7642e-05
21190.0 3.7534e-05
21210.0 3.7421e-05
21230.0 3.7305e-05
21250.0 3.7196e-05
21270.0 3.7086e-05
21290.0 3.6969e-05
21310.0 3.6851e-05
21330.0 3.6737e-05
21350.0 3.6615e-05
21370.0 3.6487e-05
21390.0 3.636e-05
21410.0 3.623e-05
21430.0 3.6085e-05
21450.0 3.5942e-05
21470.0 3.5801e-05
21490.0 3.5651e-05
21510.0 3.5494e-05
21530.0 3.5342e-05
21550.0 3.5186e-05
21570.0 3.5021e-05
21590.0 3.4858e-05
21610.0 3.4699e-05
21630.0 3.4533e-05
21650.0 3.436e-05
21670.0 3.4202e-05
21690.0 3.404e-05
21710.0 3.3873e-05
21730.0 3.3711e-05
21750.0 3.3557e-05
21770.0 3.3391e-05
21790.0 3.3227e-05
21810.0 3.3071e-05
21830.0 3.2913e-05
21850.0 3.2749e-05
21870.0 3.2591e-05
21890.0 3.2439e-05
21910.0 3.2279e-05
21930.0 3.212e-05
21950.0 3.197e-05
21970.0 3.1819e-05
21990.0 3.1661e-05
22010.0 3.1515e-05
22030.0 3.1376e-05
22050.0 3.1235e-05
22070.0 3.11e-05
22090.0 3.0979e-05
22110.0 3.086e-05
22130.0 3.0744e-05
22150.0 3.064e-05
22170.0 3.0545e-05
22190.0 3.0451e-05
22210.0 3.0365e-05
22230.0 3.0292e-05
22250.0 3.0222e-05
22270.0 3.0155e-05
22290.0 3.0096e-05
22310.0 3.0042e-05
22330.0 2.9986e-05
22350.0 2.9934e-05
22370.0 2.9887e-05
22390.0 2.9839e-05
22410.0 2.9788e-05
22430.0 2.9742e-05
22450.0 2.9696e-05
22470.0 2.9645e-05
22490.0 2.9595e-05
22510.0 2.9548e-05
22530.0 2.9495e-05
22550.0 2.944e-05
22570.0 2.939e-05
22590.0 2.934e-05
22610.0 2.9287e-05
22630.0 2.9236e-05
22650.0 2.9192e-05
22670.0 2.9146e-05
22690.0 2.9103e-05
22710.0 2.9066e-05
22730.0 2.9033e-05
22750.0 2.9001e-05
22770.0 2.8976e-05
22790.0 2.896e-05
22810.0 2.8947e-05
22830.0 2.8939e-05
22850.0 2.8939e-05
22870.0 2.8945e-05
22890.0 2.8954e-05
22910.0 2.897e-05
22930.0 2.8991e-05
