#lamb flux
1010.0 2.2296e-06
1030.0 2.5116e-06
1050.0 2.836e-06
1070.0 3.2012e-06
1090.0 3.616e-06
1110.0 4.0414e-06
1130.0 4.4695e-06
1150.0 4.9181e-06
1170.0 5.3807e-06
1190.0 5.8194e-06
1210.0 6.264e-06
1230.0 6.7235e-06
1250.0 7.1736e-06
1270.0 7.6108e-06
1290.0 8.0728e-06
1310.0 8.5343e-06
1330.0 8.977e-06
1350.0 9.4246e-06
1370.0 9.8867e-06
1390.0 1.0337e-05
1410.0 1.0774e-05
1430.0 1.1231e-05
1450.0 1.1688e-05
1470.0 1.213e-05
1490.0 1.2576e-05
1510.0 1.3047e-05
1530.0 1.3493e-05
1550.0 1.3933e-05
1570.0 1.4389e-05
1590.0 1.4844e-05
1610.0 1.5279e-05
1630.0 1.5727e-05
1650.0 1.6186e-05
1670.0 1.663e-05
1690.0 1.7068e-05
1710.0 1.7522e-05
1730.0 1.7978e-05
1750.0 1.8405e-05
1770.0 1.8844e-05
1790.0 1.9291e-05
1810.0 1.9722e-05
1830.0 2.0144e-05
1850.0 2.059e-05
1870.0 2.1022e-05
1890.0 2.1437e-05
1910.0 2.1857e-05
1930.0 2.2285e-05
1950.0 2.2689e-05
1970.0 2.3083e-05
1990.0 2.3489e-05
2010.0 2.3882e-05
2030.0 2.4253e-05
2050.0 2.4631e-05
2070.0 2.5013e-05
2090.0 2.5361e-05
2110.0 2.57e-05
2130.0 2.6042e-05
2150.0 2.6366e-05
2170.0 2.666e-05
2190.0 2.6958e-05
2210.0 2.7246e-05
2230.0 2.7504e-05
2250.0 2.7746e-05
2270.0 2.7991e-05
2290.0 2.8208e-05
2310.0 2.8392e-05
2330.0 2.8572e-05
2350.0 2.8739e-05
2370.0 2.8875e-05
2390.0 2.9003e-05
2410.0 2.9146e-05
2430.0 2.9282e-05
2450.0 2.9424e-05
2470.0 2.9611e-05
2490.0 2.986e-05
2510.0 3.0149e-05
2530.0 3.0574e-05
2550.0 3.1274e-05
2570.0 3.2375e-05
2590.0 3.4062e-05
2610.0 3.6866e-05
2630.0 4.0937e-05
2650.0 4.6076e-05
2670.0 5.2371e-05
2690.0 5.9583e-05
2710.0 6.6625e-05
2730.0 7.2929e-05
2750.0 7.8539e-05
2770.0 8.2793e-05
2790.0 8.5591e-05
2810.0 8.7349e-05
2830.0 8.8341e-05
2850.0 8.8569e-05
2870.0 8.841e-05
2890.0 8.8072e-05
2910.0 8.7599e-05
2930.0 8.7018e-05
2950.0 8.6454e-05
2970.0 8.5909e-05
2990.0 8.5339e-05
3010.0 0.0019943
3030.0 0.001981
3050.0 0.0019678
3070.0 0.0019533
3090.0 0.0019381
3110.0 0.0019203
3130.0 0.0018975
3150.0 0.0018686
3170.0 0.0018312
3190.0 0.0017862
3210.0 0.001737
3230.0 0.001687
3250.0 0.001643
3270.0 0.0016126
3290.0 0.0015997
3310.0 0.0016071
3330.0 0.0016356
3350.0 0.001681
3370.0 0.0017441
3390.0 0.0018229
3410.0 0.0019086
3430.0 0.002005
3450.0 0.0021161
3470.0 0.0022371
3490.0 0.0023649
3510.0 0.0025083
3530.0 0.0026616
3550.0 0.0028177
3570.0 0.002983
3590.0 0.003168
3610.0 0.0033634
3630.0 0.0035674
3650.0 0.0037816
3670.0 0.0039822
3690.0 0.004138
3710.0 0.0042313
3730.0 0.0042347
3750.0 0.0041465
3770.0 0.0038832
3790.0 0.0035472
3810.0 0.0031956
3830.0 0.0028309
3850.0 0.0023669
3870.0 0.0016927
3890.0 0.0024509
3910.0 0.0038891
3930.0 0.0047518
3950.0 0.0047097
3970.0 0.0049798
3990.0 0.0055665
4010.0 0.0074069
4030.0 0.0073311
4050.0 0.006459
4070.0 0.0059801
4090.0 0.0056864
4110.0 0.0067309
4130.0 0.0072365
4150.0 0.0074429
4170.0 0.0072377
4190.0 0.0072162
4210.0 0.007243
4230.0 0.0082116
4250.0 0.0090616
4270.0 0.0093035
4290.0 0.0092688
4310.0 0.0093041
4330.0 0.010136
4350.0 0.011923
4370.0 0.013665
4390.0 0.0126
4410.0 0.009848
4430.0 0.0081434
4450.0 0.007032
4470.0 0.0066662
4490.0 0.0075859
4510.0 0.0091303
4530.0 0.010265
4550.0 0.011594
4570.0 0.013221
4590.0 0.015782
4610.0 0.02141
4630.0 0.026668
4650.0 0.026979
4670.0 0.025534
4690.0 0.027202
4710.0 0.028896
4730.0 0.024294
4750.0 0.016951
4770.0 0.013578
4790.0 0.013415
4810.0 0.012627
4830.0 0.01196
4850.0 0.013583
4870.0 0.017692
4890.0 0.020519
4910.0 0.017077
4930.0 0.015171
4950.0 0.017001
4970.0 0.022889
4990.0 0.030045
5010.0 0.032514
5030.0 0.026705
5050.0 0.016881
5070.0 0.011614
5090.0 0.010154
5110.0 0.010498
5130.0 0.011426
5150.0 0.011868
5170.0 0.011783
5190.0 0.011429
5210.0 0.011176
5230.0 0.011743
5250.0 0.012703
5270.0 0.014143
5290.0 0.016228
5310.0 0.01839
5330.0 0.018906
5350.0 0.018907
5370.0 0.020657
5390.0 0.022921
5410.0 0.021908
5430.0 0.018498
5450.0 0.017112
5470.0 0.019222
5490.0 0.02466
5510.0 0.031514
5530.0 0.035354
5550.0 0.033835
5570.0 0.030489
5590.0 0.026809
5610.0 0.025064
5630.0 0.024303
5650.0 0.024532
5670.0 0.023753
5690.0 0.021563
5710.0 0.020656
5730.0 0.019032
5750.0 0.012942
5770.0 0.011013
5790.0 0.012554
5810.0 0.015059
5830.0 0.017788
5850.0 0.020055
5870.0 0.020773
5890.0 0.020031
5910.0 0.019183
5930.0 0.019129
5950.0 0.019989
5970.0 0.021902
5990.0 0.020359
6010.0 0.016891
6030.0 0.013986
6050.0 0.012133
6070.0 0.012339
6090.0 0.013975
6110.0 0.01528
6130.0 0.014621
6150.0 0.013135
6170.0 0.013814
6190.0 0.016736
6210.0 0.021057
6230.0 0.025146
6250.0 0.02545
6270.0 0.022294
6290.0 0.018522
6310.0 0.014624
6330.0 0.011472
6350.0 0.010369
6370.0 0.011129
6390.0 0.013254
6410.0 0.015551
6430.0 0.01814
6450.0 0.021286
6470.0 0.025462
6490.0 0.031365
6510.0 0.034905
6530.0 0.03273
6550.0 0.029978
6570.0 0.028418
6590.0 0.027365
6610.0 0.024076
6630.0 0.022041
6650.0 0.020316
6670.0 0.020697
6690.0 0.019967
6710.0 0.0179
6730.0 0.015395
6750.0 0.01414
6770.0 0.014321
6790.0 0.016326
6810.0 0.015985
6830.0 0.016431
6850.0 0.015863
6870.0 0.015157
6890.0 0.01462
6910.0 0.014396
6930.0 0.01347
6950.0 0.014002
6970.0 0.014153
6990.0 0.015818
7010.0 0.01677
7030.0 0.01571
7050.0 0.014623
7070.0 0.014099
7090.0 0.013197
7110.0 0.012515
7130.0 0.012961
7150.0 0.01383
7170.0 0.014814
7190.0 0.01502
7210.0 0.014572
7230.0 0.015029
7250.0 0.017083
7270.0 0.019868
7290.0 0.021932
7310.0 0.021636
7330.0 0.019304
7350.0 0.017252
7370.0 0.015993
7390.0 0.016197
7410.0 0.017332
7430.0 0.019003
7450.0 0.020554
7470.0 0.022091
7490.0 0.023988
7510.0 0.025342
7530.0 0.023648
7550.0 0.019915
7570.0 0.015658
7590.0 0.011533
7610.0 0.010243
7630.0 0.011086
7650.0 0.012842
7670.0 0.014901
7690.0 0.016901
7710.0 0.018053
7730.0 0.018551
7750.0 0.019389
7770.0 0.019324
7790.0 0.018606
7810.0 0.018555
7830.0 0.018206
7850.0 0.01663
7870.0 0.015115
7890.0 0.013569
7910.0 0.011581
7930.0 0.010114
7950.0 0.0091692
7970.0 0.0089221
7990.0 0.0091608
8010.0 0.0096585
8030.0 0.0096796
8050.0 0.0097513
8070.0 0.0095936
8090.0 0.0098289
8110.0 0.0092725
8130.0 0.0081164
8150.0 0.0076264
8170.0 0.0070297
8190.0 0.0069586
8210.0 0.0074609
8230.0 0.0079829
8250.0 0.0073989
8270.0 0.0065963
8290.0 0.0054203
8310.0 0.0037363
8330.0 0.0024253
8350.0 0.0017668
8370.0 0.0018781
8390.0 0.0022245
8410.0 0.0028261
8430.0 0.0034538
8450.0 0.003814
8470.0 0.0042321
8490.0 0.0041609
8510.0 0.0041829
8530.0 0.0043692
8550.0 0.0052901
8570.0 0.0065176
8590.0 0.0074481
8610.0 0.0090039
8630.0 0.010438
8650.0 0.010985
8670.0 0.011168
8690.0 0.011103
8710.0 0.010384
8730.0 0.0099683
8750.0 0.0092259
8770.0 0.0088601
8790.0 0.0087913
8810.0 0.0083821
8830.0 0.0070517
8850.0 0.0058119
8870.0 0.0048473
8890.0 0.0047386
8910.0 0.0051188
8930.0 0.0054333
8950.0 0.0060985
8970.0 0.0061952
8990.0 0.0060999
9010.0 0.0058662
9030.0 0.0058046
9050.0 0.0058615
9070.0 0.0059068
9090.0 0.0059407
9110.0 0.0059712
9130.0 0.0059981
9150.0 0.0060236
9170.0 0.0060506
9190.0 0.0060791
9210.0 0.00611
9230.0 0.0061417
9250.0 0.0061755
9270.0 0.0062107
9290.0 0.0062474
9310.0 0.0062859
9330.0 0.0063259
9350.0 0.006367
9370.0 0.0064098
9390.0 0.0064543
9410.0 0.0065001
9430.0 0.0065469
9450.0 0.0065957
9470.0 0.0066458
9490.0 0.006697
9510.0 0.0067497
9530.0 0.0068041
9550.0 0.0068592
9570.0 0.0069156
9590.0 0.0069736
9610.0 0.0070328
9630.0 0.0070928
9650.0 0.0071541
9670.0 0.007217
9690.0 0.0072805
9710.0 0.0073451
9730.0 0.007411
9750.0 0.0074779
9770.0 0.007545
9790.0 0.0076136
9810.0 0.0076833
9830.0 0.0077534
9850.0 0.0078242
9870.0 0.0078962
9890.0 0.0079688
9910.0 0.0080415
9930.0 0.0081152
9950.0 0.0081896
9970.0 0.008264
9990.0 0.0083387
10010.0 0.0080302
10030.0 0.0081008
10050.0 0.0081712
10070.0 0.0082415
10090.0 0.0083132
10110.0 0.0083842
10130.0 0.0084552
10150.0 0.0085266
10170.0 0.0085976
10190.0 0.0086678
10210.0 0.0087384
10230.0 0.0088089
10250.0 0.0088783
10270.0 0.0089475
10290.0 0.0090167
10310.0 0.0090848
10330.0 0.0091517
10350.0 0.0092187
10370.0 0.009285
10390.0 0.0093499
10410.0 0.009414
10430.0 0.0094779
10450.0 0.0095402
10470.0 0.009601
10490.0 0.0096614
10510.0 0.0097206
10530.0 0.0097776
10550.0 0.0098337
10570.0 0.0098891
10590.0 0.0099425
10610.0 0.0099941
10630.0 0.010045
10650.0 0.010094
10670.0 0.010141
10690.0 0.010186
10710.0 0.010231
10730.0 0.010272
10750.0 0.010312
10770.0 0.010351
10790.0 0.010387
10810.0 0.010421
10830.0 0.010453
10850.0 0.010483
10870.0 0.010508
10890.0 0.010527
10910.0 0.010537
10930.0 0.010533
10950.0 0.010507
10970.0 0.010453
10990.0 0.010371
11010.0 0.010072
11030.0 0.0099101
11050.0 0.009718
11070.0 0.0094902
11090.0 0.0092167
11110.0 0.0089346
11130.0 0.0086403
11150.0 0.0083236
11170.0 0.0079988
11190.0 0.007687
11210.0 0.0073687
11230.0 0.0070476
11250.0 0.0067472
11270.0 0.0064648
11290.0 0.0061882
11310.0 0.0059326
11330.0 0.0057127
11350.0 0.0055087
11370.0 0.0053231
11390.0 0.0051638
11410.0 0.0050241
11430.0 0.0048921
11450.0 0.0047744
11470.0 0.0046675
11490.0 0.0045617
11510.0 0.0044526
11530.0 0.0043451
11550.0 0.0042333
11570.0 0.0041105
11590.0 0.0039816
11610.0 0.0038503
11630.0 0.0037085
11650.0 0.003559
11670.0 0.0034142
11690.0 0.0032701
11710.0 0.0031245
11730.0 0.0029862
11750.0 0.0028603
11770.0 0.002739
11790.0 0.0026269
11810.0 0.0025291
11830.0 0.002442
11850.0 0.0023618
11870.0 0.0022937
11890.0 0.0022355
11910.0 0.0021822
11930.0 0.0021335
11950.0 0.0020896
11970.0 0.002047
11990.0 0.0020033
12010.0 0.0019598
12030.0 0.0019156
12050.0 0.0018685
12070.0 0.0018187
12090.0 0.0017703
12110.0 0.0017209
12130.0 0.0016711
12150.0 0.0016242
12170.0 0.0015817
12190.0 0.0015421
12210.0 0.0015092
12230.0 0.0014846
12250.0 0.001468
12270.0 0.0014605
12290.0 0.0014627
12310.0 0.0014735
12330.0 0.0014943
12350.0 0.0015239
12370.0 0.0015598
12390.0 0.0016026
12410.0 0.0016539
12430.0 0.0017058
12450.0 0.001759
12470.0 0.001815
12490.0 0.00187
12510.0 0.0019198
12530.0 0.0019677
12550.0 0.002012
12570.0 0.0020485
12590.0 0.0020781
12610.0 0.0021018
12630.0 0.0021174
12650.0 0.0021241
12670.0 0.0021238
12690.0 0.0021163
12710.0 0.0021017
12730.0 0.0020812
12750.0 0.0020542
12770.0 0.0020224
12790.0 0.001987
12810.0 0.0019474
12830.0 0.0019037
12850.0 0.0018591
12870.0 0.0018128
12890.0 0.0017633
12910.0 0.001713
12930.0 0.0016629
12950.0 0.0016103
12970.0 0.001556
12990.0 0.0015034
13010.0 0.0014504
13030.0 0.0013958
13050.0 0.0013422
13070.0 0.001291
13090.0 0.0012388
13110.0 0.0011878
13130.0 0.0011401
13150.0 0.0010947
13170.0 0.0010504
13190.0 0.001011
13210.0 0.00097658
13230.0 0.00094556
13250.0 0.00091935
13270.0 0.00089906
13290.0 0.00088376
13310.0 0.00087378
13330.0 0.00086964
13350.0 0.00087068
13370.0 0.00087702
13390.0 0.00088858
13410.0 0.0009033
13430.0 0.00092176
13450.0 0.0009438
13470.0 0.00096735
13490.0 0.00099143
13510.0 0.0010179
13530.0 0.0010438
13550.0 0.0010678
13570.0 0.0010908
13590.0 0.0011126
13610.0 0.0011312
13630.0 0.0011467
13650.0 0.0011603
13670.0 0.0011706
13690.0 0.0011777
13710.0 0.0011821
13730.0 0.0011839
13750.0 0.0011826
13770.0 0.0011791
13790.0 0.0011732
13810.0 0.0011653
13830.0 0.0011558
13850.0 0.0011445
13870.0 0.0011315
13890.0 0.0011174
13910.0 0.0011024
13930.0 0.0010858
13950.0 0.0010683
13970.0 0.0010509
13990.0 0.0010326
14010.0 0.0010136
14030.0 0.00099517
14050.0 0.000977
14070.0 0.00095833
14090.0 0.00094084
14110.0 0.00092476
14130.0 0.00090956
14150.0 0.00089567
14170.0 0.00088413
14190.0 0.00087449
14210.0 0.00086676
14230.0 0.00086148
14250.0 0.00085859
14270.0 0.00085805
14290.0 0.00086008
14310.0 0.00086425
14330.0 0.00087053
14350.0 0.00087909
14370.0 0.00088927
14390.0 0.00090052
14410.0 0.00091358
14430.0 0.00092779
14450.0 0.0009423
14470.0 0.0009575
14490.0 0.000974
14510.0 0.00099033
14530.0 0.0010066
14550.0 0.0010239
14570.0 0.0010419
14590.0 0.0010599
14610.0 0.0010792
14630.0 0.0011006
14650.0 0.0011229
14670.0 0.0011465
14690.0 0.0011729
14710.0 0.0012019
14730.0 0.0012314
14750.0 0.0012636
14770.0 0.0012988
14790.0 0.0013349
14810.0 0.0013716
14830.0 0.0014118
14850.0 0.001452
14870.0 0.0014906
14890.0 0.0015291
14910.0 0.0015669
14930.0 0.0016008
14950.0 0.0016305
14970.0 0.001657
14990.0 0.001678
15010.0 0.0016932
15030.0 0.0017037
15050.0 0.00171
15070.0 0.0017125
15090.0 0.0017127
15110.0 0.0017112
15130.0 0.0017087
15150.0 0.0017059
15170.0 0.0017027
15190.0 0.0016993
15210.0 0.001696
15230.0 0.0016928
15250.0 0.0016894
15270.0 0.0016861
15290.0 0.001683
15310.0 0.0016798
15330.0 0.0016765
15350.0 0.0016734
15370.0 0.0016704
15390.0 0.0016671
15410.0 0.0016639
15430.0 0.0016609
15450.0 0.0016578
15470.0 0.0016546
15490.0 0.0016516
15510.0 0.0016486
15530.0 0.0016455
15550.0 0.0016424
15570.0 0.0016395
15590.0 0.0016364
15610.0 0.0016332
15630.0 0.0016302
15650.0 0.0016272
15670.0 0.0016241
15690.0 0.001621
15710.0 0.0016181
15730.0 0.0016149
15750.0 0.0016118
15770.0 0.0016087
15790.0 0.0016057
15810.0 0.0016024
15830.0 0.0015992
15850.0 0.0015962
15870.0 0.001593
15890.0 0.0015898
15910.0 0.0015867
15930.0 0.0015835
15950.0 0.0015801
15970.0 0.0015769
15990.0 0.0015737
16010.0 0.0015703
16030.0 0.0015669
16050.0 0.0015636
16070.0 0.0015603
16090.0 0.0015568
16110.0 0.0015534
16130.0 0.0015501
16150.0 0.0015465
16170.0 0.0015429
16190.0 0.0015395
16210.0 0.0015359
16230.0 0.0015322
16250.0 0.0015286
16270.0 0.0015251
16290.0 0.0015213
16310.0 0.0015175
16330.0 0.0015139
16350.0 0.0015101
16370.0 0.0015061
16390.0 0.0015023
16410.0 0.0014985
16430.0 0.0014945
16450.0 0.0014905
16470.0 0.0014867
16490.0 0.0014826
16510.0 0.0014785
16530.0 0.0014744
16550.0 0.0014703
16570.0 0.001466
16590.0 0.0014618
16610.0 0.0014577
16630.0 0.0014534
16650.0 0.001449
16670.0 0.0014447
16690.0 0.0014404
16710.0 0.0014358
16730.0 0.0014314
16750.0 0.001427
16770.0 0.0014224
16790.0 0.0014177
16810.0 0.0014132
16830.0 0.0014086
16850.0 0.0014039
16870.0 0.0013992
16890.0 0.0013945
16910.0 0.0013897
16930.0 0.0013847
16950.0 0.00138
16970.0 0.0013751
16990.0 0.0013701
17010.0 0.0013651
17030.0 0.0013603
17050.0 0.0013552
17070.0 0.0013501
17090.0 0.0013451
17110.0 0.00134
17130.0 0.0013346
17150.0 0.0013295
17170.0 0.0013244
17190.0 0.0013191
17210.0 0.0013137
17230.0 0.0013085
17250.0 0.0013032
17270.0 0.0012977
17290.0 0.0012923
17310.0 0.001287
17330.0 0.0012815
17350.0 0.0012759
17370.0 0.0012705
17390.0 0.001265
17410.0 0.0012593
17430.0 0.0012538
17450.0 0.0012483
17470.0 0.0012425
17490.0 0.0012368
17510.0 0.0012312
17530.0 0.0012255
17550.0 0.0012197
17570.0 0.001214
17590.0 0.0012084
17610.0 0.0012025
17630.0 0.0011966
17650.0 0.0011909
17670.0 0.0011851
17690.0 0.001179
17710.0 0.0011732
17730.0 0.0011674
17750.0 0.0011614
17770.0 0.0011555
17790.0 0.0011497
17810.0 0.0011437
17830.0 0.0011376
17850.0 0.0011317
17870.0 0.0011258
17890.0 0.0011196
17910.0 0.0011136
17930.0 0.0011077
17950.0 0.0011017
17970.0 0.0010955
17990.0 0.0010896
18010.0 0.0010836
18030.0 0.0010774
18050.0 0.0010713
18070.0 0.0010653
18090.0 0.0010592
18110.0 0.001053
18130.0 0.001047
18150.0 0.001041
18170.0 0.0010348
18190.0 0.0010287
18210.0 0.0010227
18230.0 0.0010165
18250.0 0.0010103
18270.0 0.0010043
18290.0 0.00099821
18310.0 0.00099201
18330.0 0.00098594
18350.0 0.00097997
18370.0 0.00097378
18390.0 0.00096763
18410.0 0.00096162
18430.0 0.00095555
18450.0 0.00094931
18470.0 0.00094326
18490.0 0.0009373
18510.0 0.00093118
18530.0 0.00092508
18550.0 0.00091915
18570.0 0.0009131
18590.0 0.00090693
18610.0 0.00090093
18630.0 0.00089499
18650.0 0.00088889
18670.0 0.00088281
18690.0 0.00087696
18710.0 0.00087098
18730.0 0.00086493
18750.0 0.00085902
18770.0 0.00085318
18790.0 0.00084708
18810.0 0.00084111
18830.0 0.0008353
18850.0 0.00082939
18870.0 0.00082341
18890.0 0.00081761
18910.0 0.00081184
18930.0 0.0008059
18950.0 0.00080006
18970.0 0.00079434
18990.0 0.00078852
19010.0 0.00078255
19030.0 0.00077689
19050.0 0.0007712
19070.0 0.00076539
19090.0 0.00075966
19110.0 0.0007541
19130.0 0.00074834
19150.0 0.00074259
19170.0 0.000737
19190.0 0.00073141
19210.0 0.00072568
19230.0 0.00072005
19250.0 0.0007146
19270.0 0.00070901
19290.0 0.0007034
19310.0 0.00069797
19330.0 0.00069252
19350.0 0.00068687
19370.0 0.00068141
19390.0 0.00067605
19410.0 0.00067057
19430.0 0.00066508
19450.0 0.0006598
19470.0 0.00065447
19490.0 0.00064903
19510.0 0.00064372
19530.0 0.00063851
19550.0 0.00063313
19570.0 0.00062776
19590.0 0.00062261
19610.0 0.0006174
19630.0 0.00061211
19650.0 0.00060696
19670.0 0.0006019
19690.0 0.00059667
19710.0 0.0005915
19730.0 0.00058647
19750.0 0.0005814
19770.0 0.00057619
19790.0 0.00057119
19810.0 0.00056625
19830.0 0.00056118
19850.0 0.00055613
19870.0 0.00055121
19890.0 0.00054606
19910.0 0.00054064
19930.0 0.0005351
19950.0 0.00052914
19970.0 0.00052237
19990.0 0.00051478
20010.0 0.00051681
20030.0 0.00050733
20050.0 0.00049678
20070.0 0.00048579
20090.0 0.00047438
20110.0 0.00046196
20130.0 0.00044974
20150.0 0.00043793
20170.0 0.00042601
20190.0 0.0004142
20210.0 0.00040322
20230.0 0.00039269
20250.0 0.00038232
20270.0 0.00037278
20290.0 0.00036414
20310.0 0.00035601
20330.0 0.00034848
20350.0 0.00034224
20370.0 0.00033674
20390.0 0.00033197
20410.0 0.00032817
20430.0 0.00032528
20450.0 0.00032312
20470.0 0.00032182
20490.0 0.00032129
20510.0 0.00032146
20530.0 0.00032235
20550.0 0.00032382
20570.0 0.00032572
20590.0 0.00032818
20610.0 0.00033107
20630.0 0.00033416
20650.0 0.00033757
20670.0 0.00034143
20690.0 0.00034528
20710.0 0.00034918
20730.0 0.00035333
20750.0 0.00035759
20770.0 0.00036168
20790.0 0.0003659
20810.0 0.0003703
20830.0 0.0003746
20850.0 0.00037885
20870.0 0.00038337
20890.0 0.00038794
20910.0 0.0003923
20930.0 0.00039683
20950.0 0.00040153
20970.0 0.00040612
20990.0 0.00041065
21010.0 0.00041547
21030.0 0.0004202
21050.0 0.00042473
21070.0 0.00042929
21090.0 0.00043393
21110.0 0.00043818
21130.0 0.00044221
21150.0 0.0004462
21170.0 0.00044989
21190.0 0.00045315
21210.0 0.00045625
21230.0 0.00045904
21250.0 0.00046129
21270.0 0.00046311
21290.0 0.00046453
21310.0 0.0004654
21330.0 0.00046567
21350.0 0.00046539
21370.0 0.00046446
21390.0 0.00046288
21410.0 0.00046064
21430.0 0.00045754
21450.0 0.00045375
21470.0 0.00044936
21490.0 0.00044416
21510.0 0.00043818
21530.0 0.00043183
21550.0 0.00042492
21570.0 0.00041726
21590.0 0.00040942
21610.0 0.00040152
21630.0 0.00039329
21650.0 0.00038487
21670.0 0.00037715
21690.0 0.00036961
21710.0 0.00036232
21730.0 0.00035574
21750.0 0.00035001
21770.0 0.00034473
21790.0 0.00034038
21810.0 0.00033707
21830.0 0.00033465
21850.0 0.00033317
21870.0 0.00033271
21890.0 0.00033316
21910.0 0.00033456
21930.0 0.00033687
21950.0 0.00033989
21970.0 0.00034371
21990.0 0.00034849
22010.0 0.00035369
22030.0 0.00035934
22050.0 0.00036568
22070.0 0.00037243
22090.0 0.00037917
22110.0 0.0003863
22130.0 0.00039377
22150.0 0.00040106
22170.0 0.00040821
22190.0 0.00041557
22210.0 0.00042266
22230.0 0.00042909
22250.0 0.0004353
22270.0 0.00044117
22290.0 0.00044628
22310.0 0.00045073
22330.0 0.00045472
22350.0 0.00045786
22370.0 0.00046011
22390.0 0.00046159
22410.0 0.00046219
22430.0 0.00046184
22450.0 0.00046062
22470.0 0.00045842
22490.0 0.00045531
22510.0 0.00045143
22530.0 0.00044649
22550.0 0.00044053
22570.0 0.00043397
22590.0 0.00042663
22610.0 0.00041824
22630.0 0.0004092
22650.0 0.00039991
22670.0 0.00038967
22690.0 0.00037875
22710.0 0.00036775
22730.0 0.00035641
22750.0 0.0003441
22770.0 0.00033206
22790.0 0.00032028
22810.0 0.00030817
22830.0 0.00029608
22850.0 0.00028476
22870.0 0.00027366
22890.0 0.00026266
22910.0 0.00025257
22930.0 0.00024339
22950.0 0.00023474
22970.0 0.00022687
22990.0 0.00022051
23010.0 0.00021505
23030.0 0.00021061
23050.0 0.00020747
23070.0 0.00020556
23090.0 0.00020478
23110.0 0.00020529
23130.0 0.00020694
23150.0 0.00020971
23170.0 0.00021369
23190.0 0.00021854
23210.0 0.00022408
23230.0 0.00023061
23250.0 0.00023776
23270.0 0.00024513
23290.0 0.00025297
23310.0 0.00026136
23330.0 0.00026938
23350.0 0.00027719
23370.0 0.00028502
23390.0 0.00029241
23410.0 0.00029899
23430.0 0.00030515
23450.0 0.0003107
23470.0 0.00031526
23490.0 0.00031893
23510.0 0.0003218
23530.0 0.00032362
23550.0 0.00032439
23570.0 0.00032421
23590.0 0.000323
23610.0 0.00032089
