#lamb flux
1010.0 1.4662e-06
1030.0 1.6048e-06
1050.0 1.7484e-06
1070.0 1.9101e-06
1090.0 2.0983e-06
1110.0 2.2905e-06
1130.0 2.4834e-06
1150.0 2.6853e-06
1170.0 2.894e-06
1190.0 3.093e-06
1210.0 3.2965e-06
1230.0 3.5092e-06
1250.0 3.7198e-06
1270.0 3.9283e-06
1290.0 4.1522e-06
1310.0 4.3805e-06
1330.0 4.6044e-06
1350.0 4.8346e-06
1370.0 5.0749e-06
1390.0 5.3126e-06
1410.0 5.5458e-06
1430.0 5.7891e-06
1450.0 6.0324e-06
1470.0 6.2671e-06
1490.0 6.5019e-06
1510.0 6.7458e-06
1530.0 6.9739e-06
1550.0 7.1944e-06
1570.0 7.417e-06
1590.0 7.6339e-06
1610.0 7.8342e-06
1630.0 8.0325e-06
1650.0 8.2293e-06
1670.0 8.4114e-06
1690.0 8.5834e-06
1710.0 8.7564e-06
1730.0 8.9237e-06
1750.0 9.0719e-06
1770.0 9.2206e-06
1790.0 9.369e-06
1810.0 9.5073e-06
1830.0 9.6402e-06
1850.0 9.7848e-06
1870.0 9.9249e-06
1890.0 1.0061e-05
1910.0 1.0205e-05
1930.0 1.036e-05
1950.0 1.0512e-05
1970.0 1.067e-05
1990.0 1.0844e-05
2010.0 1.1024e-05
2030.0 1.1206e-05
2050.0 1.1403e-05
2070.0 1.1613e-05
2090.0 1.1818e-05
2110.0 1.2028e-05
2130.0 1.2248e-05
2150.0 1.2467e-05
2170.0 1.2678e-05
2190.0 1.2894e-05
2210.0 1.3108e-05
2230.0 1.331e-05
2250.0 1.3504e-05
2270.0 1.3699e-05
2290.0 1.3879e-05
2310.0 1.404e-05
2330.0 1.4197e-05
2350.0 1.4344e-05
2370.0 1.4472e-05
2390.0 1.4589e-05
2410.0 1.4705e-05
2430.0 1.4803e-05
2450.0 1.4885e-05
2470.0 1.4963e-05
2490.0 1.5036e-05
2510.0 1.51e-05
2530.0 1.5196e-05
2550.0 1.5381e-05
2570.0 1.5721e-05
2590.0 1.6296e-05
2610.0 1.7305e-05
2630.0 1.8813e-05
2650.0 2.0748e-05
2670.0 2.3141e-05
2690.0 2.5897e-05
2710.0 2.8596e-05
2730.0 3.0985e-05
2750.0 3.2988e-05
2770.0 3.4256e-05
2790.0 3.4687e-05
2810.0 3.4339e-05
2830.0 3.3195e-05
2850.0 3.1486e-05
2870.0 2.9366e-05
2890.0 2.6874e-05
2910.0 2.4179e-05
2930.0 2.1471e-05
2950.0 1.8601e-05
2970.0 1.5621e-05
2990.0 1.269e-05
3010.0 1.5422e-05
3030.0 1.0576e-05
3050.0 5.7048e-06
3070.0 1.7057e-06
3090.0 1.7057e-06
3110.0 1.7057e-06
3130.0 1.7057e-06
3150.0 1.7057e-06
3170.0 1.7057e-06
3190.0 1.7057e-06
3210.0 5.3851e-05
3230.0 0.00014979
3250.0 0.00020378
3270.0 0.00017882
3290.0 0.00013554
3310.0 0.00010737
3330.0 0.00010016
3350.0 0.00010506
3370.0 0.00011365
3390.0 0.00012264
3410.0 0.00013206
3430.0 0.00014357
3450.0 0.00015457
3470.0 0.000166
3490.0 0.00016812
3510.0 0.00014663
3530.0 0.00013729
3550.0 0.00017557
3570.0 0.00022358
3590.0 0.00024883
3610.0 0.00025761
3630.0 0.00027308
3650.0 0.00027333
3670.0 0.00028481
3690.0 0.00033496
3710.0 0.00038934
3730.0 0.00042507
3750.0 0.00044713
3770.0 0.00045424
3790.0 0.00044051
3810.0 0.0004084
3830.0 0.00035751
3850.0 0.00028129
3870.0 0.0002501
3890.0 0.00028172
3910.0 0.0003732
3930.0 0.00046649
3950.0 0.00051
3970.0 0.00052788
3990.0 0.00056928
4010.0 0.00058862
4030.0 0.00053219
4050.0 0.00040121
4070.0 0.00033944
4090.0 0.00038014
4110.0 0.00042198
4130.0 0.0004507
4150.0 0.00045097
4170.0 0.00043362
4190.0 0.00041418
4210.0 0.000441
4230.0 0.00047363
4250.0 0.00050195
4270.0 0.0005033
4290.0 0.00048747
4310.0 0.00048984
4330.0 0.00053846
4350.0 0.00059275
4370.0 0.00060049
4390.0 0.00055996
4410.0 0.00049778
4430.0 0.00040345
4450.0 0.00033328
4470.0 0.00033176
4490.0 0.00036819
4510.0 0.00040124
4530.0 0.00042184
4550.0 0.00045502
4570.0 0.00059159
4590.0 0.00081294
4610.0 0.00096602
4630.0 0.0010261
4650.0 0.0011159
4670.0 0.0012426
4690.0 0.0012648
4710.0 0.0010958
4730.0 0.00085978
4750.0 0.00067486
4770.0 0.00056767
4790.0 0.00051734
4810.0 0.00050266
4830.0 0.00054624
4850.0 0.00064393
4870.0 0.00071914
4890.0 0.00073768
4910.0 0.00074124
4930.0 0.00081912
4950.0 0.00094399
4970.0 0.0010249
4990.0 0.0010173
5010.0 0.0009164
5030.0 0.00075855
5050.0 0.00061507
5070.0 0.0005253
5090.0 0.00049137
5110.0 0.00049188
5130.0 0.00049834
5150.0 0.00049204
5170.0 0.00046833
5190.0 0.00045729
5210.0 0.00047914
5230.0 0.00054473
5250.0 0.0006537
5270.0 0.00076874
5290.0 0.00084587
5310.0 0.00090893
5330.0 0.001001
5350.0 0.0010806
5370.0 0.0010772
5390.0 0.00099888
5410.0 0.00092833
5430.0 0.00094645
5450.0 0.0010824
5470.0 0.0012653
5490.0 0.0014035
5510.0 0.0014564
5530.0 0.0014416
5550.0 0.0013925
5570.0 0.0013374
5590.0 0.0012847
5610.0 0.0012511
5630.0 0.0012469
5650.0 0.0012407
5670.0 0.001177
5690.0 0.0010582
5710.0 0.0009387
5730.0 0.00086164
5750.0 0.00083905
5770.0 0.00086348
5790.0 0.00089067
5810.0 0.00090509
5830.0 0.00090869
5850.0 0.00088595
5870.0 0.00085544
5890.0 0.0008519
5910.0 0.00087505
5930.0 0.00087855
5950.0 0.00082533
5970.0 0.00072655
5990.0 0.00060554
6010.0 0.00051232
6030.0 0.00048781
6050.0 0.00052384
6070.0 0.00055038
6090.0 0.00052113
6110.0 0.00047827
6130.0 0.0004917
6150.0 0.00054991
6170.0 0.00060354
6190.0 0.00063621
6210.0 0.00064781
6230.0 0.00063587
6250.0 0.00057825
6270.0 0.0004876
6290.0 0.00041176
6310.0 0.00038031
6330.0 0.00038461
6350.0 0.00039776
6370.0 0.00041921
6390.0 0.00047999
6410.0 0.00057837
6430.0 0.00066572
6450.0 0.00070982
6470.0 0.00072935
6490.0 0.00074042
6510.0 0.00074696
6530.0 0.00075341
6550.0 0.0007618
6570.0 0.00078099
6590.0 0.00079814
6610.0 0.00079604
6630.0 0.00076232
6650.0 0.00070497
6670.0 0.00064952
6690.0 0.0006122
6710.0 0.00058603
6730.0 0.00056167
6750.0 0.00055231
6770.0 0.00056696
6790.0 0.0005881
6810.0 0.00059776
6830.0 0.00058847
6850.0 0.00056014
6870.0 0.00053048
6890.0 0.0005174
6910.0 0.00051715
6930.0 0.00052978
6950.0 0.00054351
6970.0 0.00055406
6990.0 0.00055615
7010.0 0.000538
7030.0 0.00049737
7050.0 0.00044598
7070.0 0.00041105
7090.0 0.00040381
7110.0 0.00040736
7130.0 0.00038846
7150.0 0.00035111
7170.0 0.00034277
7190.0 0.00037888
7210.0 0.00043419
7230.0 0.0004816
7250.0 0.00049909
7270.0 0.00048764
7290.0 0.00045801
7310.0 0.00043342
7330.0 0.00042929
7350.0 0.00043669
7370.0 0.00044422
7390.0 0.00046562
7410.0 0.00051144
7430.0 0.00056915
7450.0 0.00061726
7470.0 0.00063376
7490.0 0.00060466
7510.0 0.00055877
7530.0 0.00052404
7550.0 0.00049117
7570.0 0.00045592
7590.0 0.00043765
7610.0 0.00043919
7630.0 0.00045885
7650.0 0.00049471
7670.0 0.00053851
7690.0 0.00057659
7710.0 0.00060573
7730.0 0.00063089
7750.0 0.00065107
7770.0 0.00065494
7790.0 0.00066214
7810.0 0.00066308
7830.0 0.00064353
7850.0 0.00062035
7870.0 0.00060743
7890.0 0.00061142
7910.0 0.00061052
7930.0 0.0005962
7950.0 0.00057274
7970.0 0.00055156
7990.0 0.00053131
8010.0 0.00051233
8030.0 0.00051392
8050.0 0.00051362
8070.0 0.00050642
8090.0 0.00050143
8110.0 0.00049083
8130.0 0.0004908
8150.0 0.00048641
8170.0 0.00047643
8190.0 0.0004634
8210.0 0.00045163
8230.0 0.00043907
8250.0 0.00043424
8270.0 0.00040546
8290.0 0.00034541
8310.0 0.00027788
8330.0 0.00023177
8350.0 0.00022123
8370.0 0.00025113
8390.0 0.00029218
8410.0 0.00031188
8430.0 0.00032115
8450.0 0.00034159
8470.0 0.00036907
8490.0 0.00040924
8510.0 0.00045763
8530.0 0.00050954
8550.0 0.00055176
8570.0 0.00058339
8590.0 0.00060697
8610.0 0.00061926
8630.0 0.00061639
8650.0 0.00060629
8670.0 0.00060677
8690.0 0.00063917
8710.0 0.00068336
8730.0 0.00070638
8750.0 0.00070242
8770.0 0.000711
8790.0 0.00071082
8810.0 0.00067587
8830.0 0.00062848
8850.0 0.00056847
8870.0 0.00052205
8890.0 0.00050814
8910.0 0.00050221
8930.0 0.00047123
8950.0 0.00043588
8970.0 0.00042103
8990.0 0.00042093
9010.0 0.00041071
9030.0 0.00040262
9050.0 0.00039886
9070.0 0.00039697
9090.0 0.00039534
9110.0 0.00039376
9130.0 0.00039219
9150.0 0.00039065
9170.0 0.00038904
9190.0 0.0003878
9210.0 0.00038731
9230.0 0.00038537
9250.0 0.00038366
9270.0 0.00038208
9290.0 0.00038061
9310.0 0.00037918
9330.0 0.00037778
9350.0 0.00037647
9370.0 0.00037517
9390.0 0.00037386
9410.0 0.00037259
9430.0 0.00037127
9450.0 0.00036942
9470.0 0.00036777
9490.0 0.00036712
9510.0 0.00036619
9530.0 0.0003652
9550.0 0.00036415
9570.0 0.00036306
9590.0 0.00036198
9610.0 0.00036089
9630.0 0.00035979
9650.0 0.0003587
9670.0 0.00035765
9690.0 0.00035658
9710.0 0.00035552
9730.0 0.00035448
9750.0 0.00035345
9770.0 0.00035239
9790.0 0.00035136
9810.0 0.00035035
9830.0 0.00034932
9850.0 0.00034829
9870.0 0.00034728
9890.0 0.00034627
9910.0 0.00034524
9930.0 0.00034419
9950.0 0.00034151
9970.0 0.00034096
9990.0 0.00034031
10010.0 0.00033963
10030.0 0.0003388
10050.0 0.00033782
10070.0 0.00033685
10090.0 0.00033587
10110.0 0.0003347
10130.0 0.00033335
10150.0 0.00033231
10170.0 0.00033127
10190.0 0.00033009
10210.0 0.00032899
10230.0 0.00032789
10250.0 0.00032665
10270.0 0.00032541
10290.0 0.00032424
10310.0 0.00032296
10330.0 0.00032156
10350.0 0.00032027
10370.0 0.00031896
10390.0 0.00031753
10410.0 0.00031608
10430.0 0.00031474
10450.0 0.00031326
10470.0 0.0003117
10490.0 0.00031021
10510.0 0.0003087
10530.0 0.00030699
10550.0 0.00030532
10570.0 0.00030373
10590.0 0.000302
10610.0 0.00030019
10630.0 0.00029847
10650.0 0.0002967
10670.0 0.00029475
10690.0 0.00029283
10710.0 0.00029095
10730.0 0.00028893
10750.0 0.00028678
10770.0 0.00028478
10790.0 0.00028271
10810.0 0.00028049
10830.0 0.00027828
10850.0 0.00027615
10870.0 0.00027376
10890.0 0.00027134
10910.0 0.000269
10930.0 0.00026656
10950.0 0.00026394
10970.0 0.00026134
10990.0 0.0002588
11010.0 0.00028009
11030.0 0.00027722
11050.0 0.00027445
11070.0 0.00027161
11090.0 0.00026857
11110.0 0.00026572
11130.0 0.00026294
11150.0 0.00026005
11170.0 0.00025716
11190.0 0.00025445
11210.0 0.00025166
11230.0 0.00024881
11250.0 0.00024608
11270.0 0.00024342
11290.0 0.00024067
11310.0 0.00023796
11330.0 0.00023544
11350.0 0.00023286
11370.0 0.00023023
11390.0 0.00022768
11410.0 0.00022514
11430.0 0.00022237
11450.0 0.00021956
11470.0 0.00021671
11490.0 0.00021367
11510.0 0.00021035
11530.0 0.000207
11550.0 0.00020352
11570.0 0.00019974
11590.0 0.00019584
11610.0 0.00019194
11630.0 0.0001878
11650.0 0.00018349
11670.0 0.00017932
11690.0 0.00017515
11710.0 0.00017086
11730.0 0.00016665
11750.0 0.00016265
11770.0 0.00015858
11790.0 0.00015453
11810.0 0.00015068
11830.0 0.00014692
11850.0 0.00014306
11870.0 0.00013939
11890.0 0.00013591
11910.0 0.00013241
11930.0 0.00012897
11950.0 0.00012574
11970.0 0.00012258
11990.0 0.00011942
12010.0 0.00011645
12030.0 0.00011366
12050.0 0.00011095
12070.0 0.00010834
12090.0 0.00010604
12110.0 0.00010387
12130.0 0.00010185
12150.0 0.00010007
12170.0 9.8537e-05
12190.0 9.7161e-05
12210.0 9.6037e-05
12230.0 9.5171e-05
12250.0 9.453e-05
12270.0 9.4129e-05
12290.0 9.3959e-05
12310.0 9.3983e-05
12330.0 9.4233e-05
12350.0 9.4671e-05
12370.0 9.5233e-05
12390.0 9.5943e-05
12410.0 9.6842e-05
12430.0 9.7752e-05
12450.0 9.8703e-05
12470.0 9.9742e-05
12490.0 0.00010079
12510.0 0.00010175
12530.0 0.00010273
12550.0 0.00010368
12570.0 0.0001045
12590.0 0.00010519
12610.0 0.00010581
12630.0 0.00010626
12650.0 0.00010648
12670.0 0.00010654
12690.0 0.0001064
12710.0 0.00010604
12730.0 0.00010547
12750.0 0.00010469
12770.0 0.00010369
12790.0 0.00010252
12810.0 0.00010117
12830.0 9.9646e-05
12850.0 9.8044e-05
12870.0 9.6362e-05
12890.0 9.4575e-05
12910.0 9.2768e-05
12930.0 9.0989e-05
12950.0 8.9173e-05
12970.0 8.7358e-05
12990.0 8.5643e-05
13010.0 8.3973e-05
13030.0 8.2318e-05
13050.0 8.0736e-05
13070.0 7.9247e-05
13090.0 7.7768e-05
13110.0 7.6331e-05
13130.0 7.4974e-05
13150.0 7.3658e-05
13170.0 7.2341e-05
13190.0 7.1094e-05
13210.0 6.9911e-05
13230.0 6.8742e-05
13250.0 6.7608e-05
13270.0 6.6543e-05
13290.0 6.5511e-05
13310.0 6.4499e-05
13330.0 6.3554e-05
13350.0 6.267e-05
13370.0 6.182e-05
13390.0 6.1018e-05
13410.0 6.0297e-05
13430.0 5.9619e-05
13450.0 5.8982e-05
13470.0 5.8399e-05
13490.0 5.7862e-05
13510.0 5.7341e-05
13530.0 5.6849e-05
13550.0 5.638e-05
13570.0 5.5914e-05
13590.0 5.5442e-05
13610.0 5.4969e-05
13630.0 5.4492e-05
13650.0 5.3991e-05
13670.0 5.3477e-05
13690.0 5.2962e-05
13710.0 5.2432e-05
13730.0 5.188e-05
13750.0 5.1349e-05
13770.0 5.0826e-05
13790.0 5.0302e-05
13810.0 4.9795e-05
13830.0 4.9322e-05
13850.0 4.8859e-05
13870.0 4.8414e-05
13890.0 4.8002e-05
13910.0 4.7614e-05
13930.0 4.7236e-05
13950.0 4.6875e-05
13970.0 4.6539e-05
13990.0 4.6203e-05
14010.0 4.5865e-05
14030.0 4.5533e-05
14050.0 4.5197e-05
14070.0 4.4835e-05
14090.0 4.4467e-05
14110.0 4.4092e-05
14130.0 4.3694e-05
14150.0 4.3273e-05
14170.0 4.2859e-05
14190.0 4.2438e-05
14210.0 4.2003e-05
14230.0 4.1579e-05
14250.0 4.1177e-05
14270.0 4.0779e-05
14290.0 4.0401e-05
14310.0 4.0071e-05
14330.0 3.9774e-05
14350.0 3.9506e-05
14370.0 3.9284e-05
14390.0 3.9107e-05
14410.0 3.896e-05
14430.0 3.8848e-05
14450.0 3.8769e-05
14470.0 3.8715e-05
14490.0 3.8678e-05
14510.0 3.8661e-05
14530.0 3.8657e-05
14550.0 3.8664e-05
14570.0 3.8684e-05
14590.0 3.8718e-05
14610.0 3.8769e-05
14630.0 3.8847e-05
14650.0 3.8955e-05
14670.0 3.9101e-05
14690.0 3.9297e-05
14710.0 3.9556e-05
14730.0 3.9865e-05
14750.0 4.0249e-05
14770.0 4.0722e-05
14790.0 4.1269e-05
14810.0 4.1889e-05
14830.0 4.2642e-05
14850.0 4.3486e-05
14870.0 4.4393e-05
14890.0 4.5396e-05
14910.0 4.649e-05
14930.0 4.7583e-05
14950.0 4.8648e-05
14970.0 4.97e-05
14990.0 5.0644e-05
15010.0 5.1437e-05
15030.0 5.2103e-05
15050.0 5.2644e-05
15070.0 5.3044e-05
15090.0 5.336e-05
15110.0 5.3621e-05
15130.0 5.3844e-05
15150.0 5.4048e-05
15170.0 5.4246e-05
15190.0 5.4442e-05
15210.0 5.464e-05
15230.0 5.4842e-05
15250.0 5.5047e-05
15270.0 5.5256e-05
15290.0 5.547e-05
15310.0 5.5687e-05
15330.0 5.5908e-05
15350.0 5.6133e-05
15370.0 5.6362e-05
15390.0 5.6594e-05
15410.0 5.683e-05
15430.0 5.707e-05
15450.0 5.7313e-05
15470.0 5.756e-05
15490.0 5.781e-05
15510.0 5.8064e-05
15530.0 5.832e-05
15550.0 5.858e-05
15570.0 5.8844e-05
15590.0 5.911e-05
15610.0 5.9379e-05
15630.0 5.9651e-05
15650.0 5.9926e-05
15670.0 6.0204e-05
15690.0 6.0484e-05
15710.0 6.0768e-05
15730.0 6.1053e-05
15750.0 6.1341e-05
15770.0 6.1632e-05
15790.0 6.1924e-05
15810.0 6.2219e-05
15830.0 6.2516e-05
15850.0 6.2815e-05
15870.0 6.3116e-05
15890.0 6.3419e-05
15910.0 6.3724e-05
15930.0 6.403e-05
15950.0 6.4337e-05
15970.0 6.4646e-05
15990.0 6.4957e-05
16010.0 6.5268e-05
16030.0 6.5581e-05
16050.0 6.5895e-05
16070.0 6.621e-05
16090.0 6.6525e-05
16110.0 6.6842e-05
16130.0 6.7159e-05
16150.0 6.7476e-05
16170.0 6.7794e-05
16190.0 6.8112e-05
16210.0 6.843e-05
16230.0 6.8748e-05
16250.0 6.9066e-05
16270.0 6.9384e-05
16290.0 6.9702e-05
16310.0 7.0019e-05
16330.0 7.0335e-05
16350.0 7.0651e-05
16370.0 7.0966e-05
16390.0 7.128e-05
16410.0 7.1593e-05
16430.0 7.1905e-05
16450.0 7.2215e-05
16470.0 7.2525e-05
16490.0 7.2832e-05
16510.0 7.3137e-05
16530.0 7.3442e-05
16550.0 7.3744e-05
16570.0 7.4043e-05
16590.0 7.4341e-05
16610.0 7.4637e-05
16630.0 7.493e-05
16650.0 7.522e-05
16670.0 7.5508e-05
16690.0 7.5793e-05
16710.0 7.6075e-05
16730.0 7.6354e-05
16750.0 7.663e-05
16770.0 7.6902e-05
16790.0 7.717e-05
16810.0 7.7436e-05
16830.0 7.7698e-05
16850.0 7.7955e-05
16870.0 7.8209e-05
16890.0 7.846e-05
16910.0 7.8705e-05
16930.0 7.8946e-05
16950.0 7.9183e-05
16970.0 7.9416e-05
16990.0 7.9644e-05
17010.0 7.9867e-05
17030.0 8.0086e-05
17050.0 8.0299e-05
17070.0 8.0507e-05
17090.0 8.0711e-05
17110.0 8.0909e-05
17130.0 8.1101e-05
17150.0 8.1288e-05
17170.0 8.147e-05
17190.0 8.1646e-05
17210.0 8.1816e-05
17230.0 8.1981e-05
17250.0 8.214e-05
17270.0 8.2293e-05
17290.0 8.2439e-05
17310.0 8.258e-05
17330.0 8.2715e-05
17350.0 8.2842e-05
17370.0 8.2965e-05
17390.0 8.3081e-05
17410.0 8.3189e-05
17430.0 8.3292e-05
17450.0 8.3389e-05
17470.0 8.3478e-05
17490.0 8.356e-05
17510.0 8.3637e-05
17530.0 8.3706e-05
17550.0 8.3768e-05
17570.0 8.3824e-05
17590.0 8.3874e-05
17610.0 8.3916e-05
17630.0 8.3951e-05
17650.0 8.3979e-05
17670.0 8.4001e-05
17690.0 8.4014e-05
17710.0 8.4022e-05
17730.0 8.4023e-05
17750.0 8.4016e-05
17770.0 8.4002e-05
17790.0 8.3982e-05
17810.0 8.3955e-05
17830.0 8.392e-05
17850.0 8.3879e-05
17870.0 8.383e-05
17890.0 8.3775e-05
17910.0 8.3712e-05
17930.0 8.3644e-05
17950.0 8.3568e-05
17970.0 8.3485e-05
17990.0 8.3395e-05
18010.0 8.3299e-05
18030.0 8.3195e-05
18050.0 8.3086e-05
18070.0 8.2969e-05
18090.0 8.2846e-05
18110.0 8.2716e-05
18130.0 8.258e-05
18150.0 8.2438e-05
18170.0 8.2289e-05
18190.0 8.2134e-05
18210.0 8.1972e-05
18230.0 8.1804e-05
18250.0 8.163e-05
18270.0 8.145e-05
18290.0 8.1265e-05
18310.0 8.1072e-05
18330.0 8.0875e-05
18350.0 8.0672e-05
18370.0 8.0462e-05
18390.0 8.0247e-05
18410.0 8.0027e-05
18430.0 7.9802e-05
18450.0 7.957e-05
18470.0 7.9334e-05
18490.0 7.9093e-05
18510.0 7.8846e-05
18530.0 7.8594e-05
18550.0 7.8338e-05
18570.0 7.8077e-05
18590.0 7.7811e-05
18610.0 7.754e-05
18630.0 7.7266e-05
18650.0 7.6986e-05
18670.0 7.6702e-05
18690.0 7.6414e-05
18710.0 7.6122e-05
18730.0 7.5826e-05
18750.0 7.5526e-05
18770.0 7.5223e-05
18790.0 7.4915e-05
18810.0 7.4604e-05
18830.0 7.429e-05
18850.0 7.3972e-05
18870.0 7.365e-05
18890.0 7.3326e-05
18910.0 7.2999e-05
18930.0 7.2669e-05
18950.0 7.2336e-05
18970.0 7.2e-05
18990.0 7.1661e-05
19010.0 7.132e-05
19030.0 7.0977e-05
19050.0 7.0631e-05
19070.0 7.0283e-05
19090.0 6.9932e-05
19110.0 6.9581e-05
19130.0 6.9226e-05
19150.0 6.887e-05
19170.0 6.8512e-05
19190.0 6.8153e-05
19210.0 6.7792e-05
19230.0 6.743e-05
19250.0 6.7066e-05
19270.0 6.6701e-05
19290.0 6.6335e-05
19310.0 6.5968e-05
19330.0 6.5601e-05
19350.0 6.5231e-05
19370.0 6.4861e-05
19390.0 6.4491e-05
19410.0 6.412e-05
19430.0 6.3748e-05
19450.0 6.3377e-05
19470.0 6.3005e-05
19490.0 6.2632e-05
19510.0 6.2259e-05
19530.0 6.1887e-05
19550.0 6.1514e-05
19570.0 6.114e-05
19590.0 6.0768e-05
19610.0 6.0396e-05
19630.0 6.0023e-05
19650.0 5.9652e-05
19670.0 5.928e-05
19690.0 5.8909e-05
19710.0 5.8539e-05
19730.0 5.8169e-05
19750.0 5.78e-05
19770.0 5.7431e-05
19790.0 5.7064e-05
19810.0 5.6697e-05
19830.0 5.633e-05
19850.0 5.5961e-05
19870.0 5.5588e-05
19890.0 5.5205e-05
19910.0 5.4801e-05
19930.0 5.4367e-05
19950.0 5.3887e-05
19970.0 5.3332e-05
19990.0 5.2691e-05
20010.0 5.1975e-05
20030.0 5.1152e-05
20050.0 5.023e-05
20070.0 4.9256e-05
20090.0 4.824e-05
20110.0 4.7147e-05
20130.0 4.6067e-05
20150.0 4.5016e-05
20170.0 4.3959e-05
20190.0 4.2914e-05
20210.0 4.193e-05
20230.0 4.0977e-05
20250.0 4.0034e-05
20270.0 3.9145e-05
20290.0 3.8314e-05
20310.0 3.7509e-05
20330.0 3.6732e-05
20350.0 3.6035e-05
20370.0 3.5374e-05
20390.0 3.4744e-05
20410.0 3.4166e-05
20430.0 3.3639e-05
20450.0 3.3135e-05
20470.0 3.2671e-05
20490.0 3.2252e-05
20510.0 3.1864e-05
20530.0 3.1502e-05
20550.0 3.1172e-05
20570.0 3.0872e-05
20590.0 3.059e-05
20610.0 3.0329e-05
20630.0 3.0086e-05
20650.0 2.9857e-05
20670.0 2.9638e-05
20690.0 2.9428e-05
20710.0 2.9225e-05
20730.0 2.9024e-05
20750.0 2.8824e-05
20770.0 2.8623e-05
20790.0 2.8419e-05
20810.0 2.8209e-05
20830.0 2.7993e-05
20850.0 2.7771e-05
20870.0 2.7538e-05
20890.0 2.7296e-05
20910.0 2.7048e-05
20930.0 2.6791e-05
20950.0 2.6523e-05
20970.0 2.6251e-05
20990.0 2.5974e-05
21010.0 2.5685e-05
21030.0 2.5393e-05
21050.0 2.5102e-05
21070.0 2.4805e-05
21090.0 2.4502e-05
21110.0 2.4206e-05
21130.0 2.3912e-05
21150.0 2.3614e-05
21170.0 2.3319e-05
21190.0 2.3034e-05
21210.0 2.2746e-05
21230.0 2.2461e-05
21250.0 2.2186e-05
21270.0 2.1917e-05
21290.0 2.165e-05
21310.0 2.1391e-05
21330.0 2.1145e-05
21350.0 2.0901e-05
21370.0 2.0664e-05
21390.0 2.0439e-05
21410.0 2.0223e-05
21430.0 2.0011e-05
21450.0 1.9811e-05
21470.0 1.9623e-05
21490.0 1.9442e-05
21510.0 1.927e-05
21530.0 1.9109e-05
21550.0 1.8957e-05
21570.0 1.8813e-05
21590.0 1.8677e-05
21610.0 1.855e-05
21630.0 1.843e-05
21650.0 1.8317e-05
21670.0 1.821e-05
21690.0 1.8109e-05
21710.0 1.8013e-05
21730.0 1.7922e-05
21750.0 1.7834e-05
21770.0 1.7751e-05
21790.0 1.767e-05
21810.0 1.7592e-05
21830.0 1.7516e-05
21850.0 1.7442e-05
21870.0 1.737e-05
21890.0 1.7297e-05
21910.0 1.7226e-05
21930.0 1.7155e-05
21950.0 1.7083e-05
21970.0 1.7011e-05
21990.0 1.6938e-05
22010.0 1.6863e-05
22030.0 1.6786e-05
22050.0 1.6708e-05
22070.0 1.6627e-05
22090.0 1.6544e-05
22110.0 1.6459e-05
22130.0 1.6371e-05
22150.0 1.628e-05
22170.0 1.6188e-05
22190.0 1.6093e-05
22210.0 1.5995e-05
22230.0 1.5896e-05
22250.0 1.5794e-05
22270.0 1.5689e-05
22290.0 1.5582e-05
22310.0 1.5473e-05
22330.0 1.5358e-05
22350.0 1.524e-05
22370.0 1.5119e-05
22390.0 1.4993e-05
22410.0 1.4858e-05
22430.0 1.472e-05
22450.0 1.4576e-05
22470.0 1.4423e-05
22490.0 1.4263e-05
22510.0 1.4099e-05
22530.0 1.3924e-05
22550.0 1.3739e-05
22570.0 1.3553e-05
22590.0 1.3362e-05
22610.0 1.3161e-05
22630.0 1.2958e-05
22650.0 1.2759e-05
