#lamb flux
1010.0 8.6754e-06
1030.0 9.0868e-06
1050.0 1.0105e-05
1070.0 1.1238e-05
1090.0 1.242e-05
1110.0 1.3602e-05
1130.0 1.4757e-05
1150.0 1.5947e-05
1170.0 1.7146e-05
1190.0 1.8225e-05
1210.0 1.9282e-05
1230.0 2.0337e-05
1250.0 2.1333e-05
1270.0 2.2239e-05
1290.0 2.3166e-05
1310.0 2.4045e-05
1330.0 2.4832e-05
1350.0 2.5611e-05
1370.0 2.6422e-05
1390.0 2.7216e-05
1410.0 2.8013e-05
1430.0 2.8925e-05
1450.0 2.9925e-05
1470.0 3.1e-05
1490.0 3.2226e-05
1510.0 3.368e-05
1530.0 3.5256e-05
1550.0 3.7024e-05
1570.0 3.9056e-05
1590.0 4.1333e-05
1610.0 4.3816e-05
1630.0 4.6634e-05
1650.0 4.9766e-05
1670.0 5.3134e-05
1690.0 5.676e-05
1710.0 6.071e-05
1730.0 6.4926e-05
1750.0 6.9272e-05
1770.0 7.3858e-05
1790.0 7.8638e-05
1810.0 8.3468e-05
1830.0 8.8316e-05
1850.0 9.3273e-05
1870.0 9.8104e-05
1890.0 0.00010272
1910.0 0.00010716
1930.0 0.00011137
1950.0 0.00011513
1970.0 0.00011845
1990.0 0.0001214
2010.0 0.00012381
2030.0 0.00012562
2050.0 0.00012696
2070.0 0.00012782
2090.0 0.00012803
2110.0 0.00012773
2130.0 0.00012704
2150.0 0.00012588
2170.0 0.00012428
2190.0 0.00012245
2210.0 0.00012037
2230.0 0.00011804
2250.0 0.00011557
2270.0 0.00011311
2290.0 0.00011058
2310.0 0.00010801
2330.0 0.00010558
2350.0 0.00010327
2370.0 0.00010107
2390.0 9.9084e-05
2410.0 9.7406e-05
2430.0 9.5976e-05
2450.0 9.4853e-05
2470.0 9.4168e-05
2490.0 9.3977e-05
2510.0 9.4214e-05
2530.0 9.5177e-05
2550.0 9.7259e-05
2570.0 0.00010077
2590.0 0.00010616
2610.0 0.00011485
2630.0 0.00012718
2650.0 0.00014265
2670.0 0.00016173
2690.0 0.00018414
2710.0 0.00020741
2730.0 0.00023039
2750.0 0.00025375
2770.0 0.00027596
2790.0 0.0002967
2810.0 0.00031743
2830.0 0.00033949
2850.0 0.00036173
2870.0 0.00038536
2890.0 0.00041142
2910.0 0.00043935
2930.0 0.00046827
2950.0 0.00049975
2970.0 0.00053359
2990.0 0.00056857
3010.0 0.00063092
3030.0 0.00067184
3050.0 0.00071437
3070.0 0.0007564
3090.0 0.00079893
3110.0 0.00083961
3130.0 0.00087511
3150.0 0.00090379
3170.0 0.00092251
3190.0 0.00093725
3210.0 0.00096707
3230.0 0.0010085
3250.0 0.0010202
3270.0 0.00099422
3290.0 0.00095913
3310.0 0.00094343
3330.0 0.00094132
3350.0 0.00094782
3370.0 0.00095866
3390.0 0.00097691
3410.0 0.00098979
3430.0 0.00097925
3450.0 0.00098103
3470.0 0.0009899
3490.0 0.0010942
3510.0 0.0013939
3530.0 0.0017239
3550.0 0.0019627
3570.0 0.0021506
3590.0 0.0022565
3610.0 0.002236
3630.0 0.0021847
3650.0 0.0023299
3670.0 0.0027075
3690.0 0.003078
3710.0 0.0033556
3730.0 0.003603
3750.0 0.0038368
3770.0 0.0037805
3790.0 0.0035171
3810.0 0.0032653
3830.0 0.0030437
3850.0 0.0029928
3870.0 0.0032156
3890.0 0.0035117
3910.0 0.0037411
3930.0 0.0039812
3950.0 0.004443
3970.0 0.0048133
3990.0 0.0046166
4010.0 0.0040818
4030.0 0.0035671
4050.0 0.003366
4070.0 0.0033279
4090.0 0.0032628
4110.0 0.0032416
4130.0 0.003212
4150.0 0.0032274
4170.0 0.0034257
4190.0 0.0037164
4210.0 0.0037061
4230.0 0.0035847
4250.0 0.0035542
4270.0 0.0036352
4290.0 0.0038502
4310.0 0.0040536
4330.0 0.0038922
4350.0 0.0034304
4370.0 0.0030339
4390.0 0.0027022
4410.0 0.0024044
4430.0 0.0023485
4450.0 0.0024862
4470.0 0.0026255
4490.0 0.0028139
4510.0 0.003221
4530.0 0.0041069
4550.0 0.0053808
4570.0 0.006209
4590.0 0.0067045
4610.0 0.0075309
4630.0 0.008188
4650.0 0.007784
4670.0 0.0065436
4690.0 0.0053889
4710.0 0.0047575
4730.0 0.0044733
4750.0 0.0041235
4770.0 0.0038356
4790.0 0.0040124
4810.0 0.0043771
4830.0 0.0044699
4850.0 0.0042546
4870.0 0.0042615
4890.0 0.0045821
4910.0 0.0048726
4930.0 0.0049785
4950.0 0.0048951
4970.0 0.0046108
4990.0 0.0041586
5010.0 0.0037347
5030.0 0.0034435
5050.0 0.0032742
5070.0 0.0031479
5090.0 0.0030237
5110.0 0.0029781
5130.0 0.0029766
5150.0 0.0030567
5170.0 0.0033469
5190.0 0.0037701
5210.0 0.0042771
5230.0 0.0046736
5250.0 0.0049465
5270.0 0.0052778
5290.0 0.0056689
5310.0 0.0058778
5330.0 0.0057799
5350.0 0.0055363
5370.0 0.0055197
5390.0 0.0058512
5410.0 0.0063766
5430.0 0.0068169
5450.0 0.0070708
5470.0 0.0071347
5490.0 0.0070229
5510.0 0.0068942
5530.0 0.0068275
5550.0 0.0068019
5570.0 0.0067374
5590.0 0.0066086
5610.0 0.0064031
5630.0 0.0060437
5650.0 0.0055666
5670.0 0.005209
5690.0 0.0050633
5710.0 0.0050135
5730.0 0.0049378
5750.0 0.004859
5770.0 0.0048203
5790.0 0.0048534
5810.0 0.0048626
5830.0 0.0048911
5850.0 0.0049282
5870.0 0.004844
5890.0 0.0046953
5910.0 0.004485
5930.0 0.004096
5950.0 0.0036965
5970.0 0.0035007
5990.0 0.003506
6010.0 0.0035239
6030.0 0.0034089
6050.0 0.0033003
6070.0 0.0034269
6090.0 0.0036903
6110.0 0.0038434
6130.0 0.0037834
6150.0 0.0036281
6170.0 0.0035215
6190.0 0.0034318
6210.0 0.003266
6230.0 0.0030194
6250.0 0.0028403
6270.0 0.0028036
6290.0 0.0028065
6310.0 0.0029217
6330.0 0.0031875
6350.0 0.0035075
6370.0 0.0037135
6390.0 0.0038255
6410.0 0.0039435
6430.0 0.0040361
6450.0 0.0041209
6470.0 0.0042196
6490.0 0.0043208
6510.0 0.0044021
6530.0 0.0044314
6550.0 0.0044302
6570.0 0.0043315
6590.0 0.0041261
6610.0 0.0039588
6630.0 0.0038501
6650.0 0.0037088
6670.0 0.003521
6690.0 0.0033621
6710.0 0.0032781
6730.0 0.0032069
6750.0 0.003144
6770.0 0.0031168
6790.0 0.0030904
6810.0 0.0030207
6830.0 0.0029613
6850.0 0.0030126
6870.0 0.0030576
6890.0 0.0030134
6910.0 0.0029683
6930.0 0.002933
6950.0 0.0028663
6970.0 0.0027645
6990.0 0.002669
7010.0 0.0026099
7030.0 0.0025557
7050.0 0.0024392
7070.0 0.0022895
7090.0 0.002251
7110.0 0.0023359
7130.0 0.0024694
7150.0 0.0025914
7170.0 0.0026858
7190.0 0.0027092
7210.0 0.0026315
7230.0 0.0025799
7250.0 0.0026126
7270.0 0.0026004
7290.0 0.0025678
7310.0 0.0025912
7330.0 0.002679
7350.0 0.0028004
7370.0 0.0028768
7390.0 0.0029053
7410.0 0.0029049
7430.0 0.0028475
7450.0 0.0027551
7470.0 0.0026712
7490.0 0.0025728
7510.0 0.0024842
7530.0 0.0024528
7550.0 0.0024449
7570.0 0.0024412
7590.0 0.0024597
7610.0 0.0024549
7630.0 0.0024485
7650.0 0.0025121
7670.0 0.0026096
7690.0 0.002705
7710.0 0.0027818
7730.0 0.0028514
7750.0 0.0029274
7770.0 0.0030001
7790.0 0.0030606
7810.0 0.0030803
7830.0 0.0030251
7850.0 0.0029195
7870.0 0.0027881
7890.0 0.0026597
7910.0 0.0025966
7930.0 0.0025525
7950.0 0.0024942
7970.0 0.0024365
7990.0 0.0024157
8010.0 0.0022721
8030.0 0.002251
8050.0 0.0022258
8070.0 0.002189
8090.0 0.0021539
8110.0 0.0021437
8130.0 0.0021458
8150.0 0.0021305
8170.0 0.0021059
8190.0 0.0020415
8210.0 0.0019225
8230.0 0.001807
8250.0 0.001747
8270.0 0.0016793
8290.0 0.0015729
8310.0 0.00148
8330.0 0.0014237
8350.0 0.00138
8370.0 0.001394
8390.0 0.0014744
8410.0 0.0015684
8430.0 0.0016721
8450.0 0.001795
8470.0 0.0018895
8490.0 0.0019855
8510.0 0.0020734
8530.0 0.0021585
8550.0 0.0022286
8570.0 0.0022785
8590.0 0.0023178
8610.0 0.0023685
8630.0 0.0023809
8650.0 0.0023328
8670.0 0.0023325
8690.0 0.0023949
8710.0 0.0024728
8730.0 0.0024876
8750.0 0.0024378
8770.0 0.0024254
8790.0 0.0024161
8810.0 0.0023557
8830.0 0.0021853
8850.0 0.0019772
8870.0 0.0018268
8890.0 0.0017626
8910.0 0.0016843
8930.0 0.0015645
8950.0 0.0014697
8970.0 0.0014423
8990.0 0.0014564
9010.0 0.0014552
9030.0 0.0014415
9050.0 0.0014305
9070.0 0.0014224
9090.0 0.0014149
9110.0 0.0014075
9130.0 0.0014001
9150.0 0.0013928
9170.0 0.0013855
9190.0 0.0013784
9210.0 0.0013716
9230.0 0.0013643
9250.0 0.0013572
9270.0 0.0013502
9290.0 0.0013433
9310.0 0.0013364
9330.0 0.0013296
9350.0 0.0013229
9370.0 0.0013162
9390.0 0.0013096
9410.0 0.001303
9430.0 0.0012963
9450.0 0.0012887
9470.0 0.0012814
9490.0 0.0012761
9510.0 0.0012703
9530.0 0.0012645
9550.0 0.0012585
9570.0 0.0012524
9590.0 0.0012464
9610.0 0.0012403
9630.0 0.0012343
9650.0 0.0012283
9670.0 0.0012224
9690.0 0.0012165
9710.0 0.0012106
9730.0 0.0012048
9750.0 0.0011991
9770.0 0.0011932
9790.0 0.0011874
9810.0 0.0011818
9830.0 0.001176
9850.0 0.00117
9870.0 0.0011645
9890.0 0.001159
9910.0 0.0011534
9930.0 0.0011478
9950.0 0.0011417
9970.0 0.0011362
9990.0 0.0011306
10010.0 0.0011248
10030.0 0.0011191
10050.0 0.0011138
10070.0 0.0011084
10090.0 0.001103
10110.0 0.001097
10130.0 0.0010889
10150.0 0.0010837
10170.0 0.001079
10190.0 0.0010737
10210.0 0.0010685
10230.0 0.0010632
10250.0 0.0010574
10270.0 0.0010516
10290.0 0.0010461
10310.0 0.0010402
10330.0 0.001034
10350.0 0.0010281
10370.0 0.0010223
10390.0 0.0010161
10410.0 0.0010099
10430.0 0.001004
10450.0 0.00099784
10470.0 0.00099142
10490.0 0.00098524
10510.0 0.00097905
10530.0 0.0009723
10550.0 0.00096573
10570.0 0.00095941
10590.0 0.00095276
10610.0 0.0009459
10630.0 0.00093934
10650.0 0.00093267
10670.0 0.00092552
10690.0 0.00091851
10710.0 0.00091166
10730.0 0.00090445
10750.0 0.0008969
10770.0 0.00088985
10790.0 0.00088261
10810.0 0.00087499
10830.0 0.00086747
10850.0 0.00086018
10870.0 0.00085226
10890.0 0.0008443
10910.0 0.00083664
10930.0 0.00082884
10950.0 0.00082069
10970.0 0.00081276
10990.0 0.00080519
11010.0 0.00077265
11030.0 0.00076419
11050.0 0.0007563
11070.0 0.00074859
11090.0 0.00074072
11110.0 0.00073362
11130.0 0.00072695
11150.0 0.0007204
11170.0 0.00071423
11190.0 0.00070874
11210.0 0.00070351
11230.0 0.00069855
11250.0 0.0006942
11270.0 0.00069031
11290.0 0.00068664
11310.0 0.00068335
11330.0 0.00068057
11350.0 0.00067796
11370.0 0.00067549
11390.0 0.00067324
11410.0 0.00067109
11430.0 0.0006688
11450.0 0.00066647
11470.0 0.00066407
11490.0 0.00066141
11510.0 0.00065838
11530.0 0.00065518
11550.0 0.00065168
11570.0 0.00064766
11590.0 0.00064329
11610.0 0.00063866
11630.0 0.00063345
11650.0 0.00062765
11670.0 0.00062165
11690.0 0.00061521
11710.0 0.00060807
11730.0 0.0006005
11750.0 0.00059276
11770.0 0.00058425
11790.0 0.00057513
11810.0 0.00056585
11830.0 0.00055617
11850.0 0.0005456
11870.0 0.000535
11890.0 0.00052452
11910.0 0.00051358
11930.0 0.00050246
11950.0 0.00049182
11970.0 0.00048124
11990.0 0.00047046
12010.0 0.00046028
12030.0 0.00045067
12050.0 0.0004412
12070.0 0.00043202
12090.0 0.00042385
12110.0 0.00041605
12130.0 0.00040857
12150.0 0.00040179
12170.0 0.00039573
12190.0 0.00038993
12210.0 0.00038482
12230.0 0.00038049
12250.0 0.00037673
12270.0 0.00037353
12290.0 0.00037105
12310.0 0.0003692
12330.0 0.00036787
12350.0 0.00036709
12370.0 0.00036677
12390.0 0.00036685
12410.0 0.00036734
12430.0 0.00036805
12450.0 0.00036895
12470.0 0.00037006
12490.0 0.00037127
12510.0 0.00037245
12530.0 0.00037369
12550.0 0.00037496
12570.0 0.00037608
12590.0 0.00037706
12610.0 0.00037795
12630.0 0.00037858
12650.0 0.00037887
12670.0 0.00037887
12690.0 0.00037849
12710.0 0.00037766
12730.0 0.00037641
12750.0 0.00037464
12770.0 0.00037239
12790.0 0.00036974
12810.0 0.00036662
12830.0 0.00036303
12850.0 0.00035926
12870.0 0.00035527
12890.0 0.00035097
12910.0 0.00034662
12930.0 0.00034236
12950.0 0.00033798
12970.0 0.00033362
12990.0 0.00032955
13010.0 0.00032562
13030.0 0.00032175
13050.0 0.00031811
13070.0 0.00031474
13090.0 0.00031143
13110.0 0.00030827
13130.0 0.00030535
13150.0 0.00030257
13170.0 0.00029982
13190.0 0.00029729
13210.0 0.00029494
13230.0 0.00029266
13250.0 0.00029049
13270.0 0.0002885
13290.0 0.00028657
13310.0 0.00028468
13330.0 0.0002829
13350.0 0.00028118
13370.0 0.00027945
13390.0 0.00027768
13410.0 0.00027596
13430.0 0.00027417
13450.0 0.00027227
13470.0 0.00027031
13490.0 0.00026829
13510.0 0.00026605
13530.0 0.0002637
13550.0 0.00026131
13570.0 0.00025878
13590.0 0.00025608
13610.0 0.00025336
13630.0 0.00025064
13650.0 0.00024775
13670.0 0.00024484
13690.0 0.000242
13710.0 0.00023912
13730.0 0.00023611
13750.0 0.00023328
13770.0 0.00023049
13790.0 0.00022765
13810.0 0.00022487
13830.0 0.00022225
13850.0 0.00021961
13870.0 0.00021698
13890.0 0.00021453
13910.0 0.00021218
13930.0 0.00020985
13950.0 0.00020766
13970.0 0.00020569
13990.0 0.00020379
14010.0 0.000202
14030.0 0.00020039
14050.0 0.00019892
14070.0 0.00019749
14090.0 0.00019621
14110.0 0.00019505
14130.0 0.00019395
14150.0 0.00019291
14170.0 0.00019196
14190.0 0.00019106
14210.0 0.00019016
14230.0 0.0001893
14250.0 0.00018849
14270.0 0.00018765
14290.0 0.00018681
14310.0 0.00018601
14330.0 0.0001852
14350.0 0.00018437
14370.0 0.00018354
14390.0 0.00018274
14410.0 0.00018191
14430.0 0.00018107
14450.0 0.00018027
14470.0 0.00017948
14490.0 0.00017865
14510.0 0.00017787
14530.0 0.00017712
14550.0 0.00017634
14570.0 0.00017554
14590.0 0.00017477
14610.0 0.00017396
14630.0 0.00017309
14650.0 0.00017222
14670.0 0.00017136
14690.0 0.00017047
14710.0 0.00016962
14730.0 0.0001689
14750.0 0.0001683
14770.0 0.00016787
14790.0 0.00016771
14810.0 0.00016786
14830.0 0.0001684
14850.0 0.00016936
14870.0 0.00017072
14890.0 0.0001725
14910.0 0.00017472
14930.0 0.00017713
14950.0 0.00017962
14970.0 0.00018218
14990.0 0.00018453
15010.0 0.00018652
15030.0 0.00018818
15050.0 0.0001895
15070.0 0.00019042
15090.0 0.0001911
15110.0 0.00019162
15130.0 0.00019202
15150.0 0.00019236
15170.0 0.00019268
15190.0 0.00019299
15210.0 0.0001933
15230.0 0.00019362
15250.0 0.00019394
15270.0 0.00019426
15290.0 0.0001946
15310.0 0.00019494
15330.0 0.00019529
15350.0 0.00019565
15370.0 0.00019601
15390.0 0.00019638
15410.0 0.00019676
15430.0 0.00019714
15450.0 0.00019753
15470.0 0.00019793
15490.0 0.00019833
15510.0 0.00019874
15530.0 0.00019915
15550.0 0.00019958
15570.0 0.0002
15590.0 0.00020044
15610.0 0.00020087
15630.0 0.00020132
15650.0 0.00020177
15670.0 0.00020222
15690.0 0.00020269
15710.0 0.00020315
15730.0 0.00020362
15750.0 0.0002041
15770.0 0.00020458
15790.0 0.00020507
15810.0 0.00020556
15830.0 0.00020605
15850.0 0.00020655
15870.0 0.00020706
15890.0 0.00020756
15910.0 0.00020808
15930.0 0.00020859
15950.0 0.00020911
15970.0 0.00020964
15990.0 0.00021016
16010.0 0.00021069
16030.0 0.00021122
16050.0 0.00021176
16070.0 0.0002123
16090.0 0.00021284
16110.0 0.00021338
16130.0 0.00021393
16150.0 0.00021448
16170.0 0.00021503
16190.0 0.00021558
16210.0 0.00021613
16230.0 0.00021669
16250.0 0.00021724
16270.0 0.0002178
16290.0 0.00021836
16310.0 0.00021892
16330.0 0.00021948
16350.0 0.00022004
16370.0 0.0002206
16390.0 0.00022116
16410.0 0.00022172
16430.0 0.00022228
16450.0 0.00022283
16470.0 0.00022339
16490.0 0.00022395
16510.0 0.00022451
16530.0 0.00022506
16550.0 0.00022561
16570.0 0.00022616
16590.0 0.00022671
16610.0 0.00022726
16630.0 0.00022781
16650.0 0.00022835
16670.0 0.00022889
16690.0 0.00022943
16710.0 0.00022996
16730.0 0.00023049
16750.0 0.00023101
16770.0 0.00023154
16790.0 0.00023205
16810.0 0.00023257
16830.0 0.00023308
16850.0 0.00023358
16870.0 0.00023408
16890.0 0.00023458
16910.0 0.00023507
16930.0 0.00023555
16950.0 0.00023603
16970.0 0.0002365
16990.0 0.00023697
17010.0 0.00023743
17030.0 0.00023788
17050.0 0.00023833
17070.0 0.00023877
17090.0 0.0002392
17110.0 0.00023963
17130.0 0.00024005
17150.0 0.00024046
17170.0 0.00024086
17190.0 0.00024126
17210.0 0.00024164
17230.0 0.00024202
17250.0 0.00024239
17270.0 0.00024275
17290.0 0.0002431
17310.0 0.00024344
17330.0 0.00024378
17350.0 0.0002441
17370.0 0.00024441
17390.0 0.00024472
17410.0 0.00024501
17430.0 0.0002453
17450.0 0.00024557
17470.0 0.00024583
17490.0 0.00024608
17510.0 0.00024632
17530.0 0.00024656
17550.0 0.00024677
17570.0 0.00024698
17590.0 0.00024718
17610.0 0.00024736
17630.0 0.00024754
17650.0 0.0002477
17670.0 0.00024785
17690.0 0.00024799
17710.0 0.00024811
17730.0 0.00024823
17750.0 0.00024833
17770.0 0.00024841
17790.0 0.00024849
17810.0 0.00024856
17830.0 0.0002486
17850.0 0.00024864
17870.0 0.00024867
17890.0 0.00024868
17910.0 0.00024868
17930.0 0.00024866
17950.0 0.00024864
17970.0 0.0002486
17990.0 0.00024854
18010.0 0.00024848
18030.0 0.00024839
18050.0 0.0002483
18070.0 0.00024819
18090.0 0.00024807
18110.0 0.00024793
18130.0 0.00024779
18150.0 0.00024762
18170.0 0.00024745
18190.0 0.00024726
18210.0 0.00024706
18230.0 0.00024684
18250.0 0.00024661
18270.0 0.00024636
18290.0 0.00024611
18310.0 0.00024583
18330.0 0.00024555
18350.0 0.00024525
18370.0 0.00024494
18390.0 0.00024461
18410.0 0.00024427
18430.0 0.00024392
18450.0 0.00024355
18470.0 0.00024317
18490.0 0.00024278
18510.0 0.00024237
18530.0 0.00024195
18550.0 0.00024152
18570.0 0.00024108
18590.0 0.00024062
18610.0 0.00024015
18630.0 0.00023966
18650.0 0.00023916
18670.0 0.00023865
18690.0 0.00023813
18710.0 0.0002376
18730.0 0.00023705
18750.0 0.00023649
18770.0 0.00023592
18790.0 0.00023533
18810.0 0.00023474
18830.0 0.00023413
18850.0 0.00023351
18870.0 0.00023288
18890.0 0.00023224
18910.0 0.00023158
18930.0 0.00023092
18950.0 0.00023024
18970.0 0.00022955
18990.0 0.00022885
19010.0 0.00022814
19030.0 0.00022742
19050.0 0.00022669
19070.0 0.00022595
19090.0 0.0002252
19110.0 0.00022444
19130.0 0.00022367
19150.0 0.00022289
19170.0 0.0002221
19190.0 0.0002213
19210.0 0.00022049
19230.0 0.00021967
19250.0 0.00021885
19270.0 0.00021801
19290.0 0.00021717
19310.0 0.00021632
19330.0 0.00021546
19350.0 0.00021459
19370.0 0.00021371
19390.0 0.00021283
19410.0 0.00021194
19430.0 0.00021104
19450.0 0.00021013
19470.0 0.00020922
19490.0 0.00020829
19510.0 0.00020737
19530.0 0.00020643
19550.0 0.00020549
19570.0 0.00020455
19590.0 0.0002036
19610.0 0.00020264
19630.0 0.00020167
19650.0 0.0002007
19670.0 0.00019973
19690.0 0.00019875
19710.0 0.00019776
19730.0 0.00019678
19750.0 0.00019578
19770.0 0.00019478
19790.0 0.00019378
19810.0 0.00019277
19830.0 0.00019176
19850.0 0.00019073
19870.0 0.00018969
19890.0 0.00018861
19910.0 0.00018746
19930.0 0.00018622
19950.0 0.00018485
19970.0 0.00018325
19990.0 0.00018141
20010.0 0.00017934
20030.0 0.00017696
20050.0 0.0001743
20070.0 0.00017147
20090.0 0.00016852
20110.0 0.00016534
20130.0 0.00016217
20150.0 0.00015908
20170.0 0.00015595
20190.0 0.00015282
20210.0 0.00014984
20230.0 0.00014693
20250.0 0.00014401
20270.0 0.00014122
20290.0 0.00013857
20310.0 0.00013597
20330.0 0.00013342
20350.0 0.0001311
20370.0 0.00012886
20390.0 0.0001267
20410.0 0.00012469
20430.0 0.00012284
20450.0 0.00012105
20470.0 0.00011939
20490.0 0.00011788
20510.0 0.00011648
20530.0 0.00011516
20550.0 0.00011397
20570.0 0.00011288
20590.0 0.00011187
20610.0 0.00011093
20630.0 0.00011008
20650.0 0.00010928
20670.0 0.00010853
20690.0 0.00010782
20710.0 0.00010714
20730.0 0.00010648
20750.0 0.00010583
20770.0 0.00010517
20790.0 0.00010451
20810.0 0.00010383
20830.0 0.00010313
20850.0 0.00010239
20870.0 0.00010163
20890.0 0.00010081
20910.0 9.9965e-05
20930.0 9.9072e-05
20950.0 9.8129e-05
20970.0 9.7151e-05
20990.0 9.6138e-05
21010.0 9.5069e-05
21030.0 9.3967e-05
21050.0 9.2848e-05
21070.0 9.1692e-05
21090.0 9.0494e-05
21110.0 8.9303e-05
21130.0 8.8103e-05
21150.0 8.6872e-05
21170.0 8.5641e-05
21190.0 8.4431e-05
21210.0 8.32e-05
21230.0 8.1961e-05
21250.0 8.0757e-05
21270.0 7.9568e-05
21290.0 7.8372e-05
21310.0 7.7201e-05
21330.0 7.6076e-05
21350.0 7.4954e-05
21370.0 7.385e-05
21390.0 7.2793e-05
21410.0 7.1768e-05
21430.0 7.0748e-05
21450.0 6.9781e-05
21470.0 6.8862e-05
21490.0 6.7969e-05
21510.0 6.7111e-05
21530.0 6.6305e-05
21550.0 6.5533e-05
21570.0 6.4788e-05
21590.0 6.4085e-05
21610.0 6.342e-05
21630.0 6.278e-05
21650.0 6.2165e-05
21670.0 6.1583e-05
21690.0 6.102e-05
21710.0 6.0473e-05
21730.0 5.9942e-05
21750.0 5.9424e-05
21770.0 5.8913e-05
21790.0 5.8408e-05
21810.0 5.7908e-05
21830.0 5.7411e-05
21850.0 5.6913e-05
21870.0 5.6415e-05
21890.0 5.5918e-05
21910.0 5.5415e-05
21930.0 5.491e-05
21950.0 5.4404e-05
21970.0 5.3892e-05
21990.0 5.3371e-05
22010.0 5.2849e-05
22030.0 5.2322e-05
22050.0 5.1785e-05
22070.0 5.124e-05
22090.0 5.0694e-05
22110.0 5.0136e-05
22130.0 4.9564e-05
22150.0 4.8988e-05
22170.0 4.8406e-05
22190.0 4.7804e-05
22210.0 4.7191e-05
22230.0 4.6581e-05
22250.0 4.5956e-05
22270.0 4.5316e-05
22290.0 4.4677e-05
22310.0 4.4035e-05
22330.0 4.337e-05
22350.0 4.2704e-05
22370.0 4.2044e-05
22390.0 4.1373e-05
22410.0 4.0686e-05
22430.0 4.0017e-05
22450.0 3.9349e-05
22470.0 3.8669e-05
22490.0 3.7995e-05
22510.0 3.7338e-05
22530.0 3.6671e-05
22550.0 3.6003e-05
22570.0 3.5361e-05
22590.0 3.4729e-05
22610.0 3.4097e-05
22630.0 3.3484e-05
22650.0 3.2901e-05
22670.0 3.2322e-05
22690.0 3.1758e-05
22710.0 3.1225e-05
22730.0 3.0713e-05
22750.0 3.0207e-05
22770.0 2.9735e-05
22790.0 2.9291e-05
22810.0 2.8862e-05
22830.0 2.8454e-05
22850.0 2.8075e-05
22870.0 2.7714e-05
22890.0 2.7366e-05
22910.0 2.704e-05
22930.0 2.6734e-05
22950.0 2.6439e-05
22970.0 2.6156e-05
22990.0 2.5891e-05
