#lamb flux
1010.0 0.00051322
1030.0 0.00067797
1050.0 0.00088758
1070.0 0.0011492
1090.0 0.0014766
1110.0 0.0018566
1130.0 0.0022872
1150.0 0.0027821
1170.0 0.0033395
1190.0 0.0039264
1210.0 0.0045591
1230.0 0.0052359
1250.0 0.0059226
1270.0 0.0065977
1290.0 0.0072806
1310.0 0.0079283
1330.0 0.0085007
1350.0 0.009005
1370.0 0.0094359
1390.0 0.0097534
1410.0 0.0099493
1430.0 0.010055
1450.0 0.010051
1470.0 0.0099307
1490.0 0.0097238
1510.0 0.0094617
1530.0 0.0091167
1550.0 0.0087197
1570.0 0.0082988
1590.0 0.0078578
1610.0 0.0073996
1630.0 0.006954
1650.0 0.0065266
1670.0 0.0061125
1690.0 0.0057223
1710.0 0.005367
1730.0 0.0050427
1750.0 0.0047431
1770.0 0.0044797
1790.0 0.0042498
1810.0 0.0040468
1830.0 0.0038716
1850.0 0.0037295
1870.0 0.0036109
1890.0 0.0035143
1910.0 0.0034427
1930.0 0.0033948
1950.0 0.0033646
1970.0 0.0033538
1990.0 0.0033647
2010.0 0.0033931
2030.0 0.0034373
2050.0 0.0035012
2070.0 0.0035842
2090.0 0.0036807
2110.0 0.0037942
2130.0 0.0039269
2150.0 0.0040756
2170.0 0.0042386
2190.0 0.0044214
2210.0 0.0046223
2230.0 0.0048379
2250.0 0.0050706
2270.0 0.0053245
2290.0 0.0055936
2310.0 0.0058765
2330.0 0.006179
2350.0 0.0064988
2370.0 0.0068303
2390.0 0.0071772
2410.0 0.0075421
2430.0 0.0079162
2450.0 0.0082996
2470.0 0.0086982
2490.0 0.0091143
2510.0 0.0095449
2530.0 0.010013
2550.0 0.01055
2570.0 0.011186
2590.0 0.011961
2610.0 0.013002
2630.0 0.014372
2650.0 0.016083
2670.0 0.018252
2690.0 0.020971
2710.0 0.024073
2730.0 0.027447
2750.0 0.031192
2770.0 0.034973
2790.0 0.038485
2810.0 0.041724
2830.0 0.044651
2850.0 0.046919
2870.0 0.048715
2890.0 0.050185
2910.0 0.051336
2930.0 0.0522
2950.0 0.052945
2970.0 0.05359
2990.0 0.054092
3010.0 0.054499
3030.0 0.054873
3050.0 0.055176
3070.0 0.055346
3090.0 0.05548
3110.0 0.05557
3130.0 0.055589
3150.0 0.055293
3170.0 0.055214
3190.0 0.055291
3210.0 0.055673
3230.0 0.056654
3250.0 0.058806
3270.0 0.061828
3290.0 0.064978
3310.0 0.068082
3330.0 0.068961
3350.0 0.069133
3370.0 0.069188
3390.0 0.069088
3410.0 0.068712
3430.0 0.068138
3450.0 0.067712
3470.0 0.067871
3490.0 0.067202
3510.0 0.064176
3530.0 0.060315
3550.0 0.059531
3570.0 0.070364
3590.0 0.081901
3610.0 0.090525
3630.0 0.10274
3650.0 0.10073
3670.0 0.087375
3690.0 0.075007
3710.0 0.070285
3730.0 0.07242
3750.0 0.074034
3770.0 0.075668
3790.0 0.07719
3810.0 0.07956
3830.0 0.073421
3850.0 0.064892
3870.0 0.060777
3890.0 0.064397
3910.0 0.066888
3930.0 0.067102
3950.0 0.070481
3970.0 0.07478
3990.0 0.075614
4010.0 0.077012
4030.0 0.074555
4050.0 0.072503
4070.0 0.071198
4090.0 0.07185
4110.0 0.072688
4130.0 0.071207
4150.0 0.068601
4170.0 0.06778
4190.0 0.067282
4210.0 0.062903
4230.0 0.058126
4250.0 0.052433
4270.0 0.04718
4290.0 0.045407
4310.0 0.044584
4330.0 0.046071
4350.0 0.051084
4370.0 0.053689
4390.0 0.05939
4410.0 0.06399
4430.0 0.065888
4450.0 0.06152
4470.0 0.056705
4490.0 0.055523
4510.0 0.054698
4530.0 0.054723
4550.0 0.054586
4570.0 0.055478
4590.0 0.057525
4610.0 0.058836
4630.0 0.060136
4650.0 0.060752
4670.0 0.060462
4690.0 0.057075
4710.0 0.053968
4730.0 0.051501
4750.0 0.050074
4770.0 0.048262
4790.0 0.0484
4810.0 0.047587
4830.0 0.046495
4850.0 0.048034
4870.0 0.047036
4890.0 0.046985
4910.0 0.046517
4930.0 0.044262
4950.0 0.038671
4970.0 0.035847
4990.0 0.034006
5010.0 0.031709
5030.0 0.03172
5050.0 0.033565
5070.0 0.034789
5090.0 0.036321
5110.0 0.03721
5130.0 0.037374
5150.0 0.037999
5170.0 0.036842
5190.0 0.036721
5210.0 0.037169
5230.0 0.035826
5250.0 0.036579
5270.0 0.038569
5290.0 0.037974
5310.0 0.036147
5330.0 0.034999
5350.0 0.0329
5370.0 0.032163
5390.0 0.031605
5410.0 0.03123
5430.0 0.031577
5450.0 0.03054
5470.0 0.030499
5490.0 0.033428
5510.0 0.034104
5530.0 0.033909
5550.0 0.03386
5570.0 0.034444
5590.0 0.03475
5610.0 0.034172
5630.0 0.033622
5650.0 0.032995
5670.0 0.032565
5690.0 0.031783
5710.0 0.031097
5730.0 0.031344
5750.0 0.030436
5770.0 0.029233
5790.0 0.028284
5810.0 0.026756
5830.0 0.027409
5850.0 0.027955
5870.0 0.02778
5890.0 0.027915
5910.0 0.028897
5930.0 0.028987
5950.0 0.02898
5970.0 0.029196
5990.0 0.029466
6010.0 0.028974
6030.0 0.028597
6050.0 0.028114
6070.0 0.027771
6090.0 0.028131
6110.0 0.027717
6130.0 0.026813
6150.0 0.026122
6170.0 0.025359
6190.0 0.023406
6210.0 0.023139
6230.0 0.023242
6250.0 0.022965
6270.0 0.023034
6290.0 0.023536
6310.0 0.024048
6330.0 0.024123
6350.0 0.023848
6370.0 0.023803
6390.0 0.022812
6410.0 0.022625
6430.0 0.022014
6450.0 0.021761
6470.0 0.02162
6490.0 0.0217
6510.0 0.021071
6530.0 0.020978
6550.0 0.020668
6570.0 0.020225
6590.0 0.020491
6610.0 0.020392
6630.0 0.020109
6650.0 0.019553
6670.0 0.019153
6690.0 0.018603
6710.0 0.01808
6730.0 0.017873
6750.0 0.017973
6770.0 0.018309
6790.0 0.017919
6810.0 0.017868
6830.0 0.017327
6850.0 0.016614
6870.0 0.016274
6890.0 0.016112
6910.0 0.016139
6930.0 0.015839
6950.0 0.016071
6970.0 0.015721
6990.0 0.015565
7010.0 0.015388
7030.0 0.015547
7050.0 0.015359
7070.0 0.01453
7090.0 0.013798
7110.0 0.013766
7130.0 0.013984
7150.0 0.014043
7170.0 0.014075
7190.0 0.013872
7210.0 0.014522
7230.0 0.014931
7250.0 0.015088
7270.0 0.014917
7290.0 0.015224
7310.0 0.014854
7330.0 0.0146
7350.0 0.014106
7370.0 0.014144
7390.0 0.014489
7410.0 0.013782
7430.0 0.014001
7450.0 0.013743
7470.0 0.014104
7490.0 0.01376
7510.0 0.013005
7530.0 0.013368
7550.0 0.01229
7570.0 0.012221
7590.0 0.012018
7610.0 0.012635
7630.0 0.012499
7650.0 0.012987
7670.0 0.01204
7690.0 0.011838
7710.0 0.012068
7730.0 0.012886
7750.0 0.012416
7770.0 0.013121
7790.0 0.013283
7810.0 0.013185
7830.0 0.014069
7850.0 0.013355
7870.0 0.014315
7890.0 0.013819
7910.0 0.013632
7930.0 0.013134
7950.0 0.012942
7970.0 0.013272
7990.0 0.013034
8010.0 0.012512
8030.0 0.012393
8050.0 0.012141
8070.0 0.011927
8090.0 0.011089
8110.0 0.011141
8130.0 0.011769
8150.0 0.01217
8170.0 0.01223
8190.0 0.012568
8210.0 0.012352
8230.0 0.012042
8250.0 0.012002
8270.0 0.011772
8290.0 0.011532
8310.0 0.010975
8330.0 0.011004
8350.0 0.011122
8370.0 0.011192
8390.0 0.011211
8410.0 0.011055
8430.0 0.010947
8450.0 0.010958
8470.0 0.011296
8490.0 0.011432
8510.0 0.011039
8530.0 0.010621
8550.0 0.010612
8570.0 0.010407
8590.0 0.010168
8610.0 0.010361
8630.0 0.010307
8650.0 0.010191
8670.0 0.010117
8690.0 0.010018
8710.0 0.0095636
8730.0 0.0096263
8750.0 0.0093734
8770.0 0.0094014
8790.0 0.0092317
8810.0 0.0090225
8830.0 0.0090689
8850.0 0.0090071
8870.0 0.0085875
8890.0 0.0083308
8910.0 0.0080031
8930.0 0.0075539
8950.0 0.0074208
8970.0 0.0071048
8990.0 0.0070062
9010.0 0.0068097
9030.0 0.0067408
9050.0 0.0066975
9070.0 0.0066551
9090.0 0.0066123
9110.0 0.0065684
9130.0 0.0065247
9150.0 0.0064818
9170.0 0.0064383
9190.0 0.0063946
9210.0 0.0063506
9230.0 0.0063064
9250.0 0.006262
9270.0 0.0062175
9290.0 0.0061728
9310.0 0.0061286
9330.0 0.006085
9350.0 0.0060413
9370.0 0.0059975
9390.0 0.0059539
9410.0 0.0059102
9430.0 0.0058665
9450.0 0.0058229
9470.0 0.0057835
9490.0 0.0057419
9510.0 0.0056964
9530.0 0.0056516
9550.0 0.0056077
9570.0 0.0055645
9590.0 0.0055215
9610.0 0.0054793
9630.0 0.0054376
9650.0 0.0053961
9670.0 0.0053546
9690.0 0.0053136
9710.0 0.0052729
9730.0 0.0052323
9750.0 0.005192
9770.0 0.0051523
9790.0 0.0051127
9810.0 0.0050732
9830.0 0.0050341
9850.0 0.0049916
9870.0 0.0049496
9890.0 0.0049149
9910.0 0.0048795
9930.0 0.0048367
9950.0 0.0047997
9970.0 0.0047663
9990.0 0.0047319
10010.0 0.0046979
10030.0 0.0046634
10050.0 0.0046285
10070.0 0.0045941
10090.0 0.0045603
10110.0 0.0045263
10130.0 0.0044927
10150.0 0.00446
10170.0 0.0044275
10190.0 0.004395
10210.0 0.0043635
10230.0 0.0043325
10250.0 0.0043014
10270.0 0.0042709
10290.0 0.0042412
10310.0 0.0042115
10330.0 0.0041819
10350.0 0.0041533
10370.0 0.004125
10390.0 0.0040967
10410.0 0.0040674
10430.0 0.0040384
10450.0 0.0040134
10470.0 0.0039877
10490.0 0.0039626
10510.0 0.0039376
10530.0 0.0039122
10550.0 0.0038874
10570.0 0.0038634
10590.0 0.0038394
10610.0 0.0038156
10630.0 0.0037927
10650.0 0.0037701
10670.0 0.0037472
10690.0 0.0037251
10710.0 0.0037037
10730.0 0.0036822
10750.0 0.0036606
10770.0 0.0036403
10790.0 0.0036202
10810.0 0.0036
10830.0 0.0035804
10850.0 0.0035615
10870.0 0.0035422
10890.0 0.0035233
10910.0 0.0035052
10930.0 0.0034873
10950.0 0.0034693
10970.0 0.0034518
10990.0 0.003435
11010.0 0.0038539
11030.0 0.0038321
11050.0 0.0038087
11070.0 0.0037832
11090.0 0.0037551
11110.0 0.0037269
11130.0 0.0036983
11150.0 0.0036685
11170.0 0.0036383
11190.0 0.0036089
11210.0 0.0035789
11230.0 0.0035484
11250.0 0.0035188
11270.0 0.0034901
11290.0 0.0034611
11310.0 0.0034329
11330.0 0.0034071
11350.0 0.0033819
11370.0 0.0033575
11390.0 0.0033351
11410.0 0.0033143
11430.0 0.0032936
11450.0 0.0032745
11470.0 0.0032568
11490.0 0.0032396
11510.0 0.0032224
11530.0 0.0032064
11550.0 0.0031907
11570.0 0.0031745
11590.0 0.0031585
11610.0 0.0031428
11630.0 0.0031264
11650.0 0.0031092
11670.0 0.0030925
11690.0 0.0030755
11710.0 0.0030575
11730.0 0.0030395
11750.0 0.003022
11770.0 0.0030035
11790.0 0.0029846
11810.0 0.0029664
11830.0 0.0029482
11850.0 0.0029292
11870.0 0.0029111
11890.0 0.0028942
11910.0 0.0028773
11930.0 0.0028609
11950.0 0.0028462
11970.0 0.0028324
11990.0 0.002819
12010.0 0.0028074
12030.0 0.0027974
12050.0 0.0027884
12070.0 0.0027807
12090.0 0.002775
12110.0 0.0027705
12130.0 0.0027672
12150.0 0.0027652
12170.0 0.0027644
12190.0 0.0027643
12210.0 0.002765
12230.0 0.0027663
12250.0 0.0027677
12270.0 0.0027691
12290.0 0.0027703
12310.0 0.0027711
12330.0 0.002771
12350.0 0.00277
12370.0 0.002768
12390.0 0.0027648
12410.0 0.0027597
12430.0 0.0027537
12450.0 0.0027464
12470.0 0.0027372
12490.0 0.0027264
12510.0 0.002715
12530.0 0.0027018
12550.0 0.0026868
12570.0 0.0026712
12590.0 0.0026547
12610.0 0.0026364
12630.0 0.0026171
12650.0 0.0025984
12670.0 0.0025784
12690.0 0.0025575
12710.0 0.0025372
12730.0 0.002517
12750.0 0.0024955
12770.0 0.0024747
12790.0 0.002455
12810.0 0.0024352
12830.0 0.0024153
12850.0 0.0023972
12870.0 0.0023801
12890.0 0.002363
12910.0 0.0023474
12930.0 0.0023334
12950.0 0.00232
12970.0 0.0023078
12990.0 0.0022977
13010.0 0.0022891
13030.0 0.0022817
13050.0 0.0022761
13070.0 0.0022721
13090.0 0.0022693
13110.0 0.0022676
13130.0 0.0022672
13150.0 0.0022675
13170.0 0.0022683
13190.0 0.0022695
13210.0 0.0022707
13230.0 0.0022718
13250.0 0.0022724
13270.0 0.0022725
13290.0 0.0022719
13310.0 0.0022703
13330.0 0.0022678
13350.0 0.0022644
13370.0 0.0022597
13390.0 0.0022536
13410.0 0.0022467
13430.0 0.0022385
13450.0 0.0022288
13470.0 0.002218
13490.0 0.0022065
13510.0 0.0021929
13530.0 0.0021784
13550.0 0.0021636
13570.0 0.0021477
13590.0 0.0021304
13610.0 0.0021131
13630.0 0.0020957
13650.0 0.0020769
13670.0 0.0020578
13690.0 0.002039
13710.0 0.0020195
13730.0 0.0019987
13750.0 0.0019789
13770.0 0.0019589
13790.0 0.0019381
13810.0 0.0019174
13830.0 0.0018974
13850.0 0.0018768
13870.0 0.0018559
13890.0 0.0018359
13910.0 0.0018162
13930.0 0.0017961
13950.0 0.0017765
13970.0 0.0017583
13990.0 0.00174
14010.0 0.001722
14030.0 0.0017051
14050.0 0.0016889
14070.0 0.0016724
14090.0 0.001657
14110.0 0.0016426
14130.0 0.0016283
14150.0 0.0016144
14170.0 0.0016015
14190.0 0.0015891
14210.0 0.0015766
14230.0 0.0015646
14250.0 0.0015532
14270.0 0.0015417
14290.0 0.0015302
14310.0 0.0015195
14330.0 0.0015088
14350.0 0.0014981
14370.0 0.0014879
14390.0 0.001478
14410.0 0.0014681
14430.0 0.0014584
14450.0 0.0014492
14470.0 0.0014401
14490.0 0.0014309
14510.0 0.0014221
14530.0 0.0014135
14550.0 0.0014049
14570.0 0.0013962
14590.0 0.0013877
14610.0 0.0013791
14630.0 0.0013702
14650.0 0.0013615
14670.0 0.0013527
14690.0 0.0013437
14710.0 0.0013344
14730.0 0.0013254
14750.0 0.0013162
14770.0 0.0013066
14790.0 0.0012971
14810.0 0.0012876
14830.0 0.0012775
14850.0 0.0012673
14870.0 0.0012573
14890.0 0.0012471
14910.0 0.0012367
14930.0 0.0012266
14950.0 0.0012169
14970.0 0.0012073
14990.0 0.0011983
15010.0 0.00119
15030.0 0.0011822
15050.0 0.0011748
15070.0 0.0011681
15090.0 0.0011618
15110.0 0.0011555
15130.0 0.0011494
15150.0 0.0011435
15170.0 0.0011375
15190.0 0.0011314
15210.0 0.0011255
15230.0 0.0011196
15250.0 0.0011135
15270.0 0.0011075
15290.0 0.0011016
15310.0 0.0010956
15330.0 0.0010896
15350.0 0.0010837
15370.0 0.0010778
15390.0 0.0010717
15410.0 0.0010657
15430.0 0.0010598
15450.0 0.0010539
15470.0 0.0010478
15490.0 0.0010419
15510.0 0.0010361
15530.0 0.0010301
15550.0 0.0010241
15570.0 0.0010183
15590.0 0.0010124
15610.0 0.0010064
15630.0 0.0010006
15650.0 0.00099473
15670.0 0.00098882
15690.0 0.00098299
15710.0 0.00097724
15730.0 0.0009714
15750.0 0.00096556
15770.0 0.00095983
15790.0 0.00095409
15810.0 0.00094825
15830.0 0.00094253
15850.0 0.00093689
15870.0 0.00093117
15890.0 0.00092547
15910.0 0.00091989
15930.0 0.00091428
15950.0 0.0009086
15970.0 0.00090302
15990.0 0.00089751
16010.0 0.00089193
16030.0 0.00088635
16050.0 0.00088093
16070.0 0.00087548
16090.0 0.00086999
16110.0 0.00086459
16130.0 0.00085926
16150.0 0.00085381
16170.0 0.00084844
16190.0 0.00084317
16210.0 0.00083789
16230.0 0.00083257
16250.0 0.00082736
16270.0 0.00082222
16290.0 0.00081699
16310.0 0.00081183
16330.0 0.00080676
16350.0 0.00080167
16370.0 0.00079651
16390.0 0.00079152
16410.0 0.00078656
16430.0 0.00078155
16450.0 0.00077659
16470.0 0.00077176
16490.0 0.00076685
16510.0 0.00076195
16530.0 0.00075716
16550.0 0.00075241
16570.0 0.0007476
16590.0 0.00074284
16610.0 0.00073822
16630.0 0.00073356
16650.0 0.00072889
16670.0 0.00072434
16690.0 0.00071982
16710.0 0.00071521
16730.0 0.00071071
16750.0 0.00070629
16770.0 0.00070184
16790.0 0.00069739
16810.0 0.00069307
16830.0 0.00068877
16850.0 0.00068443
16870.0 0.00068016
16890.0 0.00067599
16910.0 0.00067175
16930.0 0.00066752
16950.0 0.00066343
16970.0 0.00065934
16990.0 0.00065523
17010.0 0.0006512
17030.0 0.00064726
17050.0 0.00064326
17070.0 0.00063929
17090.0 0.00063542
17110.0 0.00063157
17130.0 0.00062765
17150.0 0.00062385
17170.0 0.00062013
17190.0 0.00061637
17210.0 0.00061263
17230.0 0.00060901
17250.0 0.00060537
17270.0 0.00060169
17290.0 0.00059813
17310.0 0.00059461
17330.0 0.00059106
17350.0 0.00058753
17370.0 0.00058414
17390.0 0.00058072
17410.0 0.00057729
17430.0 0.00057395
17450.0 0.00057067
17470.0 0.00056729
17490.0 0.000564
17510.0 0.0005608
17530.0 0.00055759
17550.0 0.00055436
17570.0 0.00055124
17590.0 0.00054816
17610.0 0.00054503
17630.0 0.00054196
17650.0 0.00053897
17670.0 0.00053596
17690.0 0.00053289
17710.0 0.00052999
17730.0 0.0005271
17750.0 0.00052417
17770.0 0.0005213
17790.0 0.00051853
17810.0 0.00051569
17830.0 0.00051286
17850.0 0.00051013
17870.0 0.00050743
17890.0 0.00050467
17910.0 0.00050197
17930.0 0.00049938
17950.0 0.00049675
17970.0 0.00049412
17990.0 0.00049158
18010.0 0.00048906
18030.0 0.00048646
18050.0 0.00048396
18070.0 0.00048152
18090.0 0.00047905
18110.0 0.00047658
18130.0 0.00047422
18150.0 0.00047186
18170.0 0.00046946
18190.0 0.00046713
18210.0 0.00046486
18230.0 0.00046254
18250.0 0.00046021
18270.0 0.00045801
18290.0 0.0004558
18310.0 0.00045356
18330.0 0.00045138
18350.0 0.00044928
18370.0 0.0004471
18390.0 0.00044495
18410.0 0.00044289
18430.0 0.00044081
18450.0 0.00043868
18470.0 0.00043665
18490.0 0.00043467
18510.0 0.00043265
18530.0 0.00043064
18550.0 0.00042873
18570.0 0.00042678
18590.0 0.00042479
18610.0 0.00042289
18630.0 0.00042102
18650.0 0.00041911
18670.0 0.00041721
18690.0 0.00041543
18710.0 0.0004136
18730.0 0.00041175
18750.0 0.00040998
18770.0 0.00040824
18790.0 0.0004064
18810.0 0.00040463
18830.0 0.00040294
18850.0 0.00040122
18870.0 0.00039947
18890.0 0.00039781
18910.0 0.00039616
18930.0 0.00039446
18950.0 0.0003928
18970.0 0.0003912
18990.0 0.00038956
19010.0 0.00038787
19030.0 0.00038631
19050.0 0.00038475
19070.0 0.00038314
19090.0 0.00038157
19110.0 0.00038008
19130.0 0.00037851
19150.0 0.00037694
19170.0 0.00037545
19190.0 0.00037395
19210.0 0.0003724
19230.0 0.0003709
19250.0 0.00036948
19270.0 0.00036799
19290.0 0.0003665
19310.0 0.00036509
19330.0 0.00036367
19350.0 0.00036216
19370.0 0.00036074
19390.0 0.00035936
19410.0 0.00035793
19430.0 0.00035649
19450.0 0.00035514
19470.0 0.00035377
19490.0 0.00035235
19510.0 0.00035098
19530.0 0.00034966
19550.0 0.00034825
19570.0 0.00034685
19590.0 0.00034554
19610.0 0.00034421
19630.0 0.00034283
19650.0 0.00034151
19670.0 0.00034023
19690.0 0.00033887
19710.0 0.00033752
19730.0 0.00033624
19750.0 0.00033493
19770.0 0.00033356
19790.0 0.00033227
19810.0 0.00033101
19830.0 0.00032969
19850.0 0.00032838
19870.0 0.00032716
19890.0 0.00032589
19910.0 0.0003246
19930.0 0.00032345
19950.0 0.0003224
19970.0 0.0003214
19990.0 0.00032057
20010.0 0.00031999
20030.0 0.00031955
20050.0 0.00031929
20070.0 0.00031923
20090.0 0.00031932
20110.0 0.0003195
20130.0 0.0003198
20150.0 0.00032018
20170.0 0.0003206
20190.0 0.00032105
20210.0 0.00032155
20230.0 0.00032207
20250.0 0.00032259
20270.0 0.00032312
20290.0 0.00032365
20310.0 0.00032417
20330.0 0.00032467
20350.0 0.00032517
20370.0 0.00032564
20390.0 0.00032608
20410.0 0.0003265
20430.0 0.00032691
20450.0 0.00032728
20470.0 0.00032764
20490.0 0.000328
20510.0 0.00032835
20530.0 0.00032868
20550.0 0.00032903
20570.0 0.00032941
20590.0 0.00032979
20610.0 0.00033018
20630.0 0.00033061
20650.0 0.00033105
20670.0 0.00033149
20690.0 0.00033195
20710.0 0.00033243
20730.0 0.00033288
20750.0 0.00033332
20770.0 0.00033375
20790.0 0.00033415
20810.0 0.00033448
20830.0 0.00033478
20850.0 0.00033503
20870.0 0.00033518
20890.0 0.00033526
20910.0 0.00033532
20930.0 0.00033529
20950.0 0.00033517
20970.0 0.00033502
20990.0 0.00033484
21010.0 0.00033456
21030.0 0.00033426
21050.0 0.00033396
21070.0 0.00033363
21090.0 0.00033323
21110.0 0.00033289
21130.0 0.00033256
21150.0 0.00033218
21170.0 0.00033181
21190.0 0.00033148
21210.0 0.00033109
21230.0 0.00033067
21250.0 0.00033028
21270.0 0.00032987
21290.0 0.00032938
21310.0 0.00032887
21330.0 0.00032838
21350.0 0.00032779
21370.0 0.00032712
21390.0 0.00032645
21410.0 0.00032573
21430.0 0.00032486
21450.0 0.00032397
21470.0 0.00032309
21490.0 0.00032209
21510.0 0.00032102
21530.0 0.00031997
21550.0 0.00031886
21570.0 0.00031763
21590.0 0.00031641
21610.0 0.0003152
21630.0 0.00031389
21650.0 0.00031249
21670.0 0.0003112
21690.0 0.00030985
21710.0 0.00030841
21730.0 0.00030699
21750.0 0.00030562
21770.0 0.00030409
21790.0 0.00030256
21810.0 0.00030107
21830.0 0.00029954
21850.0 0.00029791
21870.0 0.00029632
21890.0 0.00029477
21910.0 0.00029311
21930.0 0.00029143
21950.0 0.00028982
21970.0 0.00028817
21990.0 0.00028643
22010.0 0.00028479
22030.0 0.00028321
22050.0 0.00028158
22070.0 0.00027998
22090.0 0.00027851
22110.0 0.00027705
22130.0 0.00027559
22150.0 0.00027424
22170.0 0.00027298
22190.0 0.0002717
22210.0 0.0002705
22230.0 0.00026943
22250.0 0.00026837
22270.0 0.00026734
22290.0 0.0002664
22310.0 0.00026551
22330.0 0.00026459
22350.0 0.00026372
22370.0 0.0002629
22390.0 0.00026206
22410.0 0.0002612
22430.0 0.00026039
22450.0 0.00025958
22470.0 0.00025872
22490.0 0.00025787
22510.0 0.00025703
22530.0 0.00025615
22550.0 0.00025523
22570.0 0.00025435
22590.0 0.00025345
22610.0 0.00025252
22630.0 0.00025159
22650.0 0.0002507
22670.0 0.00024977
22690.0 0.00024884
22710.0 0.00024794
22730.0 0.00024705
22750.0 0.00024613
22770.0 0.00024525
22790.0 0.0002444
22810.0 0.00024355
22830.0 0.00024272
22850.0 0.00024193
22870.0 0.00024115
22890.0 0.00024037
22910.0 0.00023963
22930.0 0.00023892
22950.0 0.00023821
22970.0 0.00023752
22990.0 0.00023687
23010.0 0.00023622
23030.0 0.00023559
23050.0 0.00023498
23070.0 0.00023438
23090.0 0.0002338
23110.0 0.00023324
23130.0 0.00023269
23150.0 0.00023217
23170.0 0.00023168
23190.0 0.00023121
23210.0 0.00023075
23230.0 0.00023034
23250.0 0.00022996
23270.0 0.00022958
23290.0 0.00022923
23310.0 0.00022892
23330.0 0.0002286
23350.0 0.00022827
23370.0 0.00022794
23390.0 0.0002276
23410.0 0.00022719
23430.0 0.00022676
23450.0 0.00022629
23470.0 0.00022573
23490.0 0.00022509
23510.0 0.0002244
23530.0 0.00022362
23550.0 0.00022273
23570.0 0.00022176
23590.0 0.00022071
23610.0 0.00021955
23630.0 0.00021832
23650.0 0.000217
23670.0 0.00021561
23690.0 0.00021413
23710.0 0.00021257
