#lamb flux
1010.0 1.1079e-07
1030.0 1.2161e-07
1050.0 1.3405e-07
1070.0 1.4805e-07
1090.0 1.6396e-07
1110.0 1.8027e-07
1130.0 1.9669e-07
1150.0 2.139e-07
1170.0 2.3164e-07
1190.0 2.4846e-07
1210.0 2.6551e-07
1230.0 2.8313e-07
1250.0 3.0039e-07
1270.0 3.1716e-07
1290.0 3.3487e-07
1310.0 3.5258e-07
1330.0 3.6955e-07
1350.0 3.8672e-07
1370.0 4.0444e-07
1390.0 4.2172e-07
1410.0 4.3848e-07
1430.0 4.5601e-07
1450.0 4.7353e-07
1470.0 4.9047e-07
1490.0 5.0759e-07
1510.0 5.2567e-07
1530.0 5.4281e-07
1550.0 5.5971e-07
1570.0 5.772e-07
1590.0 5.947e-07
1610.0 6.1143e-07
1630.0 6.2867e-07
1650.0 6.4637e-07
1670.0 6.6348e-07
1690.0 6.8039e-07
1710.0 6.9794e-07
1730.0 7.156e-07
1750.0 7.322e-07
1770.0 7.4929e-07
1790.0 7.6673e-07
1810.0 7.8361e-07
1830.0 8.0019e-07
1850.0 8.1779e-07
1870.0 8.3493e-07
1890.0 8.5148e-07
1910.0 8.6835e-07
1930.0 8.8563e-07
1950.0 9.021e-07
1970.0 9.1834e-07
1990.0 9.3519e-07
2010.0 9.5172e-07
2030.0 9.676e-07
2050.0 9.8395e-07
2070.0 1.0007e-06
2090.0 1.0163e-06
2110.0 1.0319e-06
2130.0 1.0479e-06
2150.0 1.0634e-06
2170.0 1.0781e-06
2190.0 1.0934e-06
2210.0 1.1086e-06
2230.0 1.123e-06
2250.0 1.1372e-06
2270.0 1.152e-06
2290.0 1.1661e-06
2310.0 1.1794e-06
2330.0 1.1932e-06
2350.0 1.2073e-06
2370.0 1.2211e-06
2390.0 1.2362e-06
2410.0 1.2546e-06
2430.0 1.2762e-06
2450.0 1.3028e-06
2470.0 1.3378e-06
2490.0 1.3829e-06
2510.0 1.4347e-06
2530.0 1.4977e-06
2550.0 1.5774e-06
2570.0 1.677e-06
2590.0 1.8068e-06
2610.0 2.001e-06
2630.0 2.2769e-06
2650.0 2.6347e-06
2670.0 3.0939e-06
2690.0 3.6539e-06
2710.0 4.2456e-06
2730.0 4.8239e-06
2750.0 5.3872e-06
2770.0 5.8691e-06
2790.0 6.2429e-06
2810.0 6.5309e-06
2830.0 6.7473e-06
2850.0 6.8844e-06
2870.0 6.9764e-06
2890.0 7.0424e-06
2910.0 7.089e-06
2930.0 7.1221e-06
2950.0 7.1526e-06
2970.0 7.1821e-06
2990.0 7.2088e-06
3010.0 0.00021696
3030.0 0.00021772
3050.0 0.00021846
3070.0 0.00021901
3090.0 0.0002194
3110.0 0.00021938
3130.0 0.00021866
3150.0 0.00021703
3170.0 0.00021407
3190.0 0.00020981
3210.0 0.00020461
3230.0 0.00019875
3250.0 0.00019283
3270.0 0.00018845
3290.0 0.00018556
3310.0 0.00018539
3330.0 0.00018747
3350.0 0.00019158
3370.0 0.00019771
3390.0 0.00020559
3410.0 0.00021425
3430.0 0.00022403
3450.0 0.00023534
3470.0 0.00024773
3490.0 0.00026094
3510.0 0.00027591
3530.0 0.00029207
3550.0 0.00030879
3570.0 0.00032661
3590.0 0.00034615
3610.0 0.00036694
3630.0 0.00038753
3650.0 0.00040908
3670.0 0.00042857
3690.0 0.00044307
3710.0 0.0004509
3730.0 0.00044916
3750.0 0.00043882
3770.0 0.0004427
3790.0 0.00043896
3810.0 0.00039384
3830.0 0.00039953
3850.0 0.00049969
3870.0 0.00051898
3890.0 0.00046611
3910.0 0.00045147
3930.0 0.00049227
3950.0 0.00053417
3970.0 0.00052742
3990.0 0.00040236
4010.0 0.0010603
4030.0 0.0012166
4050.0 0.0013876
4070.0 0.0012968
4090.0 0.0011884
4110.0 0.0010269
4130.0 0.0010419
4150.0 0.0012294
4170.0 0.0011007
4190.0 0.001095
4210.0 0.0011395
4230.0 0.0012804
4250.0 0.0015308
4270.0 0.0015984
4290.0 0.0014391
4310.0 0.0014251
4330.0 0.0014676
4350.0 0.0017337
4370.0 0.0020333
4390.0 0.001777
4410.0 0.001173
4430.0 0.0009371
4450.0 0.00087021
4470.0 0.00061158
4490.0 0.00077134
4510.0 0.0013846
4530.0 0.0016422
4550.0 0.0015888
4570.0 0.0016167
4590.0 0.0017893
4610.0 0.0028627
4630.0 0.0038757
4650.0 0.0039474
4670.0 0.0035663
4690.0 0.0034887
4710.0 0.0036624
4730.0 0.0032655
4750.0 0.0023117
4770.0 0.001638
4790.0 0.0016358
4810.0 0.001634
4830.0 0.0015487
4850.0 0.0016872
4870.0 0.0022315
4890.0 0.0026081
4910.0 0.0021746
4930.0 0.0020103
4950.0 0.0022581
4970.0 0.0029381
4990.0 0.0039781
5010.0 0.0046008
5030.0 0.0038871
5050.0 0.0025274
5070.0 0.0017196
5090.0 0.0013418
5110.0 0.0013228
5130.0 0.0015601
5150.0 0.001617
5170.0 0.0015615
5190.0 0.0014266
5210.0 0.0015372
5230.0 0.0017341
5250.0 0.0019368
5270.0 0.0019504
5290.0 0.0021313
5310.0 0.0026442
5330.0 0.0028989
5350.0 0.0028705
5370.0 0.0031023
5390.0 0.0037054
5410.0 0.0034554
5430.0 0.002886
5450.0 0.0027585
5470.0 0.0030426
5490.0 0.0037486
5510.0 0.0046206
5530.0 0.0053301
5550.0 0.0050025
5570.0 0.0045247
5590.0 0.0038392
5610.0 0.0036878
5630.0 0.0038306
5650.0 0.00358
5670.0 0.0033412
5690.0 0.0028512
5710.0 0.0028499
5730.0 0.0026886
5750.0 0.0016986
5770.0 0.0012731
5790.0 0.0014946
5810.0 0.001634
5830.0 0.0022236
5850.0 0.0027697
5870.0 0.0030369
5890.0 0.003006
5910.0 0.0029418
5930.0 0.0028079
5950.0 0.0028744
5970.0 0.0034134
5990.0 0.0030178
6010.0 0.00244
6030.0 0.0020335
6050.0 0.0017904
6070.0 0.0019282
6090.0 0.0021218
6110.0 0.0022739
6130.0 0.0022188
6150.0 0.0018369
6170.0 0.0015236
6190.0 0.001761
6210.0 0.0025208
6230.0 0.0035081
6250.0 0.0038028
6270.0 0.0031267
6290.0 0.0026535
6310.0 0.0020498
6330.0 0.0015355
6350.0 0.0014299
6370.0 0.0015022
6390.0 0.0017601
6410.0 0.0022247
6430.0 0.0026359
6450.0 0.0031177
6470.0 0.0034256
6490.0 0.0041149
6510.0 0.0046064
6530.0 0.0046189
6550.0 0.004212
6570.0 0.0034601
6590.0 0.0031919
6610.0 0.0026982
6630.0 0.0026187
6650.0 0.0025168
6670.0 0.0023076
6690.0 0.0019264
6710.0 0.0018142
6730.0 0.0010391
6750.0 0.0011755
6770.0 0.0015407
6790.0 0.0019131
6810.0 0.0015245
6830.0 0.0015627
6850.0 0.0013764
6870.0 0.0012687
6890.0 0.0011457
6910.0 0.0013062
6930.0 0.0012275
6950.0 0.0013619
6970.0 0.0014279
6990.0 0.0016028
7010.0 0.001575
7030.0 0.0017117
7050.0 0.0015532
7070.0 0.0013816
7090.0 0.0014362
7110.0 0.0015073
7130.0 0.0016823
7150.0 0.0018475
7170.0 0.0020585
7190.0 0.0022355
7210.0 0.0020907
7230.0 0.0021341
7250.0 0.0022851
7270.0 0.002463
7290.0 0.0029878
7310.0 0.0032119
7330.0 0.0030648
7350.0 0.0027605
7370.0 0.002224
7390.0 0.002215
7410.0 0.0025201
7430.0 0.0028391
7450.0 0.0030759
7470.0 0.0029194
7490.0 0.002473
7510.0 0.0033463
7530.0 0.0031795
7550.0 0.0029434
7570.0 0.0021421
7590.0 0.0012105
7610.0 0.00096545
7630.0 0.0012282
7650.0 0.0015371
7670.0 0.0021557
7690.0 0.0023835
7710.0 0.002315
7730.0 0.0023726
7750.0 0.0028783
7770.0 0.0029439
7790.0 0.0026951
7810.0 0.0023117
7830.0 0.0024458
7850.0 0.00253
7870.0 0.0023998
7890.0 0.0019388
7910.0 0.0014358
7930.0 0.0014299
7950.0 0.0012985
7970.0 0.0011482
7990.0 0.0010933
8010.0 0.00029554
8030.0 0.00026799
8050.0 0.00028998
8070.0 0.00033313
8090.0 0.00041474
8110.0 0.00039171
8130.0 0.00022473
8150.0 0.00023845
8170.0 0.00012552
8190.0 6.8992e-05
8210.0 0.00021574
8230.0 0.00026395
8250.0 9.5867e-05
8270.0 7.2828e-05
8290.0 0.00015918
8310.0 0.0001446
8330.0 8.9422e-05
8350.0 7.1055e-05
8370.0 1.3146e-05
8390.0 7.6495e-05
8410.0 8.6894e-05
8430.0 0.00010747
8450.0 0.00012202
8470.0 0.00020923
8490.0 0.00017127
8510.0 0.000131
8530.0 6.5655e-05
8550.0 0.00023962
8570.0 0.00036903
8590.0 0.00025572
8610.0 0.00038714
8630.0 0.00042442
8650.0 0.00023319
8670.0 0.0003436
8690.0 0.00052762
8710.0 0.00044969
8730.0 0.00048077
8750.0 0.00037571
8770.0 0.00033301
8790.0 0.00036829
8810.0 0.00040012
8830.0 0.00021991
8850.0 8.8761e-05
8870.0 6.0426e-05
8890.0 0.00016288
8910.0 0.00026272
8930.0 0.00035188
8950.0 0.0003869
8970.0 0.00037105
8990.0 0.00027074
9010.0 0.00050617
9030.0 0.00040975
9050.0 0.00041884
9070.0 0.00042928
9090.0 0.00043796
9110.0 0.00044864
9130.0 0.00045642
9150.0 0.00046202
9170.0 0.00046797
9190.0 0.00047435
9210.0 0.00048104
9230.0 0.00048812
9250.0 0.00049525
9270.0 0.00050261
9290.0 0.00051017
9310.0 0.00051771
9330.0 0.00052535
9350.0 0.00053325
9370.0 0.00054119
9390.0 0.00054914
9410.0 0.00055731
9430.0 0.00056571
9450.0 0.00057399
9470.0 0.00058242
9490.0 0.00059109
9510.0 0.00059982
9530.0 0.00060853
9550.0 0.00061756
9570.0 0.00062673
9590.0 0.00063586
9610.0 0.00064514
9630.0 0.00065468
9650.0 0.00066426
9670.0 0.00067381
9690.0 0.00068363
9710.0 0.0006936
9730.0 0.00070354
9750.0 0.00071363
9770.0 0.00072406
9790.0 0.00073441
9810.0 0.00074479
9830.0 0.00075542
9850.0 0.00076618
9870.0 0.00077686
9890.0 0.00078771
9910.0 0.0007988
9930.0 0.00080986
9950.0 0.00082095
9970.0 0.00083229
9990.0 0.00084375
10010.0 0.00074009
10030.0 0.00075003
10050.0 0.00076013
10070.0 0.00077023
10090.0 0.00078023
10110.0 0.0007905
10130.0 0.00080076
10150.0 0.00081094
10170.0 0.00082124
10190.0 0.0008317
10210.0 0.00084202
10230.0 0.0008523
10250.0 0.00086276
10270.0 0.0008732
10290.0 0.00088349
10310.0 0.00089393
10330.0 0.00090448
10350.0 0.00091483
10370.0 0.00092514
10390.0 0.00093559
10410.0 0.00094597
10430.0 0.00095613
10450.0 0.0009664
10470.0 0.0009767
10490.0 0.0009868
10510.0 0.00099682
10530.0 0.001007
10550.0 0.0010171
10570.0 0.0010268
10590.0 0.0010367
10610.0 0.0010465
10630.0 0.001056
10650.0 0.0010655
10670.0 0.0010751
10690.0 0.0010845
10710.0 0.0010936
10730.0 0.0011027
10750.0 0.0011119
10770.0 0.0011206
10790.0 0.0011293
10810.0 0.001138
10830.0 0.0011463
10850.0 0.0011543
10870.0 0.0011621
10890.0 0.0011691
10910.0 0.0011748
10930.0 0.0011787
10950.0 0.0011798
10970.0 0.0011771
10990.0 0.0011702
11010.0 0.001103
11030.0 0.0010858
11050.0 0.0010645
11070.0 0.0010388
11090.0 0.0010078
11110.0 0.00097572
11130.0 0.00094226
11150.0 0.00090631
11170.0 0.00086935
11190.0 0.00083358
11210.0 0.00079678
11230.0 0.00075917
11250.0 0.00072332
11270.0 0.00068898
11290.0 0.00065465
11310.0 0.00062217
11330.0 0.00059353
11350.0 0.00056646
11370.0 0.00054138
11390.0 0.00051957
11410.0 0.00050036
11430.0 0.0004824
11450.0 0.00046675
11470.0 0.00045305
11490.0 0.00044019
11510.0 0.00042772
11530.0 0.00041607
11550.0 0.0004045
11570.0 0.00039222
11590.0 0.00037958
11610.0 0.00036679
11630.0 0.00035298
11650.0 0.00033832
11670.0 0.00032391
11690.0 0.00030937
11710.0 0.00029442
11730.0 0.00027996
11750.0 0.00026655
11770.0 0.0002534
11790.0 0.00024104
11810.0 0.00023009
11830.0 0.00022024
11850.0 0.0002111
11870.0 0.00020336
11890.0 0.00019682
11910.0 0.000191
11930.0 0.00018592
11950.0 0.0001816
11970.0 0.0001777
11990.0 0.00017399
12010.0 0.00017055
12030.0 0.00016724
12050.0 0.00016386
12070.0 0.00016038
12090.0 0.00015703
12110.0 0.00015364
12130.0 0.00015025
12150.0 0.00014708
12170.0 0.00014426
12190.0 0.00014171
12210.0 0.00013975
12230.0 0.00013849
12250.0 0.00013799
12270.0 0.00013839
12290.0 0.00013972
12310.0 0.0001419
12330.0 0.00014517
12350.0 0.00014941
12370.0 0.00015432
12390.0 0.00016007
12410.0 0.00016689
12430.0 0.00017384
12450.0 0.00018106
12470.0 0.00018876
12490.0 0.0001965
12510.0 0.00020373
12530.0 0.00021093
12550.0 0.00021786
12570.0 0.00022394
12590.0 0.00022923
12610.0 0.00023391
12630.0 0.00023759
12650.0 0.00024002
12670.0 0.00024152
12690.0 0.00024194
12710.0 0.00024124
12730.0 0.00023954
12750.0 0.00023676
12770.0 0.00023305
12790.0 0.00022862
12810.0 0.00022339
12830.0 0.0002174
12850.0 0.00021117
12870.0 0.0002046
12890.0 0.00019755
12910.0 0.0001904
12930.0 0.00018338
12950.0 0.00017609
12970.0 0.00016869
12990.0 0.00016171
13010.0 0.00015483
13030.0 0.00014789
13050.0 0.00014124
13070.0 0.000135
13090.0 0.00012875
13110.0 0.0001227
13130.0 0.0001171
13150.0 0.00011179
13170.0 0.00010658
13190.0 0.00010192
13210.0 9.7783e-05
13230.0 9.3971e-05
13250.0 9.0646e-05
13270.0 8.7967e-05
13290.0 8.5818e-05
13310.0 8.4244e-05
13330.0 8.3377e-05
13350.0 8.3173e-05
13370.0 8.366e-05
13390.0 8.4888e-05
13410.0 8.6666e-05
13430.0 8.9067e-05
13450.0 9.2107e-05
13470.0 9.5538e-05
13490.0 9.9215e-05
13510.0 0.00010342
13530.0 0.00010772
13550.0 0.00011187
13570.0 0.000116
13590.0 0.00012006
13610.0 0.00012371
13630.0 0.00012692
13650.0 0.00012988
13670.0 0.00013237
13690.0 0.00013432
13710.0 0.00013586
13730.0 0.000137
13750.0 0.00013761
13770.0 0.00013782
13790.0 0.00013765
13810.0 0.0001371
13830.0 0.00013624
13850.0 0.00013505
13870.0 0.00013352
13890.0 0.00013176
13910.0 0.00012977
13930.0 0.00012746
13950.0 0.00012493
13970.0 0.00012235
13990.0 0.00011954
14010.0 0.00011655
14030.0 0.00011358
14050.0 0.00011058
14070.0 0.00010743
14090.0 0.0001044
14110.0 0.00010156
14130.0 9.8797e-05
14150.0 9.6197e-05
14170.0 9.397e-05
14190.0 9.2037e-05
14210.0 9.0385e-05
14230.0 8.9146e-05
14250.0 8.8327e-05
14270.0 8.7899e-05
14290.0 8.7922e-05
14310.0 8.8361e-05
14330.0 8.9193e-05
14350.0 9.0448e-05
14370.0 9.2032e-05
14390.0 9.385e-05
14410.0 9.6009e-05
14430.0 9.8398e-05
14450.0 0.00010086
14470.0 0.00010342
14490.0 0.00010617
14510.0 0.00010882
14530.0 0.00011136
14550.0 0.0001139
14570.0 0.00011636
14590.0 0.00011861
14610.0 0.0001208
14630.0 0.00012296
14650.0 0.00012499
14670.0 0.00012694
14690.0 0.00012896
14710.0 0.00013109
14730.0 0.00013321
14750.0 0.00013555
14770.0 0.0001382
14790.0 0.00014107
14810.0 0.00014418
14830.0 0.00014787
14850.0 0.00015188
14870.0 0.00015607
14890.0 0.00016061
14910.0 0.00016543
14930.0 0.00017008
14950.0 0.00017444
14970.0 0.00017858
14990.0 0.00018208
15010.0 0.00018479
15030.0 0.00018682
15050.0 0.00018821
15070.0 0.00018895
15090.0 0.00018929
15110.0 0.00018935
15130.0 0.00018923
15150.0 0.00018903
15170.0 0.00018877
15190.0 0.00018848
15210.0 0.0001882
15230.0 0.00018792
15250.0 0.00018762
15270.0 0.00018733
15290.0 0.00018707
15310.0 0.00018679
15330.0 0.00018651
15350.0 0.00018625
15370.0 0.00018599
15390.0 0.00018571
15410.0 0.00018545
15430.0 0.0001852
15450.0 0.00018494
15470.0 0.00018467
15490.0 0.00018442
15510.0 0.00018418
15530.0 0.00018392
15550.0 0.00018367
15570.0 0.00018343
15590.0 0.00018318
15610.0 0.00018292
15630.0 0.00018268
15650.0 0.00018245
15670.0 0.00018219
15690.0 0.00018195
15710.0 0.00018173
15730.0 0.00018148
15750.0 0.00018123
15770.0 0.000181
15790.0 0.00018077
15810.0 0.00018051
15830.0 0.00018028
15850.0 0.00018005
15870.0 0.00017981
15890.0 0.00017956
15910.0 0.00017934
15930.0 0.0001791
15950.0 0.00017885
15970.0 0.00017861
15990.0 0.00017838
16010.0 0.00017813
16030.0 0.00017788
16050.0 0.00017765
16070.0 0.00017741
16090.0 0.00017716
16110.0 0.00017692
16130.0 0.00017668
16150.0 0.00017642
16170.0 0.00017617
16190.0 0.00017593
16210.0 0.00017568
16230.0 0.00017542
16250.0 0.00017517
16270.0 0.00017492
16290.0 0.00017466
16310.0 0.0001744
16330.0 0.00017415
16350.0 0.00017388
16370.0 0.0001736
16390.0 0.00017334
16410.0 0.00017308
16430.0 0.00017281
16450.0 0.00017253
16470.0 0.00017227
16490.0 0.00017199
16510.0 0.0001717
16530.0 0.00017143
16550.0 0.00017115
16570.0 0.00017085
16590.0 0.00017056
16610.0 0.00017029
16630.0 0.00016999
16650.0 0.00016969
16670.0 0.0001694
16690.0 0.00016911
16710.0 0.00016879
16730.0 0.00016848
16750.0 0.00016818
16770.0 0.00016787
16790.0 0.00016754
16810.0 0.00016724
16830.0 0.00016693
16850.0 0.0001666
16870.0 0.00016627
16890.0 0.00016596
16910.0 0.00016562
16930.0 0.00016527
16950.0 0.00016495
16970.0 0.00016461
16990.0 0.00016426
17010.0 0.00016392
17030.0 0.00016358
17050.0 0.00016322
17070.0 0.00016286
17090.0 0.00016252
17110.0 0.00016216
17130.0 0.00016178
17150.0 0.00016142
17170.0 0.00016106
17190.0 0.00016069
17210.0 0.00016031
17230.0 0.00015994
17250.0 0.00015956
17270.0 0.00015917
17290.0 0.00015878
17310.0 0.0001584
17330.0 0.000158
17350.0 0.0001576
17370.0 0.00015722
17390.0 0.00015682
17410.0 0.00015641
17430.0 0.00015601
17450.0 0.00015561
17470.0 0.00015518
17490.0 0.00015476
17510.0 0.00015436
17530.0 0.00015394
17550.0 0.00015351
17570.0 0.00015309
17590.0 0.00015267
17610.0 0.00015223
17630.0 0.0001518
17650.0 0.00015137
17670.0 0.00015094
17690.0 0.00015047
17710.0 0.00015004
17730.0 0.0001496
17750.0 0.00014915
17770.0 0.0001487
17790.0 0.00014826
17810.0 0.0001478
17830.0 0.00014733
17850.0 0.00014688
17870.0 0.00014643
17890.0 0.00014595
17910.0 0.00014548
17930.0 0.00014503
17950.0 0.00014456
17970.0 0.00014408
17990.0 0.00014361
18010.0 0.00014314
18030.0 0.00014265
18050.0 0.00014217
18070.0 0.0001417
18090.0 0.00014121
18110.0 0.00014071
18130.0 0.00014024
18150.0 0.00013976
18170.0 0.00013926
18190.0 0.00013877
18210.0 0.00013829
18230.0 0.00013778
18250.0 0.00013727
18270.0 0.00013679
18290.0 0.00013629
18310.0 0.00013578
18330.0 0.00013528
18350.0 0.00013479
18370.0 0.00013428
18390.0 0.00013377
18410.0 0.00013327
18430.0 0.00013276
18450.0 0.00013224
18470.0 0.00013173
18490.0 0.00013123
18510.0 0.00013071
18530.0 0.00013019
18550.0 0.00012969
18570.0 0.00012918
18590.0 0.00012865
18610.0 0.00012813
18630.0 0.00012762
18650.0 0.0001271
18670.0 0.00012657
18690.0 0.00012606
18710.0 0.00012554
18730.0 0.00012501
18750.0 0.0001245
18770.0 0.00012399
18790.0 0.00012345
18810.0 0.00012292
18830.0 0.00012241
18850.0 0.00012188
18870.0 0.00012135
18890.0 0.00012083
18910.0 0.00012032
18930.0 0.00011978
18950.0 0.00011925
18970.0 0.00011874
18990.0 0.00011821
19010.0 0.00011766
19030.0 0.00011715
19050.0 0.00011663
19070.0 0.00011609
19090.0 0.00011557
19110.0 0.00011506
19130.0 0.00011452
19150.0 0.00011399
19170.0 0.00011347
19190.0 0.00011295
19210.0 0.00011241
19230.0 0.00011188
19250.0 0.00011137
19270.0 0.00011084
19290.0 0.00011031
19310.0 0.00010979
19330.0 0.00010927
19350.0 0.00010873
19370.0 0.00010821
19390.0 0.00010769
19410.0 0.00010716
19430.0 0.00010663
19450.0 0.00010612
19470.0 0.0001056
19490.0 0.00010507
19510.0 0.00010455
19530.0 0.00010404
19550.0 0.00010351
19570.0 0.00010298
19590.0 0.00010247
19610.0 0.00010196
19630.0 0.00010143
19650.0 0.00010092
19670.0 0.00010041
19690.0 9.9886e-05
19710.0 9.9364e-05
19730.0 9.8858e-05
19750.0 9.8345e-05
19770.0 9.7815e-05
19790.0 9.7306e-05
19810.0 9.6804e-05
19830.0 9.6283e-05
19850.0 9.5762e-05
19870.0 9.5251e-05
19890.0 9.4707e-05
19910.0 9.4116e-05
19930.0 9.349e-05
19950.0 9.2786e-05
19970.0 9.1936e-05
19990.0 9.0928e-05
20010.0 8.1852e-05
20030.0 8.0614e-05
20050.0 7.9177e-05
20070.0 7.7631e-05
20090.0 7.5975e-05
20110.0 7.4113e-05
20130.0 7.2234e-05
20150.0 7.0378e-05
20170.0 6.8458e-05
20190.0 6.6517e-05
20210.0 6.4686e-05
20230.0 6.2902e-05
20250.0 6.1117e-05
20270.0 5.9461e-05
20290.0 5.7947e-05
20310.0 5.6507e-05
20330.0 5.516e-05
20350.0 5.4036e-05
20370.0 5.3033e-05
20390.0 5.2148e-05
20410.0 5.1426e-05
20430.0 5.0861e-05
20450.0 5.0404e-05
20470.0 5.0086e-05
20490.0 4.9899e-05
20510.0 4.982e-05
20530.0 4.9848e-05
20550.0 4.9971e-05
20570.0 5.0167e-05
20590.0 5.0445e-05
20610.0 5.0791e-05
20630.0 5.1178e-05
20650.0 5.1617e-05
20670.0 5.2125e-05
20690.0 5.2644e-05
20710.0 5.3184e-05
20730.0 5.3768e-05
20750.0 5.4379e-05
20770.0 5.4978e-05
20790.0 5.5606e-05
20810.0 5.627e-05
20830.0 5.6928e-05
20850.0 5.7585e-05
20870.0 5.8288e-05
20890.0 5.9001e-05
20910.0 5.9684e-05
20930.0 6.0392e-05
20950.0 6.1123e-05
20970.0 6.1832e-05
20990.0 6.253e-05
21010.0 6.3263e-05
21030.0 6.3977e-05
21050.0 6.4656e-05
21070.0 6.5332e-05
21090.0 6.6011e-05
21110.0 6.6626e-05
21130.0 6.7203e-05
21150.0 6.7761e-05
21170.0 6.8265e-05
21190.0 6.8696e-05
21210.0 6.9083e-05
21230.0 6.9403e-05
21250.0 6.9627e-05
21270.0 6.9764e-05
21290.0 6.9809e-05
21310.0 6.9742e-05
21330.0 6.957e-05
21350.0 6.9276e-05
21370.0 6.8851e-05
21390.0 6.8312e-05
21410.0 6.7655e-05
21430.0 6.6825e-05
21450.0 6.5894e-05
21470.0 6.488e-05
21490.0 6.3734e-05
21510.0 6.2477e-05
21530.0 6.1199e-05
21550.0 5.986e-05
21570.0 5.8432e-05
21590.0 5.7027e-05
21610.0 5.5669e-05
21630.0 5.4308e-05
21650.0 5.2978e-05
21670.0 5.1822e-05
21690.0 5.0754e-05
21710.0 4.9789e-05
21730.0 4.8994e-05
21750.0 4.8376e-05
21770.0 4.7898e-05
21790.0 4.7612e-05
21810.0 4.7514e-05
21830.0 4.759e-05
21850.0 4.7853e-05
21870.0 4.8277e-05
21890.0 4.8834e-05
21910.0 4.9555e-05
21930.0 5.0405e-05
21950.0 5.133e-05
21970.0 5.2356e-05
21990.0 5.3513e-05
22010.0 5.467e-05
22030.0 5.5848e-05
22050.0 5.7087e-05
22070.0 5.8334e-05
22090.0 5.9516e-05
22110.0 6.071e-05
22130.0 6.1903e-05
22150.0 6.3019e-05
22170.0 6.4071e-05
22190.0 6.5115e-05
22210.0 6.6087e-05
22230.0 6.6942e-05
22250.0 6.7747e-05
22270.0 6.8488e-05
22290.0 6.912e-05
22310.0 6.9661e-05
22330.0 7.0137e-05
22350.0 7.0503e-05
22370.0 7.0758e-05
22390.0 7.0914e-05
22410.0 7.0958e-05
22430.0 7.0881e-05
22450.0 7.0691e-05
22470.0 7.037e-05
22490.0 6.9923e-05
22510.0 6.9368e-05
22530.0 6.8662e-05
22550.0 6.7805e-05
22570.0 6.6855e-05
22590.0 6.5785e-05
22610.0 6.4557e-05
22630.0 6.3228e-05
22650.0 6.1855e-05
22670.0 6.0338e-05
22690.0 5.8719e-05
22710.0 5.7086e-05
22730.0 5.5403e-05
22750.0 5.3579e-05
22770.0 5.1797e-05
22790.0 5.0056e-05
22810.0 4.827e-05
22830.0 4.6488e-05
22850.0 4.482e-05
22870.0 4.3184e-05
