#lamb flux
1010.0 0.00062637
1030.0 0.00082357
1050.0 0.0010744
1070.0 0.0013877
1090.0 0.0017803
1110.0 0.0022369
1130.0 0.0027558
1150.0 0.0033542
1170.0 0.0040302
1190.0 0.0047445
1210.0 0.005514
1230.0 0.0063391
1250.0 0.0071784
1270.0 0.0080058
1290.0 0.0088446
1310.0 0.0096421
1330.0 0.010349
1350.0 0.010974
1370.0 0.01151
1390.0 0.011908
1410.0 0.012158
1430.0 0.012297
1450.0 0.012303
1470.0 0.012166
1490.0 0.011923
1510.0 0.011608
1530.0 0.011187
1550.0 0.010705
1570.0 0.010196
1590.0 0.0096633
1610.0 0.0091113
1630.0 0.0085766
1650.0 0.008066
1670.0 0.0075736
1690.0 0.0071124
1710.0 0.0066962
1730.0 0.0063198
1750.0 0.0059744
1770.0 0.0056751
1790.0 0.0054187
1810.0 0.005197
1830.0 0.005011
1850.0 0.0048677
1870.0 0.0047549
1890.0 0.0046707
1910.0 0.0046191
1930.0 0.0045987
1950.0 0.0046014
1970.0 0.0046296
1990.0 0.0046865
2010.0 0.0047664
2030.0 0.0048667
2050.0 0.0049927
2070.0 0.0051434
2090.0 0.0053105
2110.0 0.0054985
2130.0 0.00571
2150.0 0.0059398
2170.0 0.0061848
2190.0 0.0064524
2210.0 0.0067391
2230.0 0.0070392
2250.0 0.0073555
2270.0 0.007693
2290.0 0.0080423
2310.0 0.0084007
2330.0 0.0087759
2350.0 0.009164
2370.0 0.0095569
2390.0 0.0099593
2410.0 0.010375
2430.0 0.010791
2450.0 0.011209
2470.0 0.011637
2490.0 0.012079
2510.0 0.012534
2530.0 0.013033
2550.0 0.013619
2570.0 0.014329
2590.0 0.015215
2610.0 0.016434
2630.0 0.018057
2650.0 0.020086
2670.0 0.022656
2690.0 0.025867
2710.0 0.0295
2730.0 0.033418
2750.0 0.037735
2770.0 0.042052
2790.0 0.046016
2810.0 0.049635
2830.0 0.052877
2850.0 0.05534
2870.0 0.057258
2890.0 0.058805
2910.0 0.059993
2930.0 0.060856
2950.0 0.061598
2970.0 0.062237
2990.0 0.06272
3010.0 0.063108
3030.0 0.063476
3050.0 0.063778
3070.0 0.06394
3090.0 0.064085
3110.0 0.064209
3130.0 0.064299
3150.0 0.063844
3170.0 0.063813
3190.0 0.064099
3210.0 0.064944
3230.0 0.066847
3250.0 0.070903
3270.0 0.076614
3290.0 0.082596
3310.0 0.088607
3330.0 0.090291
3350.0 0.090763
3370.0 0.091174
3390.0 0.091454
3410.0 0.091336
3430.0 0.09091
3450.0 0.090475
3470.0 0.090373
3490.0 0.08944
3510.0 0.085735
3530.0 0.078862
3550.0 0.075315
3570.0 0.085512
3590.0 0.09969
3610.0 0.11036
3630.0 0.12589
3650.0 0.12364
3670.0 0.10706
3690.0 0.091482
3710.0 0.085337
3730.0 0.087843
3750.0 0.089819
3770.0 0.092126
3790.0 0.094516
3810.0 0.097703
3830.0 0.09019
3850.0 0.07991
3870.0 0.07477
3890.0 0.07924
3910.0 0.082238
3930.0 0.082576
3950.0 0.087168
3970.0 0.092749
3990.0 0.093731
4010.0 0.095392
4030.0 0.092269
4050.0 0.089726
4070.0 0.088132
4090.0 0.088954
4110.0 0.090198
4130.0 0.088286
4150.0 0.085029
4170.0 0.083992
4190.0 0.083288
4210.0 0.077721
4230.0 0.07179
4250.0 0.064796
4270.0 0.058497
4290.0 0.056493
4310.0 0.0557
4330.0 0.057515
4350.0 0.063778
4370.0 0.066875
4390.0 0.073988
4410.0 0.079729
4430.0 0.082063
4450.0 0.076351
4470.0 0.070093
4490.0 0.068509
4510.0 0.067435
4530.0 0.067505
4550.0 0.067399
4570.0 0.068544
4590.0 0.071182
4610.0 0.07286
4630.0 0.074504
4650.0 0.075269
4670.0 0.074945
4690.0 0.070729
4710.0 0.06678
4730.0 0.063616
4750.0 0.061927
4770.0 0.059819
4790.0 0.060137
4810.0 0.059119
4830.0 0.056055
4850.0 0.059697
4870.0 0.056943
4890.0 0.05802
4910.0 0.058617
4930.0 0.055753
4950.0 0.048058
4970.0 0.044969
4990.0 0.042552
5010.0 0.039673
5030.0 0.039675
5050.0 0.042589
5070.0 0.043738
5090.0 0.045804
5110.0 0.046576
5130.0 0.046406
5150.0 0.047217
5170.0 0.045419
5190.0 0.045118
5210.0 0.045949
5230.0 0.04408
5250.0 0.045081
5270.0 0.047533
5290.0 0.046742
5310.0 0.044213
5330.0 0.042876
5350.0 0.040172
5370.0 0.039374
5390.0 0.038969
5410.0 0.038034
5430.0 0.038744
5450.0 0.037269
5470.0 0.037303
5490.0 0.041201
5510.0 0.041842
5530.0 0.041819
5550.0 0.041612
5570.0 0.042355
5590.0 0.042683
5610.0 0.042135
5630.0 0.041558
5650.0 0.040951
5670.0 0.040147
5690.0 0.039347
5710.0 0.038306
5730.0 0.038895
5750.0 0.037618
5770.0 0.03583
5790.0 0.034698
5810.0 0.032459
5830.0 0.033576
5850.0 0.034563
5870.0 0.034402
5890.0 0.034603
5910.0 0.035984
5930.0 0.0359
5950.0 0.036004
5970.0 0.036083
5990.0 0.036456
6010.0 0.035649
6030.0 0.035161
6050.0 0.034716
6070.0 0.034092
6090.0 0.034529
6110.0 0.034123
6130.0 0.032988
6150.0 0.03219
6170.0 0.031404
6190.0 0.028939
6210.0 0.028526
6230.0 0.02879
6250.0 0.02848
6270.0 0.028383
6290.0 0.029071
6310.0 0.029883
6330.0 0.029864
6350.0 0.029323
6370.0 0.029334
6390.0 0.028175
6410.0 0.027992
6430.0 0.027174
6450.0 0.026997
6470.0 0.026898
6490.0 0.026943
6510.0 0.026044
6530.0 0.025871
6550.0 0.025491
6570.0 0.024884
6590.0 0.025342
6610.0 0.025299
6630.0 0.024845
6650.0 0.024016
6670.0 0.023567
6690.0 0.023041
6710.0 0.022399
6730.0 0.022105
6750.0 0.022251
6770.0 0.022757
6790.0 0.022531
6810.0 0.022398
6830.0 0.02149
6850.0 0.020407
6870.0 0.02005
6890.0 0.019899
6910.0 0.019871
6930.0 0.019589
6950.0 0.019825
6970.0 0.019315
6990.0 0.019092
7010.0 0.019057
7030.0 0.019293
7050.0 0.018998
7070.0 0.01792
7090.0 0.017093
7110.0 0.01706
7130.0 0.017316
7150.0 0.017406
7170.0 0.017382
7190.0 0.017046
7210.0 0.01784
7230.0 0.018452
7250.0 0.01852
7270.0 0.018473
7290.0 0.018838
7310.0 0.018377
7330.0 0.01797
7350.0 0.01733
7370.0 0.017425
7390.0 0.017846
7410.0 0.016856
7430.0 0.017049
7450.0 0.016832
7470.0 0.017371
7490.0 0.017129
7510.0 0.016278
7530.0 0.016662
7550.0 0.015285
7570.0 0.014914
7590.0 0.014875
7610.0 0.015521
7630.0 0.015483
7650.0 0.016081
7670.0 0.014897
7690.0 0.014489
7710.0 0.015051
7730.0 0.016016
7750.0 0.015603
7770.0 0.016384
7790.0 0.01649
7810.0 0.016439
7830.0 0.017495
7850.0 0.016714
7870.0 0.017756
7890.0 0.017181
7910.0 0.016941
7930.0 0.016273
7950.0 0.016057
7970.0 0.016463
7990.0 0.016067
8010.0 0.015451
8030.0 0.015299
8050.0 0.01499
8070.0 0.014715
8090.0 0.013645
8110.0 0.013704
8130.0 0.014519
8150.0 0.015026
8170.0 0.015113
8190.0 0.015538
8210.0 0.015263
8230.0 0.014903
8250.0 0.014859
8270.0 0.014574
8290.0 0.014276
8310.0 0.013586
8330.0 0.013616
8350.0 0.013774
8370.0 0.01386
8390.0 0.013869
8410.0 0.013675
8430.0 0.013526
8450.0 0.013532
8470.0 0.013969
8490.0 0.014135
8510.0 0.013635
8530.0 0.013124
8550.0 0.013105
8570.0 0.012832
8590.0 0.01255
8610.0 0.012787
8630.0 0.012734
8650.0 0.012598
8670.0 0.012507
8690.0 0.012381
8710.0 0.011821
8730.0 0.011884
8750.0 0.011579
8770.0 0.011615
8790.0 0.01142
8810.0 0.011153
8830.0 0.011207
8850.0 0.011155
8870.0 0.010635
8890.0 0.010301
8910.0 0.0099066
8930.0 0.009367
8950.0 0.0091875
8970.0 0.0087965
8990.0 0.0086713
9010.0 0.0084172
9030.0 0.0083304
9050.0 0.0082772
9070.0 0.0082254
9090.0 0.008173
9110.0 0.0081194
9130.0 0.0080659
9150.0 0.0080133
9170.0 0.0079602
9190.0 0.0079067
9210.0 0.0078528
9230.0 0.0077986
9250.0 0.0077443
9270.0 0.0076898
9290.0 0.0076351
9310.0 0.007581
9330.0 0.0075277
9350.0 0.0074743
9370.0 0.0074209
9390.0 0.0073675
9410.0 0.0073141
9430.0 0.0072607
9450.0 0.0072075
9470.0 0.0071592
9490.0 0.0071084
9510.0 0.0070528
9530.0 0.0069979
9550.0 0.0069443
9570.0 0.0068913
9590.0 0.0068387
9610.0 0.0067871
9630.0 0.0067362
9650.0 0.0066855
9670.0 0.0066347
9690.0 0.0065846
9710.0 0.0065349
9730.0 0.0064852
9750.0 0.0064358
9770.0 0.0063873
9790.0 0.0063388
9810.0 0.0062905
9830.0 0.0062426
9850.0 0.0061907
9870.0 0.0061393
9890.0 0.0060967
9910.0 0.0060533
9930.0 0.0060011
9950.0 0.0059558
9970.0 0.0059147
9990.0 0.0058726
10010.0 0.0058309
10030.0 0.0057886
10050.0 0.0057458
10070.0 0.0057037
10090.0 0.0056622
10110.0 0.0056205
10130.0 0.0055793
10150.0 0.0055391
10170.0 0.0054993
10190.0 0.0054595
10210.0 0.0054208
10230.0 0.0053827
10250.0 0.0053446
10270.0 0.0053072
10290.0 0.0052706
10310.0 0.0052342
10330.0 0.0051979
10350.0 0.0051627
10370.0 0.005128
10390.0 0.0050933
10410.0 0.0050571
10430.0 0.0050213
10450.0 0.0049908
10470.0 0.0049592
10490.0 0.0049283
10510.0 0.0048977
10530.0 0.0048664
10550.0 0.0048359
10570.0 0.0048065
10590.0 0.004777
10610.0 0.0047476
10630.0 0.0047194
10650.0 0.0046916
10670.0 0.0046635
10690.0 0.0046363
10710.0 0.0046099
10730.0 0.0045835
10750.0 0.0045569
10770.0 0.0045319
10790.0 0.0045072
10810.0 0.0044822
10830.0 0.0044581
10850.0 0.0044349
10870.0 0.0044111
10890.0 0.0043877
10910.0 0.0043655
10930.0 0.0043434
10950.0 0.004321
10970.0 0.0042994
10990.0 0.0042785
11010.0 0.0048311
11030.0 0.0048043
11050.0 0.0047753
11070.0 0.0047437
11090.0 0.0047088
11110.0 0.0046736
11130.0 0.004638
11150.0 0.0046008
11170.0 0.004563
11190.0 0.0045264
11210.0 0.004489
11230.0 0.0044508
11250.0 0.0044139
11270.0 0.0043781
11290.0 0.0043418
11310.0 0.0043066
11330.0 0.0042743
11350.0 0.0042428
11370.0 0.0042123
11390.0 0.0041843
11410.0 0.0041582
11430.0 0.0041324
11450.0 0.0041085
11470.0 0.0040864
11490.0 0.0040648
11510.0 0.0040433
11530.0 0.0040232
11550.0 0.0040036
11570.0 0.0039833
11590.0 0.0039631
11610.0 0.0039434
11630.0 0.0039227
11650.0 0.003901
11670.0 0.0038799
11690.0 0.0038584
11710.0 0.0038357
11730.0 0.0038128
11750.0 0.0037905
11770.0 0.003767
11790.0 0.003743
11810.0 0.0037198
11830.0 0.0036967
11850.0 0.0036724
11870.0 0.0036494
11890.0 0.0036277
11910.0 0.003606
11930.0 0.003585
11950.0 0.0035661
11970.0 0.0035482
11990.0 0.0035308
12010.0 0.0035156
12030.0 0.0035023
12050.0 0.0034903
12070.0 0.0034797
12090.0 0.0034716
12110.0 0.0034649
12130.0 0.0034596
12150.0 0.0034559
12170.0 0.0034536
12190.0 0.003452
12210.0 0.0034514
12230.0 0.0034515
12250.0 0.0034517
12270.0 0.0034518
12290.0 0.0034515
12310.0 0.0034507
12330.0 0.0034488
12350.0 0.0034456
12370.0 0.0034413
12390.0 0.0034354
12410.0 0.0034271
12430.0 0.0034176
12450.0 0.0034065
12470.0 0.003393
12490.0 0.0033777
12510.0 0.0033616
12530.0 0.0033432
12550.0 0.0033227
12570.0 0.0033015
12590.0 0.0032793
12610.0 0.0032549
12630.0 0.0032294
12650.0 0.0032047
12670.0 0.0031785
12690.0 0.0031513
12710.0 0.0031249
12730.0 0.0030987
12750.0 0.003071
12770.0 0.0030444
12790.0 0.003019
12810.0 0.0029937
12830.0 0.0029685
12850.0 0.0029454
12870.0 0.0029235
12890.0 0.0029019
12910.0 0.002882
12930.0 0.0028642
12950.0 0.0028472
12970.0 0.0028316
12990.0 0.0028187
13010.0 0.0028075
13030.0 0.0027979
13050.0 0.0027903
13070.0 0.0027848
13090.0 0.0027806
13110.0 0.0027779
13130.0 0.0027766
13150.0 0.0027761
13170.0 0.0027762
13190.0 0.0027766
13210.0 0.002777
13230.0 0.0027771
13250.0 0.0027766
13270.0 0.0027753
13290.0 0.002773
13310.0 0.0027694
13330.0 0.0027647
13350.0 0.0027587
13370.0 0.0027511
13390.0 0.0027418
13410.0 0.0027316
13430.0 0.0027197
13450.0 0.0027059
13470.0 0.0026909
13490.0 0.002675
13510.0 0.0026567
13530.0 0.0026373
13550.0 0.0026176
13570.0 0.0025966
13590.0 0.002574
13610.0 0.0025514
13630.0 0.0025288
13650.0 0.0025046
13670.0 0.00248
13690.0 0.0024559
13710.0 0.0024311
13730.0 0.0024047
13750.0 0.0023795
13770.0 0.0023544
13790.0 0.0023283
13810.0 0.0023024
13830.0 0.0022775
13850.0 0.002252
13870.0 0.0022262
13890.0 0.0022015
13910.0 0.0021774
13930.0 0.0021528
13950.0 0.0021288
13970.0 0.0021066
13990.0 0.0020843
14010.0 0.0020623
14030.0 0.0020418
14050.0 0.0020221
14070.0 0.0020021
14090.0 0.0019835
14110.0 0.001966
14130.0 0.0019489
14150.0 0.0019321
14170.0 0.0019167
14190.0 0.0019018
14210.0 0.0018869
14230.0 0.0018727
14250.0 0.0018592
14270.0 0.0018456
14290.0 0.0018321
14310.0 0.0018194
14330.0 0.0018069
14350.0 0.0017944
14370.0 0.0017823
14390.0 0.0017708
14410.0 0.0017592
14430.0 0.0017478
14450.0 0.001737
14470.0 0.0017263
14490.0 0.0017155
14510.0 0.0017052
14530.0 0.0016952
14550.0 0.0016851
14570.0 0.0016749
14590.0 0.0016651
14610.0 0.0016551
14630.0 0.0016448
14650.0 0.0016346
14670.0 0.0016245
14690.0 0.001614
14710.0 0.0016033
14730.0 0.001593
14750.0 0.0015823
14770.0 0.0015713
14790.0 0.0015604
14810.0 0.0015495
14830.0 0.0015379
14850.0 0.0015262
14870.0 0.0015148
14890.0 0.0015031
14910.0 0.0014911
14930.0 0.0014796
14950.0 0.0014685
14970.0 0.0014576
14990.0 0.0014474
15010.0 0.0014382
15030.0 0.0014295
15050.0 0.0014213
15070.0 0.0014139
15090.0 0.001407
15110.0 0.0014002
15130.0 0.0013936
15150.0 0.0013872
15170.0 0.0013807
15190.0 0.0013742
15210.0 0.0013678
15230.0 0.0013615
15250.0 0.001355
15270.0 0.0013485
15290.0 0.0013422
15310.0 0.0013358
15330.0 0.0013294
15350.0 0.001323
15370.0 0.0013167
15390.0 0.0013102
15410.0 0.0013038
15430.0 0.0012975
15450.0 0.0012912
15470.0 0.0012847
15490.0 0.0012784
15510.0 0.0012722
15530.0 0.0012658
15550.0 0.0012594
15570.0 0.0012532
15590.0 0.0012469
15610.0 0.0012405
15630.0 0.0012343
15650.0 0.001228
15670.0 0.0012217
15690.0 0.0012155
15710.0 0.0012094
15730.0 0.0012031
15750.0 0.0011968
15770.0 0.0011907
15790.0 0.0011846
15810.0 0.0011783
15830.0 0.0011722
15850.0 0.0011661
15870.0 0.00116
15890.0 0.0011538
15910.0 0.0011479
15930.0 0.0011418
15950.0 0.0011357
15970.0 0.0011297
15990.0 0.0011237
16010.0 0.0011177
16030.0 0.0011117
16050.0 0.0011058
16070.0 0.0010999
16090.0 0.001094
16110.0 0.0010881
16130.0 0.0010823
16150.0 0.0010764
16170.0 0.0010705
16190.0 0.0010648
16210.0 0.0010591
16230.0 0.0010532
16250.0 0.0010476
16270.0 0.0010419
16290.0 0.0010362
16310.0 0.0010305
16330.0 0.001025
16350.0 0.0010194
16370.0 0.0010137
16390.0 0.0010082
16410.0 0.0010027
16430.0 0.00099721
16450.0 0.00099173
16470.0 0.00098639
16490.0 0.00098095
16510.0 0.00097551
16530.0 0.00097019
16550.0 0.00096491
16570.0 0.00095953
16590.0 0.00095423
16610.0 0.00094908
16630.0 0.00094386
16650.0 0.00093864
16670.0 0.00093354
16690.0 0.00092847
16710.0 0.00092327
16730.0 0.00091821
16750.0 0.00091323
16770.0 0.00090821
16790.0 0.00090317
16810.0 0.0008983
16830.0 0.00089343
16850.0 0.0008885
16870.0 0.00088365
16890.0 0.00087891
16910.0 0.00087408
16930.0 0.00086924
16950.0 0.00086458
16970.0 0.00085992
16990.0 0.0008552
17010.0 0.00085058
17030.0 0.00084607
17050.0 0.00084146
17070.0 0.00083689
17090.0 0.00083243
17110.0 0.00082798
17130.0 0.00082345
17150.0 0.00081905
17170.0 0.00081475
17190.0 0.00081037
17210.0 0.00080603
17230.0 0.00080183
17250.0 0.00079759
17270.0 0.00079329
17290.0 0.00078912
17310.0 0.00078502
17330.0 0.00078085
17350.0 0.0007767
17370.0 0.00077273
17390.0 0.00076871
17410.0 0.00076466
17430.0 0.00076072
17450.0 0.00075686
17470.0 0.00075286
17490.0 0.00074896
17510.0 0.00074517
17530.0 0.00074136
17550.0 0.00073752
17570.0 0.0007338
17590.0 0.00073014
17610.0 0.0007264
17630.0 0.00072272
17650.0 0.00071915
17670.0 0.00071554
17690.0 0.00071185
17710.0 0.00070836
17730.0 0.00070489
17750.0 0.00070136
17770.0 0.00069789
17790.0 0.00069455
17810.0 0.00069111
17830.0 0.00068768
17850.0 0.00068437
17870.0 0.00068109
17890.0 0.00067773
17910.0 0.00067444
17930.0 0.00067128
17950.0 0.00066806
17970.0 0.00066484
17990.0 0.00066173
18010.0 0.00065864
18030.0 0.00065544
18050.0 0.00065237
18070.0 0.00064937
18090.0 0.00064632
18110.0 0.00064326
18130.0 0.00064034
18150.0 0.00063742
18170.0 0.00063444
18190.0 0.00063154
18210.0 0.00062872
18230.0 0.00062582
18250.0 0.00062291
18270.0 0.00062016
18290.0 0.00061739
18310.0 0.00061457
18330.0 0.00061185
18350.0 0.0006092
18370.0 0.00060645
18390.0 0.00060374
18410.0 0.00060113
18430.0 0.00059851
18450.0 0.0005958
18470.0 0.00059323
18490.0 0.00059071
18510.0 0.00058813
18530.0 0.00058557
18550.0 0.00058313
18570.0 0.00058063
18590.0 0.00057808
18610.0 0.00057564
18630.0 0.00057324
18650.0 0.00057077
18670.0 0.00056832
18690.0 0.00056602
18710.0 0.00056365
18730.0 0.00056125
18750.0 0.00055895
18770.0 0.00055669
18790.0 0.00055429
18810.0 0.00055198
18830.0 0.00054977
18850.0 0.00054751
18870.0 0.00054521
18890.0 0.00054302
18910.0 0.00054086
18930.0 0.00053861
18950.0 0.00053641
18970.0 0.0005343
18990.0 0.00053213
19010.0 0.00052988
19030.0 0.00052781
19050.0 0.00052573
19070.0 0.00052357
19090.0 0.00052148
19110.0 0.00051948
19130.0 0.00051736
19150.0 0.00051525
19170.0 0.00051323
19190.0 0.00051122
19210.0 0.00050912
19230.0 0.00050708
19250.0 0.00050515
19270.0 0.00050313
19290.0 0.0005011
19310.0 0.00049917
19330.0 0.00049723
19350.0 0.00049516
19370.0 0.00049321
19390.0 0.00049131
19410.0 0.00048934
19430.0 0.00048735
19450.0 0.00048548
19470.0 0.00048358
19490.0 0.00048161
19510.0 0.00047971
19530.0 0.00047786
19550.0 0.0004759
19570.0 0.00047394
19590.0 0.00047211
19610.0 0.00047024
19630.0 0.0004683
19650.0 0.00046645
19670.0 0.00046464
19690.0 0.00046271
19710.0 0.00046081
19730.0 0.000459
19750.0 0.00045714
19770.0 0.00045518
19790.0 0.00045335
19810.0 0.00045155
19830.0 0.00044966
19850.0 0.00044779
19870.0 0.00044603
19890.0 0.00044421
19910.0 0.00044236
19930.0 0.0004407
19950.0 0.00043916
19970.0 0.00043771
19990.0 0.00043648
20010.0 0.00043558
20030.0 0.00043487
20050.0 0.00043441
20070.0 0.00043421
20090.0 0.00043421
20110.0 0.00043433
20130.0 0.0004346
20150.0 0.00043497
20170.0 0.00043538
20190.0 0.00043584
20210.0 0.00043634
20230.0 0.00043687
20250.0 0.00043738
20270.0 0.00043791
20290.0 0.00043843
20310.0 0.00043893
20330.0 0.00043938
20350.0 0.00043984
20370.0 0.00044026
20390.0 0.00044063
20410.0 0.00044097
20430.0 0.0004413
20450.0 0.00044156
20470.0 0.0004418
20490.0 0.00044204
20510.0 0.00044227
20530.0 0.00044247
20550.0 0.0004427
20570.0 0.00044295
20590.0 0.0004432
20610.0 0.00044346
20630.0 0.00044377
20650.0 0.00044409
20670.0 0.00044439
20690.0 0.00044472
20710.0 0.00044507
20730.0 0.00044538
20750.0 0.00044566
20770.0 0.00044594
20790.0 0.00044615
20810.0 0.00044627
20830.0 0.00044634
20850.0 0.00044634
20870.0 0.00044621
20890.0 0.00044598
20910.0 0.00044571
20930.0 0.00044532
20950.0 0.00044481
20970.0 0.00044426
20990.0 0.00044366
21010.0 0.00044293
21030.0 0.00044216
21050.0 0.00044141
21070.0 0.00044059
21090.0 0.0004397
21110.0 0.00043888
21130.0 0.00043806
21150.0 0.00043718
21170.0 0.00043631
21190.0 0.00043549
21210.0 0.00043459
21230.0 0.00043364
21250.0 0.00043274
21270.0 0.0004318
21290.0 0.00043076
21310.0 0.00042968
21330.0 0.00042863
21350.0 0.00042744
21370.0 0.00042615
21390.0 0.00042486
21410.0 0.00042349
21430.0 0.00042192
21450.0 0.00042034
21470.0 0.00041875
21490.0 0.00041702
21510.0 0.00041518
21530.0 0.00041337
21550.0 0.00041149
21570.0 0.00040944
21590.0 0.0004074
21610.0 0.00040537
21630.0 0.00040322
21650.0 0.00040095
21670.0 0.00039881
21690.0 0.00039661
21710.0 0.00039428
21730.0 0.00039199
21750.0 0.00038974
21770.0 0.00038731
21790.0 0.00038486
21810.0 0.00038247
21830.0 0.00038002
21850.0 0.00037745
21870.0 0.00037491
21890.0 0.00037244
21910.0 0.00036982
21930.0 0.00036718
21950.0 0.00036461
21970.0 0.000362
21990.0 0.00035926
22010.0 0.00035666
22030.0 0.00035411
22050.0 0.00035151
22070.0 0.00034895
22090.0 0.00034654
22110.0 0.00034413
22130.0 0.00034172
22150.0 0.00033946
22170.0 0.00033728
22190.0 0.00033509
22210.0 0.00033299
22230.0 0.00033104
22250.0 0.00032911
22270.0 0.00032721
22290.0 0.00032541
22310.0 0.00032366
22330.0 0.00032187
22350.0 0.00032013
22370.0 0.00031845
22390.0 0.00031674
22410.0 0.00031499
22430.0 0.00031329
22450.0 0.00031158
22470.0 0.0003098
22490.0 0.00030802
22510.0 0.00030625
22530.0 0.00030441
22550.0 0.00030252
22570.0 0.00030066
22590.0 0.00029877
22610.0 0.00029682
22630.0 0.00029487
22650.0 0.00029295
22670.0 0.00029097
22690.0 0.00028898
22710.0 0.00028702
22730.0 0.00028506
22750.0 0.00028305
22770.0 0.00028108
22790.0 0.00027914
22810.0 0.00027719
22830.0 0.00027523
22850.0 0.00027332
22870.0 0.0002714
22890.0 0.00026947
22910.0 0.00026757
22930.0 0.00026567
22950.0 0.00026376
22970.0 0.00026183
22990.0 0.00025992
23010.0 0.00025799
23030.0 0.00025603
23050.0 0.00025407
23070.0 0.00025209
23090.0 0.00025007
23110.0 0.00024805
23130.0 0.000246
23150.0 0.00024394
23170.0 0.00024186
23190.0 0.00023977
23210.0 0.00023767
23230.0 0.00023556
23250.0 0.00023344
23270.0 0.00023131
23290.0 0.00022916
23310.0 0.00022701
23330.0 0.00022482
23350.0 0.00022259
23370.0 0.00022033
23390.0 0.00021802
23410.0 0.00021561
23430.0 0.00021314
23450.0 0.0002106
23470.0 0.00020792
23490.0 0.00020514
23510.0 0.00020225
23530.0 0.00019922
23550.0 0.00019604
23570.0 0.00019272
23590.0 0.00018927
23610.0 0.00018565
23630.0 0.00018189
23650.0 0.00017798
23670.0 0.00017391
23690.0 0.0001697
23710.0 0.00016533
23730.0 0.00016081
23750.0 0.00015614
23770.0 0.00015131
23790.0 0.0001463
