#lamb flux
1010.0 1.1793e-07
1030.0 1.3285e-07
1050.0 1.5001e-07
1070.0 1.6932e-07
1090.0 1.9126e-07
1110.0 2.1377e-07
1130.0 2.3641e-07
1150.0 2.6014e-07
1170.0 2.8461e-07
1190.0 3.0782e-07
1210.0 3.3133e-07
1230.0 3.5564e-07
1250.0 3.7945e-07
1270.0 4.0257e-07
1290.0 4.27e-07
1310.0 4.5142e-07
1330.0 4.7483e-07
1350.0 4.9851e-07
1370.0 5.2295e-07
1390.0 5.4678e-07
1410.0 5.6991e-07
1430.0 5.9408e-07
1450.0 6.1824e-07
1470.0 6.4159e-07
1490.0 6.6519e-07
1510.0 6.9011e-07
1530.0 7.1372e-07
1550.0 7.37e-07
1570.0 7.6107e-07
1590.0 7.8516e-07
1610.0 8.0816e-07
1630.0 8.3186e-07
1650.0 8.5616e-07
1670.0 8.7964e-07
1690.0 9.0279e-07
1710.0 9.268e-07
1730.0 9.5091e-07
1750.0 9.7352e-07
1770.0 9.9675e-07
1790.0 1.0204e-06
1810.0 1.0432e-06
1830.0 1.0655e-06
1850.0 1.0891e-06
1870.0 1.112e-06
1890.0 1.1339e-06
1910.0 1.1561e-06
1930.0 1.1788e-06
1950.0 1.2001e-06
1970.0 1.221e-06
1990.0 1.2424e-06
2010.0 1.2632e-06
2030.0 1.2829e-06
2050.0 1.3029e-06
2070.0 1.323e-06
2090.0 1.3415e-06
2110.0 1.3594e-06
2130.0 1.3775e-06
2150.0 1.3946e-06
2170.0 1.4102e-06
2190.0 1.4259e-06
2210.0 1.4412e-06
2230.0 1.4548e-06
2250.0 1.4676e-06
2270.0 1.4806e-06
2290.0 1.492e-06
2310.0 1.5018e-06
2330.0 1.5113e-06
2350.0 1.5201e-06
2370.0 1.5273e-06
2390.0 1.5341e-06
2410.0 1.5417e-06
2430.0 1.5489e-06
2450.0 1.5564e-06
2470.0 1.5663e-06
2490.0 1.5794e-06
2510.0 1.5947e-06
2530.0 1.6172e-06
2550.0 1.6542e-06
2570.0 1.7124e-06
2590.0 1.8017e-06
2610.0 1.95e-06
2630.0 2.1654e-06
2650.0 2.4372e-06
2670.0 2.7701e-06
2690.0 3.1516e-06
2710.0 3.5241e-06
2730.0 3.8575e-06
2750.0 4.1543e-06
2770.0 4.3793e-06
2790.0 4.5273e-06
2810.0 4.6203e-06
2830.0 4.6727e-06
2850.0 4.6848e-06
2870.0 4.6764e-06
2890.0 4.6585e-06
2910.0 4.6335e-06
2930.0 4.6028e-06
2950.0 4.5729e-06
2970.0 4.5441e-06
2990.0 4.514e-06
3010.0 0.00010549
3030.0 0.00010478
3050.0 0.00010409
3070.0 0.00010332
3090.0 0.00010251
3110.0 0.00010157
3130.0 0.00010037
3150.0 9.8839e-05
3170.0 9.686e-05
3190.0 9.4479e-05
3210.0 9.1879e-05
3230.0 8.9236e-05
3250.0 8.6906e-05
3270.0 8.53e-05
3290.0 8.4616e-05
3310.0 8.5009e-05
3330.0 8.6515e-05
3350.0 8.8914e-05
3370.0 9.2254e-05
3390.0 9.6423e-05
3410.0 0.00010095
3430.0 0.00010606
3450.0 0.00011193
3470.0 0.00011833
3490.0 0.00012509
3510.0 0.00013268
3530.0 0.00014079
3550.0 0.00014904
3570.0 0.00015779
3590.0 0.00016757
3610.0 0.0001779
3630.0 0.00018869
3650.0 0.00020003
3670.0 0.00021063
3690.0 0.00021888
3710.0 0.00022381
3730.0 0.00022399
3750.0 0.00021933
3770.0 0.0002054
3790.0 0.00018762
3810.0 0.00016903
3830.0 0.00014974
3850.0 0.00012519
3870.0 8.9533e-05
3890.0 0.00012964
3910.0 0.00020571
3930.0 0.00025134
3950.0 0.00024912
3970.0 0.00026341
3990.0 0.00029444
4010.0 0.00039178
4030.0 0.00038778
4050.0 0.00034164
4070.0 0.00031632
4090.0 0.00030078
4110.0 0.00035603
4130.0 0.00038277
4150.0 0.00039369
4170.0 0.00038283
4190.0 0.0003817
4210.0 0.00038312
4230.0 0.00043435
4250.0 0.00047931
4270.0 0.0004921
4290.0 0.00049027
4310.0 0.00049214
4330.0 0.00053616
4350.0 0.00063067
4370.0 0.00072282
4390.0 0.00066646
4410.0 0.00052091
4430.0 0.00043074
4450.0 0.00037196
4470.0 0.0003526
4490.0 0.00040125
4510.0 0.00048295
4530.0 0.00054298
4550.0 0.00061324
4570.0 0.0006993
4590.0 0.0008348
4610.0 0.0011324
4630.0 0.0014106
4650.0 0.001427
4670.0 0.0013506
4690.0 0.0014389
4710.0 0.0015285
4730.0 0.001285
4750.0 0.00089662
4770.0 0.00071822
4790.0 0.0007096
4810.0 0.00066789
4830.0 0.00063261
4850.0 0.00071845
4870.0 0.00093581
4890.0 0.0010853
4910.0 0.00090328
4930.0 0.00080249
4950.0 0.00089927
4970.0 0.0012107
4990.0 0.0015892
5010.0 0.0017198
5030.0 0.0014125
5050.0 0.00089292
5070.0 0.00061432
5090.0 0.00053707
5110.0 0.00055531
5130.0 0.00060436
5150.0 0.00062774
5170.0 0.00062328
5190.0 0.00060451
5210.0 0.00059116
5230.0 0.00062117
5250.0 0.00067194
5270.0 0.00074816
5290.0 0.00085844
5310.0 0.00097286
5330.0 0.0010002
5350.0 0.0010003
5370.0 0.0010929
5390.0 0.0012126
5410.0 0.0011591
5430.0 0.00097873
5450.0 0.00090539
5470.0 0.0010171
5490.0 0.0013048
5510.0 0.0016675
5530.0 0.0018708
5550.0 0.0017904
5570.0 0.0016134
5590.0 0.0014187
5610.0 0.0013264
5630.0 0.0012861
5650.0 0.0012983
5670.0 0.0012571
5690.0 0.0011412
5710.0 0.0010932
5730.0 0.0010073
5750.0 0.00068498
5770.0 0.00058294
5790.0 0.00066448
5810.0 0.00079713
5830.0 0.00094155
5850.0 0.0010616
5870.0 0.0010996
5890.0 0.0010604
5910.0 0.0010155
5930.0 0.0010127
5950.0 0.0010582
5970.0 0.0011595
5990.0 0.0010778
6010.0 0.00089428
6030.0 0.00074046
6050.0 0.00064238
6070.0 0.00065327
6090.0 0.00073988
6110.0 0.00080897
6130.0 0.0007741
6150.0 0.00069543
6170.0 0.00073135
6190.0 0.00088604
6210.0 0.0011148
6230.0 0.0013313
6250.0 0.0013474
6270.0 0.0011803
6290.0 0.00098063
6310.0 0.00077423
6330.0 0.00060735
6350.0 0.00054898
6370.0 0.00058921
6390.0 0.00070174
6410.0 0.00082332
6430.0 0.00096038
6450.0 0.001127
6470.0 0.001348
6490.0 0.0016606
6510.0 0.001848
6530.0 0.0017329
6550.0 0.0015871
6570.0 0.0015046
6590.0 0.0014488
6610.0 0.0012747
6630.0 0.0011669
6650.0 0.0010756
6670.0 0.0010958
6690.0 0.0010571
6710.0 0.00094768
6730.0 0.00081508
6750.0 0.00074864
6770.0 0.00075821
6790.0 0.00086434
6810.0 0.00084629
6830.0 0.0008699
6850.0 0.00083985
6870.0 0.00080246
6890.0 0.00077402
6910.0 0.00076217
6930.0 0.00071314
6950.0 0.00074131
6970.0 0.00074933
6990.0 0.00083745
7010.0 0.00088785
7030.0 0.00083176
7050.0 0.00077417
7070.0 0.00074645
7090.0 0.00069868
7110.0 0.00066258
7130.0 0.00068618
7150.0 0.00073224
7170.0 0.00078433
7190.0 0.00079524
7210.0 0.00077147
7230.0 0.0007957
7250.0 0.00090442
7270.0 0.0010519
7290.0 0.0011611
7310.0 0.0011455
7330.0 0.001022
7350.0 0.00091338
7370.0 0.00084671
7390.0 0.00085754
7410.0 0.00091764
7430.0 0.0010061
7450.0 0.0010882
7470.0 0.0011696
7490.0 0.00127
7510.0 0.0013417
7530.0 0.001252
7550.0 0.0010543
7570.0 0.00082894
7590.0 0.00061058
7610.0 0.00054229
7630.0 0.00058688
7650.0 0.00067981
7670.0 0.00078883
7690.0 0.0008947
7710.0 0.00095564
7730.0 0.00098204
7750.0 0.0010264
7770.0 0.0010229
7790.0 0.0009849
7810.0 0.00098218
7830.0 0.00096372
7850.0 0.00088023
7870.0 0.00080005
7890.0 0.00071821
7910.0 0.00061297
7930.0 0.00053533
7950.0 0.00048532
7970.0 0.00047223
7990.0 0.00048486
8010.0 0.00051119
8030.0 0.0005123
8050.0 0.00051609
8070.0 0.00050774
8090.0 0.00052019
8110.0 0.00049073
8130.0 0.00042954
8150.0 0.0004036
8170.0 0.00037202
8190.0 0.00036826
8210.0 0.00039483
8230.0 0.00042245
8250.0 0.00039154
8270.0 0.00034907
8290.0 0.00028683
8310.0 0.00019771
8330.0 0.00012834
8350.0 9.349e-05
8370.0 9.9381e-05
8390.0 0.00011771
8410.0 0.00014954
8430.0 0.00018275
8450.0 0.00020181
8470.0 0.00022393
8490.0 0.00022016
8510.0 0.00022132
8530.0 0.00023117
8550.0 0.00027989
8570.0 0.00034483
8590.0 0.00039406
8610.0 0.00047637
8630.0 0.00055226
8650.0 0.00058115
8670.0 0.00059087
8690.0 0.00058741
8710.0 0.00054934
8730.0 0.00052736
8750.0 0.00048808
8770.0 0.00046872
8790.0 0.00046507
8810.0 0.00044342
8830.0 0.00037304
8850.0 0.00030744
8870.0 0.00025642
8890.0 0.00025066
8910.0 0.00027077
8930.0 0.0002874
8950.0 0.00032259
8970.0 0.0003277
8990.0 0.00032265
9010.0 0.00031029
9030.0 0.00030703
9050.0 0.00031004
9070.0 0.00031244
9090.0 0.00031423
9110.0 0.00031584
9130.0 0.00031727
9150.0 0.00031862
9170.0 0.00032004
9190.0 0.00032155
9210.0 0.00032319
9230.0 0.00032486
9250.0 0.00032665
9270.0 0.00032851
9290.0 0.00033045
9310.0 0.00033249
9330.0 0.0003346
9350.0 0.00033678
9370.0 0.00033905
9390.0 0.0003414
9410.0 0.00034382
9430.0 0.00034629
9450.0 0.00034888
9470.0 0.00035153
9490.0 0.00035424
9510.0 0.00035702
9530.0 0.0003599
9550.0 0.00036282
9570.0 0.0003658
9590.0 0.00036887
9610.0 0.000372
9630.0 0.00037517
9650.0 0.00037841
9670.0 0.00038174
9690.0 0.0003851
9710.0 0.00038851
9730.0 0.000392
9750.0 0.00039554
9770.0 0.00039909
9790.0 0.00040272
9810.0 0.0004064
9830.0 0.00041011
9850.0 0.00041386
9870.0 0.00041767
9890.0 0.0004215
9910.0 0.00042535
9930.0 0.00042925
9950.0 0.00043318
9970.0 0.00043712
9990.0 0.00044107
10010.0 0.00042475
10030.0 0.00042849
10050.0 0.00043221
10070.0 0.00043593
10090.0 0.00043973
10110.0 0.00044348
10130.0 0.00044723
10150.0 0.00045101
10170.0 0.00045477
10190.0 0.00045848
10210.0 0.00046221
10230.0 0.00046594
10250.0 0.00046961
10270.0 0.00047327
10290.0 0.00047693
10310.0 0.00048053
10330.0 0.00048407
10350.0 0.00048762
10370.0 0.00049113
10390.0 0.00049456
10410.0 0.00049795
10430.0 0.00050133
10450.0 0.00050462
10470.0 0.00050784
10490.0 0.00051103
10510.0 0.00051417
10530.0 0.00051718
10550.0 0.00052015
10570.0 0.00052308
10590.0 0.0005259
10610.0 0.00052863
10630.0 0.00053132
10650.0 0.00053393
10670.0 0.0005364
10690.0 0.0005388
10710.0 0.00054114
10730.0 0.00054336
10750.0 0.00054544
10770.0 0.0005475
10790.0 0.00054944
10810.0 0.00055124
10830.0 0.00055293
10850.0 0.00055452
10870.0 0.00055582
10890.0 0.0005568
10910.0 0.00055735
10930.0 0.00055715
10950.0 0.00055574
10970.0 0.00055292
10990.0 0.00054857
11010.0 0.00053276
11030.0 0.00052419
11050.0 0.00051403
11070.0 0.00050198
11090.0 0.00048751
11110.0 0.00047259
11130.0 0.00045703
11150.0 0.00044027
11170.0 0.00042309
11190.0 0.0004066
11210.0 0.00038976
11230.0 0.00037278
11250.0 0.00035689
11270.0 0.00034195
11290.0 0.00032732
11310.0 0.0003138
11330.0 0.00030217
11350.0 0.00029138
11370.0 0.00028156
11390.0 0.00027314
11410.0 0.00026575
11430.0 0.00025877
11450.0 0.00025254
11470.0 0.00024688
11490.0 0.00024129
11510.0 0.00023552
11530.0 0.00022983
11550.0 0.00022392
11570.0 0.00021742
11590.0 0.00021061
11610.0 0.00020366
11630.0 0.00019616
11650.0 0.00018825
11670.0 0.00018059
11690.0 0.00017297
11710.0 0.00016527
11730.0 0.00015795
11750.0 0.0001513
11770.0 0.00014488
11790.0 0.00013895
11810.0 0.00013377
11830.0 0.00012917
11850.0 0.00012493
11870.0 0.00012132
11890.0 0.00011824
11910.0 0.00011543
11930.0 0.00011285
11950.0 0.00011053
11970.0 0.00010828
11990.0 0.00010596
12010.0 0.00010366
12030.0 0.00010132
12050.0 9.8834e-05
12070.0 9.6199e-05
12090.0 9.3638e-05
12110.0 9.1027e-05
12130.0 8.839e-05
12150.0 8.5912e-05
12170.0 8.3666e-05
12190.0 8.1567e-05
12210.0 7.983e-05
12230.0 7.8529e-05
12250.0 7.7648e-05
12270.0 7.7253e-05
12290.0 7.7367e-05
12310.0 7.7939e-05
12330.0 7.9039e-05
12350.0 8.0608e-05
12370.0 8.2504e-05
12390.0 8.4769e-05
12410.0 8.748e-05
12430.0 9.0225e-05
12450.0 9.3043e-05
12470.0 9.6005e-05
12490.0 9.8912e-05
12510.0 0.00010155
12530.0 0.00010408
12550.0 0.00010642
12570.0 0.00010836
12590.0 0.00010992
12610.0 0.00011117
12630.0 0.000112
12650.0 0.00011235
12670.0 0.00011234
12690.0 0.00011194
12710.0 0.00011117
12730.0 0.00011008
12750.0 0.00010866
12770.0 0.00010697
12790.0 0.0001051
12810.0 0.000103
12830.0 0.0001007
12850.0 9.8337e-05
12870.0 9.5885e-05
12890.0 9.3268e-05
12910.0 9.0606e-05
12930.0 8.7959e-05
12950.0 8.5177e-05
12970.0 8.2305e-05
12990.0 7.9522e-05
13010.0 7.6719e-05
13030.0 7.3832e-05
13050.0 7.0997e-05
13070.0 6.8285e-05
13090.0 6.5528e-05
13110.0 6.2826e-05
13130.0 6.0305e-05
13150.0 5.7906e-05
13170.0 5.5562e-05
13190.0 5.3479e-05
13210.0 5.1656e-05
13230.0 5.0015e-05
13250.0 4.8629e-05
13270.0 4.7555e-05
13290.0 4.6746e-05
13310.0 4.6218e-05
13330.0 4.5999e-05
13350.0 4.6054e-05
13370.0 4.639e-05
13390.0 4.7001e-05
13410.0 4.7779e-05
13430.0 4.8756e-05
13450.0 4.9922e-05
13470.0 5.1168e-05
13490.0 5.2441e-05
13510.0 5.3841e-05
13530.0 5.5213e-05
13550.0 5.6482e-05
13570.0 5.7698e-05
13590.0 5.885e-05
13610.0 5.9834e-05
13630.0 6.0654e-05
13650.0 6.1371e-05
13670.0 6.1921e-05
13690.0 6.2294e-05
13710.0 6.2526e-05
13730.0 6.262e-05
13750.0 6.2555e-05
13770.0 6.2366e-05
13790.0 6.2058e-05
13810.0 6.1638e-05
13830.0 6.1137e-05
13850.0 6.0539e-05
13870.0 5.9849e-05
13890.0 5.9107e-05
13910.0 5.831e-05
13930.0 5.7431e-05
13950.0 5.6506e-05
13970.0 5.5587e-05
13990.0 5.4617e-05
14010.0 5.3616e-05
14030.0 5.2639e-05
14050.0 5.1678e-05
14070.0 5.0691e-05
14090.0 4.9765e-05
14110.0 4.8915e-05
14130.0 4.8111e-05
14150.0 4.7376e-05
14170.0 4.6765e-05
14190.0 4.6256e-05
14210.0 4.5847e-05
14230.0 4.5567e-05
14250.0 4.5415e-05
14270.0 4.5386e-05
14290.0 4.5494e-05
14310.0 4.5714e-05
14330.0 4.6046e-05
14350.0 4.6499e-05
14370.0 4.7038e-05
14390.0 4.7633e-05
14410.0 4.8323e-05
14430.0 4.9075e-05
14450.0 4.9843e-05
14470.0 5.0646e-05
14490.0 5.1519e-05
14510.0 5.2383e-05
14530.0 5.3242e-05
14550.0 5.4157e-05
14570.0 5.511e-05
14590.0 5.6064e-05
14610.0 5.7086e-05
14630.0 5.8218e-05
14650.0 5.9396e-05
14670.0 6.0643e-05
14690.0 6.2039e-05
14710.0 6.3575e-05
14730.0 6.5134e-05
14750.0 6.6839e-05
14770.0 6.8701e-05
14790.0 7.0611e-05
14810.0 7.2552e-05
14830.0 7.4678e-05
14850.0 7.6803e-05
14870.0 7.8847e-05
14890.0 8.0883e-05
14910.0 8.2883e-05
14930.0 8.4673e-05
14950.0 8.6244e-05
14970.0 8.7645e-05
14990.0 8.8755e-05
15010.0 8.956e-05
15030.0 9.0119e-05
15050.0 9.0452e-05
15070.0 9.0584e-05
15090.0 9.0593e-05
15110.0 9.0513e-05
15130.0 9.0382e-05
15150.0 9.0232e-05
15170.0 9.0062e-05
15190.0 8.9883e-05
15210.0 8.971e-05
15230.0 8.954e-05
15250.0 8.936e-05
15270.0 8.9184e-05
15290.0 8.9021e-05
15310.0 8.8851e-05
15330.0 8.8679e-05
15350.0 8.8515e-05
15370.0 8.8354e-05
15390.0 8.818e-05
15410.0 8.8014e-05
15430.0 8.7855e-05
15450.0 8.769e-05
15470.0 8.752e-05
15490.0 8.7363e-05
15510.0 8.7205e-05
15530.0 8.7038e-05
15550.0 8.6876e-05
15570.0 8.6721e-05
15590.0 8.6556e-05
15610.0 8.6387e-05
15630.0 8.623e-05
15650.0 8.6071e-05
15670.0 8.5904e-05
15690.0 8.5742e-05
15710.0 8.5587e-05
15730.0 8.542e-05
15750.0 8.5253e-05
15770.0 8.5093e-05
15790.0 8.4931e-05
15810.0 8.4757e-05
15830.0 8.4591e-05
15850.0 8.4431e-05
15870.0 8.4261e-05
15890.0 8.4089e-05
15910.0 8.3927e-05
15930.0 8.3758e-05
15950.0 8.3579e-05
15970.0 8.3408e-05
15990.0 8.3239e-05
16010.0 8.306e-05
16030.0 8.2878e-05
16050.0 8.2708e-05
16070.0 8.2531e-05
16090.0 8.2347e-05
16110.0 8.2168e-05
16130.0 8.1992e-05
16150.0 8.18e-05
16170.0 8.1611e-05
16190.0 8.1429e-05
16210.0 8.1241e-05
16230.0 8.1044e-05
16250.0 8.0856e-05
16270.0 8.0668e-05
16290.0 8.0469e-05
16310.0 8.027e-05
16330.0 8.0077e-05
16350.0 7.9877e-05
16370.0 7.9664e-05
16390.0 7.9464e-05
16410.0 7.9263e-05
16430.0 7.9052e-05
16450.0 7.8841e-05
16470.0 7.8638e-05
16490.0 7.8423e-05
16510.0 7.8202e-05
16530.0 7.7988e-05
16550.0 7.7773e-05
16570.0 7.7546e-05
16590.0 7.732e-05
16610.0 7.7104e-05
16630.0 7.6877e-05
16650.0 7.6644e-05
16670.0 7.6419e-05
16690.0 7.6191e-05
16710.0 7.5948e-05
16730.0 7.5711e-05
16750.0 7.5479e-05
16770.0 7.5237e-05
16790.0 7.4989e-05
16810.0 7.4751e-05
16830.0 7.4509e-05
16850.0 7.4257e-05
16870.0 7.4008e-05
16890.0 7.3763e-05
16910.0 7.3506e-05
16930.0 7.3243e-05
16950.0 7.2992e-05
16970.0 7.2736e-05
16990.0 7.247e-05
17010.0 7.2208e-05
17030.0 7.1952e-05
17050.0 7.1682e-05
17070.0 7.1411e-05
17090.0 7.1146e-05
17110.0 7.0877e-05
17130.0 7.0595e-05
17150.0 7.0321e-05
17170.0 7.0052e-05
17190.0 6.9771e-05
17210.0 6.9489e-05
17230.0 6.9215e-05
17250.0 6.8933e-05
17270.0 6.8641e-05
17290.0 6.8357e-05
17310.0 6.8075e-05
17330.0 6.7782e-05
17350.0 6.7486e-05
17370.0 6.7203e-05
17390.0 6.6911e-05
17410.0 6.6612e-05
17430.0 6.632e-05
17450.0 6.603e-05
17470.0 6.5723e-05
17490.0 6.542e-05
17510.0 6.5125e-05
17530.0 6.4824e-05
17550.0 6.4515e-05
17570.0 6.4215e-05
17590.0 6.3916e-05
17610.0 6.3604e-05
17630.0 6.3296e-05
17650.0 6.2994e-05
17670.0 6.2684e-05
17690.0 6.2363e-05
17710.0 6.2058e-05
17730.0 6.175e-05
17750.0 6.1433e-05
17770.0 6.1119e-05
17790.0 6.0813e-05
17810.0 6.0495e-05
17830.0 6.0174e-05
17850.0 5.9861e-05
17870.0 5.9547e-05
17890.0 5.9223e-05
17910.0 5.8902e-05
17930.0 5.8592e-05
17950.0 5.8271e-05
17970.0 5.7948e-05
17990.0 5.7633e-05
18010.0 5.7316e-05
18030.0 5.6986e-05
18050.0 5.6665e-05
18070.0 5.6349e-05
18090.0 5.6025e-05
18110.0 5.5697e-05
18130.0 5.5381e-05
18150.0 5.5062e-05
18170.0 5.4734e-05
18190.0 5.4412e-05
18210.0 5.4095e-05
18230.0 5.3768e-05
18250.0 5.3438e-05
18270.0 5.3121e-05
18290.0 5.28e-05
18310.0 5.2472e-05
18330.0 5.2151e-05
18350.0 5.1835e-05
18370.0 5.1508e-05
18390.0 5.1182e-05
18410.0 5.0864e-05
18430.0 5.0544e-05
18450.0 5.0213e-05
18470.0 4.9893e-05
18490.0 4.9578e-05
18510.0 4.9254e-05
18530.0 4.8931e-05
18550.0 4.8618e-05
18570.0 4.8298e-05
18590.0 4.7971e-05
18610.0 4.7654e-05
18630.0 4.734e-05
18650.0 4.7018e-05
18670.0 4.6696e-05
18690.0 4.6386e-05
18710.0 4.607e-05
18730.0 4.575e-05
18750.0 4.5438e-05
18770.0 4.5128e-05
18790.0 4.4806e-05
18810.0 4.449e-05
18830.0 4.4183e-05
18850.0 4.387e-05
18870.0 4.3554e-05
18890.0 4.3247e-05
18910.0 4.2942e-05
18930.0 4.2628e-05
18950.0 4.2319e-05
18970.0 4.2016e-05
18990.0 4.1708e-05
19010.0 4.1393e-05
19030.0 4.1093e-05
19050.0 4.0792e-05
19070.0 4.0485e-05
19090.0 4.0182e-05
19110.0 3.9888e-05
19130.0 3.9583e-05
19150.0 3.9279e-05
19170.0 3.8983e-05
19190.0 3.8687e-05
19210.0 3.8384e-05
19230.0 3.8087e-05
19250.0 3.7798e-05
19270.0 3.7503e-05
19290.0 3.7206e-05
19310.0 3.6919e-05
19330.0 3.663e-05
19350.0 3.6332e-05
19370.0 3.6043e-05
19390.0 3.5759e-05
19410.0 3.547e-05
19430.0 3.5179e-05
19450.0 3.49e-05
19470.0 3.4618e-05
19490.0 3.433e-05
19510.0 3.4049e-05
19530.0 3.3774e-05
19550.0 3.3489e-05
19570.0 3.3205e-05
19590.0 3.2933e-05
19610.0 3.2657e-05
19630.0 3.2377e-05
19650.0 3.2105e-05
19670.0 3.1837e-05
19690.0 3.1561e-05
19710.0 3.1287e-05
19730.0 3.1021e-05
19750.0 3.0753e-05
19770.0 3.0477e-05
19790.0 3.0213e-05
19810.0 2.9952e-05
19830.0 2.9684e-05
19850.0 2.9416e-05
19870.0 2.9156e-05
19890.0 2.8884e-05
19910.0 2.8597e-05
19930.0 2.8304e-05
19950.0 2.7989e-05
19970.0 2.763e-05
19990.0 2.7229e-05
20010.0 2.7336e-05
20030.0 2.6835e-05
20050.0 2.6277e-05
20070.0 2.5696e-05
20090.0 2.5092e-05
20110.0 2.4435e-05
20130.0 2.3789e-05
20150.0 2.3164e-05
20170.0 2.2534e-05
20190.0 2.1909e-05
20210.0 2.1328e-05
20230.0 2.0771e-05
20250.0 2.0222e-05
20270.0 1.9718e-05
20290.0 1.9261e-05
20310.0 1.8831e-05
20330.0 1.8433e-05
20350.0 1.8103e-05
20370.0 1.7811e-05
20390.0 1.7559e-05
20410.0 1.7358e-05
20430.0 1.7206e-05
20450.0 1.7091e-05
20470.0 1.7022e-05
20490.0 1.6995e-05
20510.0 1.7004e-05
20530.0 1.7051e-05
20550.0 1.7128e-05
20570.0 1.7229e-05
20590.0 1.7359e-05
20610.0 1.7512e-05
20630.0 1.7675e-05
20650.0 1.7856e-05
20670.0 1.806e-05
20690.0 1.8263e-05
20710.0 1.847e-05
20730.0 1.8689e-05
20750.0 1.8915e-05
20770.0 1.9131e-05
20790.0 1.9354e-05
20810.0 1.9587e-05
20830.0 1.9814e-05
20850.0 2.0039e-05
20870.0 2.0278e-05
20890.0 2.052e-05
20910.0 2.0751e-05
20930.0 2.099e-05
20950.0 2.1239e-05
20970.0 2.1481e-05
20990.0 2.1721e-05
21010.0 2.1976e-05
21030.0 2.2226e-05
21050.0 2.2466e-05
21070.0 2.2707e-05
21090.0 2.2952e-05
21110.0 2.3177e-05
21130.0 2.339e-05
21150.0 2.3601e-05
21170.0 2.3797e-05
21190.0 2.3969e-05
21210.0 2.4133e-05
21230.0 2.4281e-05
21250.0 2.44e-05
21270.0 2.4496e-05
21290.0 2.4571e-05
21310.0 2.4617e-05
21330.0 2.4632e-05
21350.0 2.4617e-05
21370.0 2.4568e-05
21390.0 2.4484e-05
21410.0 2.4366e-05
21430.0 2.4201e-05
21450.0 2.4001e-05
21470.0 2.3769e-05
21490.0 2.3493e-05
21510.0 2.3177e-05
21530.0 2.2841e-05
21550.0 2.2476e-05
21570.0 2.2071e-05
21590.0 2.1656e-05
21610.0 2.1238e-05
21630.0 2.0803e-05
21650.0 2.0357e-05
21670.0 1.9949e-05
21690.0 1.955e-05
21710.0 1.9165e-05
21730.0 1.8817e-05
21750.0 1.8513e-05
21770.0 1.8234e-05
21790.0 1.8004e-05
21810.0 1.7829e-05
21830.0 1.7701e-05
21850.0 1.7623e-05
21870.0 1.7599e-05
21890.0 1.7622e-05
21910.0 1.7696e-05
21930.0 1.7818e-05
21950.0 1.7978e-05
21970.0 1.8181e-05
21990.0 1.8433e-05
22010.0 1.8708e-05
22030.0 1.9007e-05
22050.0 1.9342e-05
22070.0 1.97e-05
22090.0 2.0056e-05
22110.0 2.0433e-05
22130.0 2.0829e-05
22150.0 2.1214e-05
22170.0 2.1592e-05
22190.0 2.1981e-05
22210.0 2.2356e-05
22230.0 2.2696e-05
22250.0 2.3025e-05
22270.0 2.3335e-05
22290.0 2.3606e-05
22310.0 2.3841e-05
22330.0 2.4052e-05
22350.0 2.4218e-05
22370.0 2.4337e-05
22390.0 2.4416e-05
22410.0 2.4447e-05
22430.0 2.4429e-05
22450.0 2.4364e-05
22470.0 2.4248e-05
22490.0 2.4083e-05
22510.0 2.3878e-05
22530.0 2.3617e-05
22550.0 2.3302e-05
22570.0 2.2955e-05
22590.0 2.2566e-05
22610.0 2.2122e-05
22630.0 2.1645e-05
22650.0 2.1153e-05
22670.0 2.0611e-05
22690.0 2.0034e-05
