#lamb flux
1010.0 1.0145e-06
1030.0 1.1383e-06
1050.0 1.2806e-06
1070.0 1.4409e-06
1090.0 1.6229e-06
1110.0 1.8096e-06
1130.0 1.9975e-06
1150.0 2.1943e-06
1170.0 2.3973e-06
1190.0 2.5898e-06
1210.0 2.7849e-06
1230.0 2.9865e-06
1250.0 3.1841e-06
1270.0 3.3759e-06
1290.0 3.5786e-06
1310.0 3.7811e-06
1330.0 3.9754e-06
1350.0 4.1718e-06
1370.0 4.3746e-06
1390.0 4.5723e-06
1410.0 4.7641e-06
1430.0 4.9646e-06
1450.0 5.165e-06
1470.0 5.3587e-06
1490.0 5.5545e-06
1510.0 5.7612e-06
1530.0 5.9571e-06
1550.0 6.1502e-06
1570.0 6.3499e-06
1590.0 6.5497e-06
1610.0 6.7405e-06
1630.0 6.9371e-06
1650.0 7.1386e-06
1670.0 7.3334e-06
1690.0 7.5254e-06
1710.0 7.7246e-06
1730.0 7.9246e-06
1750.0 8.1121e-06
1770.0 8.3048e-06
1790.0 8.5009e-06
1810.0 8.69e-06
1830.0 8.8749e-06
1850.0 9.0707e-06
1870.0 9.2603e-06
1890.0 9.4421e-06
1910.0 9.6265e-06
1930.0 9.8141e-06
1950.0 9.9911e-06
1970.0 1.0164e-05
1990.0 1.0342e-05
2010.0 1.0514e-05
2030.0 1.0677e-05
2050.0 1.0842e-05
2070.0 1.101e-05
2090.0 1.1162e-05
2110.0 1.1311e-05
2130.0 1.146e-05
2150.0 1.1602e-05
2170.0 1.1731e-05
2190.0 1.1861e-05
2210.0 1.1987e-05
2230.0 1.21e-05
2250.0 1.2205e-05
2270.0 1.2312e-05
2290.0 1.2407e-05
2310.0 1.2487e-05
2330.0 1.2565e-05
2350.0 1.2639e-05
2370.0 1.2699e-05
2390.0 1.2758e-05
2410.0 1.2826e-05
2430.0 1.2895e-05
2450.0 1.2973e-05
2470.0 1.3079e-05
2490.0 1.3221e-05
2510.0 1.3384e-05
2530.0 1.3612e-05
2550.0 1.3962e-05
2570.0 1.4484e-05
2590.0 1.5261e-05
2610.0 1.6539e-05
2630.0 1.8395e-05
2650.0 2.0757e-05
2670.0 2.368e-05
2690.0 2.7072e-05
2710.0 3.0431e-05
2730.0 3.3482e-05
2750.0 3.6238e-05
2770.0 3.8364e-05
2790.0 3.979e-05
2810.0 4.0702e-05
2830.0 4.1224e-05
2850.0 4.1351e-05
2870.0 4.1272e-05
2890.0 4.1089e-05
2910.0 4.0831e-05
2930.0 4.0517e-05
2950.0 4.0206e-05
2970.0 3.9902e-05
2990.0 3.959e-05
3010.0 0.0010259
3030.0 0.0010181
3050.0 0.0010105
3070.0 0.0010022
3090.0 0.00099366
3110.0 0.00098375
3130.0 0.00097133
3150.0 0.00095574
3170.0 0.00093558
3190.0 0.00091132
3210.0 0.00088468
3230.0 0.00085714
3250.0 0.00083167
3270.0 0.00081342
3290.0 0.00080308
3310.0 0.00080397
3330.0 0.00081504
3350.0 0.00083474
3370.0 0.00086335
3390.0 0.00089982
3410.0 0.00093986
3430.0 0.0009853
3450.0 0.0010379
3470.0 0.0010955
3490.0 0.0011568
3510.0 0.0012261
3530.0 0.0013007
3550.0 0.001378
3570.0 0.0014613
3590.0 0.0015551
3610.0 0.0016563
3630.0 0.0017611
3650.0 0.0018719
3670.0 0.0019748
3690.0 0.002054
3710.0 0.002099
3730.0 0.0020925
3750.0 0.002033
3770.0 0.0019479
3790.0 0.0018068
3810.0 0.0015511
3830.0 0.0013915
3850.0 0.0013704
3870.0 0.0010405
3890.0 0.0012139
3910.0 0.0017961
3930.0 0.0022454
3950.0 0.0023047
3970.0 0.0025342
3990.0 0.002582
4010.0 0.0035764
4030.0 0.0034424
4050.0 0.0030484
4070.0 0.0030143
4090.0 0.0028813
4110.0 0.0032726
4130.0 0.0036745
4150.0 0.0040591
4170.0 0.0037253
4190.0 0.0035884
4210.0 0.0037052
4230.0 0.0043361
4250.0 0.0048609
4270.0 0.0050776
4290.0 0.0049304
4310.0 0.0048185
4330.0 0.0051425
4350.0 0.0062096
4370.0 0.0072225
4390.0 0.0063967
4410.0 0.004661
4430.0 0.0037512
4450.0 0.0032741
4470.0 0.0029656
4490.0 0.0035986
4510.0 0.0048455
4530.0 0.0055708
4550.0 0.0060465
4570.0 0.0065255
4590.0 0.0076261
4610.0 0.011259
4630.0 0.014476
4650.0 0.014314
4670.0 0.013252
4690.0 0.01409
4710.0 0.014985
4730.0 0.012428
4750.0 0.0084335
4770.0 0.0065739
4790.0 0.0067016
4810.0 0.0064516
4830.0 0.0061746
4850.0 0.0069421
4870.0 0.0091061
4890.0 0.010606
4910.0 0.0086241
4930.0 0.0077834
4950.0 0.008774
4970.0 0.011845
4990.0 0.015697
5010.0 0.017285
5030.0 0.014032
5050.0 0.0086917
5070.0 0.0060301
5090.0 0.0051331
5110.0 0.0051989
5130.0 0.0057596
5150.0 0.0058685
5170.0 0.0057633
5190.0 0.0055064
5210.0 0.005493
5230.0 0.0060108
5250.0 0.0066319
5270.0 0.0070464
5290.0 0.0080041
5310.0 0.0094518
5330.0 0.0097597
5350.0 0.0097017
5370.0 0.010705
5390.0 0.01228
5410.0 0.011379
5430.0 0.0093097
5450.0 0.0087715
5470.0 0.0099651
5490.0 0.012769
5510.0 0.016212
5530.0 0.01836
5550.0 0.017268
5570.0 0.015491
5590.0 0.013375
5610.0 0.01277
5630.0 0.012855
5650.0 0.012721
5670.0 0.012171
5690.0 0.010719
5710.0 0.010447
5730.0 0.0097983
5750.0 0.006218
5770.0 0.0051303
5790.0 0.0059648
5810.0 0.0070295
5830.0 0.0088001
5850.0 0.010288
5870.0 0.010719
5890.0 0.010275
5910.0 0.0098554
5930.0 0.0097664
5950.0 0.010186
5970.0 0.011557
5990.0 0.010404
6010.0 0.0084546
6030.0 0.0069625
6050.0 0.0060655
6070.0 0.006426
6090.0 0.0073074
6110.0 0.007865
6130.0 0.0074219
6150.0 0.006451
6170.0 0.006453
6190.0 0.0078812
6210.0 0.010384
6230.0 0.013006
6250.0 0.013319
6270.0 0.011276
6290.0 0.0094212
6310.0 0.0073762
6330.0 0.005687
6350.0 0.0052215
6370.0 0.0055639
6390.0 0.0066708
6410.0 0.0080012
6430.0 0.0094153
6450.0 0.011201
6470.0 0.012992
6490.0 0.015957
6510.0 0.017836
6530.0 0.01699
6550.0 0.015566
6570.0 0.01426
6590.0 0.01377
6610.0 0.011916
6630.0 0.011231
6650.0 0.010435
6670.0 0.010304
6690.0 0.0095494
6710.0 0.0086989
6730.0 0.0067932
6750.0 0.0065396
6770.0 0.007162
6790.0 0.0085226
6810.0 0.0077611
6830.0 0.0079759
6850.0 0.0075061
6870.0 0.0071617
6890.0 0.0067603
6910.0 0.0068907
6930.0 0.0064356
6950.0 0.0069068
6970.0 0.0069755
6990.0 0.0077857
7010.0 0.0081499
7030.0 0.0079256
7050.0 0.0072607
7070.0 0.0068435
7090.0 0.0065838
7110.0 0.0063605
7130.0 0.006734
7150.0 0.007329
7170.0 0.0079386
7190.0 0.0081129
7210.0 0.0076519
7230.0 0.0078286
7250.0 0.0088014
7270.0 0.01011
7290.0 0.011423
7310.0 0.011394
7330.0 0.01021
7350.0 0.0091078
7370.0 0.007982
7390.0 0.0081529
7410.0 0.0090507
7430.0 0.0099985
7450.0 0.010798
7470.0 0.011213
7490.0 0.011652
7510.0 0.013669
7530.0 0.012564
7550.0 0.010794
7570.0 0.0080995
7590.0 0.0053374
7610.0 0.0045737
7630.0 0.0052088
7650.0 0.0061891
7670.0 0.0077255
7690.0 0.0087609
7710.0 0.0089637
7730.0 0.0090931
7750.0 0.010008
7770.0 0.010025
7790.0 0.0095225
7810.0 0.0090646
7830.0 0.0090676
7850.0 0.0086312
7870.0 0.0079934
7890.0 0.0069183
7910.0 0.0055588
7930.0 0.0050171
7950.0 0.0045268
7970.0 0.0042691
7990.0 0.004269
8010.0 0.0044253
8030.0 0.0043823
8050.0 0.0044656
8070.0 0.0044673
8090.0 0.0047014
8110.0 0.0044216
8130.0 0.0036537
8150.0 0.0034548
8170.0 0.0030116
8190.0 0.0028728
8210.0 0.0033244
8230.0 0.0036206
8250.0 0.003089
8270.0 0.0027333
8290.0 0.002425
8310.0 0.0017187
8330.0 0.0011033
8350.0 0.00082089
8370.0 0.00075442
8390.0 0.00099529
8410.0 0.0012507
8430.0 0.0015381
8450.0 0.0017067
8470.0 0.0020214
8490.0 0.0019176
8510.0 0.0018553
8530.0 0.0017976
8550.0 0.0024437
8570.0 0.0031509
8590.0 0.0033164
8610.0 0.004139
8630.0 0.0047479
8650.0 0.0046094
8670.0 0.004869
8690.0 0.0051747
8710.0 0.0047816
8730.0 0.0046804
8750.0 0.0042076
8770.0 0.0039965
8790.0 0.004046
8810.0 0.0039431
8830.0 0.0031065
8850.0 0.002412
8870.0 0.0019804
8890.0 0.0021295
8910.0 0.002462
8930.0 0.0027414
8950.0 0.0031048
8970.0 0.0031229
8990.0 0.0029208
9010.0 0.0026073
9030.0 0.0025098
9050.0 0.0025468
9070.0 0.002578
9090.0 0.0026018
9110.0 0.0026259
9130.0 0.0026452
9150.0 0.0026615
9170.0 0.0026788
9190.0 0.0026972
9210.0 0.0027165
9230.0 0.0027369
9250.0 0.0027583
9270.0 0.0027804
9290.0 0.0028034
9310.0 0.0028271
9330.0 0.0028515
9350.0 0.0028767
9370.0 0.0029026
9390.0 0.0029292
9410.0 0.0029566
9430.0 0.0029846
9450.0 0.0030134
9470.0 0.0030428
9490.0 0.003073
9510.0 0.0031038
9530.0 0.0031354
9550.0 0.0031675
9570.0 0.0032003
9590.0 0.0032338
9610.0 0.003268
9630.0 0.0033027
9650.0 0.003338
9670.0 0.003374
9690.0 0.0034105
9710.0 0.0034476
9730.0 0.0034853
9750.0 0.0035234
9770.0 0.0035621
9790.0 0.0036013
9810.0 0.0036409
9830.0 0.003681
9850.0 0.0037216
9870.0 0.0037626
9890.0 0.0038039
9910.0 0.0038456
9930.0 0.0038877
9950.0 0.0039301
9970.0 0.0039727
9990.0 0.0040156
10010.0 0.0038175
10030.0 0.0038573
10050.0 0.0038972
10070.0 0.0039369
10090.0 0.0039773
10110.0 0.0040176
10130.0 0.0040579
10150.0 0.0040983
10170.0 0.0041386
10190.0 0.0041788
10210.0 0.004219
10230.0 0.0042591
10250.0 0.0042989
10270.0 0.0043386
10290.0 0.0043782
10310.0 0.0044174
10330.0 0.0044562
10350.0 0.0044949
10370.0 0.0045332
10390.0 0.0045711
10410.0 0.0046085
10430.0 0.0046457
10450.0 0.0046823
10470.0 0.0047182
10490.0 0.0047538
10510.0 0.0047888
10530.0 0.004823
10550.0 0.0048566
10570.0 0.0048897
10590.0 0.004922
10610.0 0.0049535
10630.0 0.0049844
10650.0 0.0050145
10670.0 0.0050436
10690.0 0.005072
10710.0 0.0050996
10730.0 0.0051262
10750.0 0.0051518
10770.0 0.0051767
10790.0 0.0052006
10810.0 0.0052232
10830.0 0.0052448
10850.0 0.0052652
10870.0 0.0052831
10890.0 0.0052978
10910.0 0.0053081
10930.0 0.0053111
10950.0 0.0053023
10970.0 0.0052795
10990.0 0.0052414
11010.0 0.0051592
11030.0 0.0050789
11050.0 0.0049823
11070.0 0.0048669
11090.0 0.0047277
11110.0 0.0045835
11130.0 0.0044329
11150.0 0.0042704
11170.0 0.0041034
11190.0 0.0039424
11210.0 0.0037775
11230.0 0.0036104
11250.0 0.0034531
11270.0 0.0033044
11290.0 0.0031579
11310.0 0.0030215
11330.0 0.0029033
11350.0 0.002793
11370.0 0.0026921
11390.0 0.0026051
11410.0 0.0025288
11430.0 0.0024568
11450.0 0.002393
11470.0 0.0023357
11490.0 0.0022798
11510.0 0.002223
11530.0 0.0021677
11550.0 0.0021109
11570.0 0.002049
11590.0 0.0019842
11610.0 0.0019182
11630.0 0.001847
11650.0 0.0017717
11670.0 0.0016984
11690.0 0.0016252
11710.0 0.0015508
11730.0 0.0014797
11750.0 0.0014147
11770.0 0.0013516
11790.0 0.0012931
11810.0 0.0012417
11830.0 0.0011958
11850.0 0.0011533
11870.0 0.0011173
11890.0 0.0010865
11910.0 0.0010586
11930.0 0.0010333
11950.0 0.0010108
11970.0 0.00098941
11990.0 0.00096778
12010.0 0.00094653
12030.0 0.00092517
12050.0 0.00090255
12070.0 0.00087869
12090.0 0.00085543
12110.0 0.00083166
12130.0 0.00080755
12150.0 0.00078471
12170.0 0.00076384
12190.0 0.00074414
12210.0 0.00072758
12230.0 0.00071489
12250.0 0.00070593
12270.0 0.00070134
12290.0 0.0007014
12310.0 0.00070569
12330.0 0.00071487
12350.0 0.00072843
12370.0 0.00074514
12390.0 0.00076538
12410.0 0.00078992
12430.0 0.00081497
12450.0 0.00084088
12470.0 0.00086835
12490.0 0.00089554
12510.0 0.00092037
12530.0 0.0009445
12550.0 0.00096705
12570.0 0.0009859
12590.0 0.0010014
12610.0 0.0010142
12630.0 0.001023
12650.0 0.0010274
12670.0 0.0010283
12690.0 0.0010255
12710.0 0.0010191
12730.0 0.0010096
12750.0 0.00099681
12770.0 0.00098132
12790.0 0.00096386
12810.0 0.00094417
12830.0 0.00092231
12850.0 0.00089985
12870.0 0.00087645
12890.0 0.00085146
12910.0 0.00082605
12930.0 0.00080082
12950.0 0.0007744
12970.0 0.00074722
12990.0 0.00072097
13010.0 0.00069464
13030.0 0.00066762
13050.0 0.00064116
13070.0 0.00061588
13090.0 0.00059021
13110.0 0.00056504
13130.0 0.00054151
13150.0 0.00051905
13170.0 0.00049701
13190.0 0.00047728
13210.0 0.00045985
13230.0 0.00044397
13250.0 0.00043033
13270.0 0.0004195
13290.0 0.00041102
13310.0 0.00040504
13330.0 0.00040192
13350.0 0.00040136
13370.0 0.0004034
13390.0 0.00040807
13410.0 0.00041447
13430.0 0.00042283
13450.0 0.00043312
13470.0 0.00044436
13490.0 0.00045606
13510.0 0.00046914
13530.0 0.00048217
13550.0 0.00049441
13570.0 0.0005063
13590.0 0.00051774
13610.0 0.00052768
13630.0 0.00053613
13650.0 0.00054366
13670.0 0.00054963
13690.0 0.00055389
13710.0 0.0005568
13730.0 0.00055838
13750.0 0.00055836
13770.0 0.00055711
13790.0 0.00055468
13810.0 0.00055112
13830.0 0.00054672
13850.0 0.00054135
13870.0 0.00053506
13890.0 0.00052823
13910.0 0.00052084
13930.0 0.00051264
13950.0 0.00050398
13970.0 0.00049534
13990.0 0.0004862
14010.0 0.00047672
14030.0 0.00046747
14050.0 0.00045833
14070.0 0.0004489
14090.0 0.00044003
14110.0 0.00043184
14130.0 0.00042405
14150.0 0.00041688
14170.0 0.00041086
14190.0 0.00040576
14210.0 0.00040159
14230.0 0.00039863
14250.0 0.00039686
14270.0 0.00039626
14290.0 0.00039694
14310.0 0.00039872
14330.0 0.0004016
14350.0 0.00040564
14370.0 0.00041054
14390.0 0.00041605
14410.0 0.00042251
14430.0 0.00042961
14450.0 0.00043693
14470.0 0.00044464
14490.0 0.00045304
14510.0 0.00046137
14530.0 0.00046964
14550.0 0.00047839
14570.0 0.00048743
14590.0 0.00049636
14610.0 0.0005058
14630.0 0.0005161
14650.0 0.00052665
14670.0 0.00053768
14690.0 0.00054989
14710.0 0.00056324
14730.0 0.00057674
14750.0 0.0005915
14770.0 0.00060767
14790.0 0.00062435
14810.0 0.00064143
14830.0 0.00066034
14850.0 0.00067947
14870.0 0.00069812
14890.0 0.00071697
14910.0 0.00073576
14930.0 0.00075286
14950.0 0.0007681
14970.0 0.0007819
14990.0 0.00079304
15010.0 0.0008013
15030.0 0.00080722
15050.0 0.00081096
15070.0 0.00081271
15090.0 0.00081323
15110.0 0.00081288
15130.0 0.00081202
15150.0 0.00081095
15170.0 0.00080969
15190.0 0.00080834
15210.0 0.00080705
15230.0 0.00080578
15250.0 0.00080443
15270.0 0.00080311
15290.0 0.00080191
15310.0 0.00080065
15330.0 0.00079936
15350.0 0.00079817
15370.0 0.00079698
15390.0 0.00079569
15410.0 0.00079447
15430.0 0.00079331
15450.0 0.0007921
15470.0 0.00079085
15490.0 0.00078971
15510.0 0.00078857
15530.0 0.00078735
15550.0 0.00078617
15570.0 0.00078505
15590.0 0.00078385
15610.0 0.00078261
15630.0 0.00078147
15650.0 0.00078032
15670.0 0.0007791
15690.0 0.00077792
15710.0 0.00077681
15730.0 0.00077559
15750.0 0.00077437
15770.0 0.00077321
15790.0 0.00077203
15810.0 0.00077074
15830.0 0.00076953
15850.0 0.00076836
15870.0 0.00076711
15890.0 0.00076584
15910.0 0.00076466
15930.0 0.00076341
15950.0 0.00076208
15970.0 0.00076081
15990.0 0.00075956
16010.0 0.00075823
16030.0 0.00075686
16050.0 0.0007556
16070.0 0.00075428
16090.0 0.00075288
16110.0 0.00075154
16130.0 0.00075022
16150.0 0.00074875
16170.0 0.00074731
16190.0 0.00074594
16210.0 0.0007445
16230.0 0.00074299
16250.0 0.00074154
16270.0 0.00074011
16290.0 0.00073856
16310.0 0.00073702
16330.0 0.00073553
16350.0 0.00073398
16370.0 0.0007323
16390.0 0.00073075
16410.0 0.00072918
16430.0 0.00072751
16450.0 0.00072584
16470.0 0.00072425
16490.0 0.00072254
16510.0 0.00072078
16530.0 0.00071908
16550.0 0.00071737
16570.0 0.00071554
16590.0 0.00071372
16610.0 0.00071199
16630.0 0.00071016
16650.0 0.00070827
16670.0 0.00070645
16690.0 0.00070461
16710.0 0.00070261
16730.0 0.00070068
16750.0 0.00069878
16770.0 0.0006968
16790.0 0.00069475
16810.0 0.0006928
16830.0 0.0006908
16850.0 0.00068871
16870.0 0.00068664
16890.0 0.00068461
16910.0 0.00068246
16930.0 0.00068027
16950.0 0.00067817
16970.0 0.00067602
16990.0 0.00067379
17010.0 0.00067159
17030.0 0.00066943
17050.0 0.00066715
17070.0 0.00066485
17090.0 0.00066261
17110.0 0.00066032
17130.0 0.00065792
17150.0 0.00065559
17170.0 0.00065329
17190.0 0.00065089
17210.0 0.00064847
17230.0 0.00064612
17250.0 0.0006437
17270.0 0.00064118
17290.0 0.00063873
17310.0 0.00063629
17330.0 0.00063376
17350.0 0.0006312
17370.0 0.00062874
17390.0 0.00062621
17410.0 0.00062361
17430.0 0.00062105
17450.0 0.00061853
17470.0 0.00061584
17490.0 0.00061319
17510.0 0.00061061
17530.0 0.00060797
17550.0 0.00060525
17570.0 0.00060261
17590.0 0.00059998
17610.0 0.00059723
17630.0 0.00059451
17650.0 0.00059184
17670.0 0.0005891
17690.0 0.00058626
17710.0 0.00058355
17730.0 0.00058081
17750.0 0.000578
17770.0 0.0005752
17790.0 0.00057248
17810.0 0.00056964
17830.0 0.00056678
17850.0 0.00056398
17870.0 0.00056117
17890.0 0.00055827
17910.0 0.0005554
17930.0 0.00055261
17950.0 0.00054973
17970.0 0.00054683
17990.0 0.00054399
18010.0 0.00054114
18030.0 0.00053817
18050.0 0.00053527
18070.0 0.00053242
18090.0 0.00052949
18110.0 0.00052653
18130.0 0.00052367
18150.0 0.00052078
18170.0 0.00051781
18190.0 0.00051489
18210.0 0.00051201
18230.0 0.00050903
18250.0 0.00050604
18270.0 0.00050315
18290.0 0.00050023
18310.0 0.00049724
18330.0 0.00049432
18350.0 0.00049144
18370.0 0.00048845
18390.0 0.00048548
18410.0 0.00048257
18430.0 0.00047964
18450.0 0.00047662
18470.0 0.00047369
18490.0 0.0004708
18510.0 0.00046783
18530.0 0.00046487
18550.0 0.000462
18570.0 0.00045906
18590.0 0.00045606
18610.0 0.00045314
18630.0 0.00045025
18650.0 0.00044729
18670.0 0.00044432
18690.0 0.00044147
18710.0 0.00043856
18730.0 0.00043561
18750.0 0.00043273
18770.0 0.00042988
18790.0 0.0004269
18810.0 0.00042399
18830.0 0.00042115
18850.0 0.00041826
18870.0 0.00041534
18890.0 0.0004125
18910.0 0.00040968
18930.0 0.00040677
18950.0 0.0004039
18970.0 0.0004011
18990.0 0.00039825
19010.0 0.00039533
19030.0 0.00039255
19050.0 0.00038976
19070.0 0.00038691
19090.0 0.0003841
19110.0 0.00038137
19130.0 0.00037854
19150.0 0.00037571
19170.0 0.00037297
19190.0 0.00037022
19210.0 0.0003674
19230.0 0.00036464
19250.0 0.00036195
19270.0 0.0003592
19290.0 0.00035645
19310.0 0.00035377
19330.0 0.00035109
19350.0 0.00034831
19370.0 0.00034562
19390.0 0.00034298
19410.0 0.00034028
19430.0 0.00033758
19450.0 0.00033498
19470.0 0.00033235
19490.0 0.00032967
19510.0 0.00032705
19530.0 0.00032448
19550.0 0.00032183
19570.0 0.00031918
19590.0 0.00031664
19610.0 0.00031408
19630.0 0.00031147
19650.0 0.00030893
19670.0 0.00030643
19690.0 0.00030385
19710.0 0.0003013
19730.0 0.00029882
19750.0 0.00029631
19770.0 0.00029375
19790.0 0.00029128
19810.0 0.00028884
19830.0 0.00028634
19850.0 0.00028385
19870.0 0.00028142
19890.0 0.00027888
19910.0 0.00027619
19930.0 0.00027345
19950.0 0.00027049
19970.0 0.00026711
19990.0 0.00026331
20010.0 0.00026289
20030.0 0.00025813
20050.0 0.00025281
20070.0 0.00024725
20090.0 0.00024145
20110.0 0.00023511
20130.0 0.00022884
20150.0 0.00022276
20170.0 0.00021659
20190.0 0.00021045
20210.0 0.00020473
20230.0 0.00019921
20250.0 0.00019375
20270.0 0.00018871
20290.0 0.00018412
20310.0 0.00017977
20330.0 0.00017572
20350.0 0.00017233
20370.0 0.00016932
20390.0 0.00016667
20410.0 0.00016451
20430.0 0.00016282
20450.0 0.00016149
20470.0 0.00016059
20490.0 0.0001601
20510.0 0.00015997
20530.0 0.00016019
20550.0 0.00016072
20570.0 0.00016148
20590.0 0.00016253
20610.0 0.00016381
20630.0 0.00016521
20650.0 0.00016678
20670.0 0.00016858
20690.0 0.0001704
20710.0 0.00017227
20730.0 0.00017427
20750.0 0.00017633
20770.0 0.00017832
20790.0 0.00018039
20810.0 0.00018254
20830.0 0.00018465
20850.0 0.00018674
20870.0 0.00018895
20890.0 0.00019118
20910.0 0.00019331
20930.0 0.0001955
20950.0 0.00019777
20970.0 0.00019997
20990.0 0.00020214
21010.0 0.00020444
21030.0 0.00020669
21050.0 0.00020884
21070.0 0.00021101
21090.0 0.00021321
21110.0 0.00021522
21130.0 0.00021714
21150.0 0.00021905
21170.0 0.00022082
21190.0 0.00022238
21210.0 0.00022388
21230.0 0.00022524
21250.0 0.00022634
21270.0 0.00022724
21290.0 0.00022795
21310.0 0.00022839
21330.0 0.00022853
21350.0 0.0002284
21370.0 0.00022794
21390.0 0.00022715
21410.0 0.00022603
21430.0 0.00022446
21450.0 0.00022255
21470.0 0.00022032
21490.0 0.00021768
21510.0 0.00021464
21530.0 0.0002114
21550.0 0.00020788
21570.0 0.00020399
21590.0 0.00019999
21610.0 0.00019597
21630.0 0.00019178
21650.0 0.0001875
21670.0 0.00018358
21690.0 0.00017975
21710.0 0.00017605
21730.0 0.00017272
21750.0 0.00016982
21770.0 0.00016715
21790.0 0.00016496
21810.0 0.00016329
21830.0 0.00016208
21850.0 0.00016133
21870.0 0.0001611
21890.0 0.00016132
21910.0 0.00016202
21930.0 0.00016316
21950.0 0.00016466
21970.0 0.00016654
21990.0 0.0001689
22010.0 0.00017145
22030.0 0.00017422
22050.0 0.00017731
22070.0 0.00018061
22090.0 0.00018388
22110.0 0.00018734
22130.0 0.00019097
22150.0 0.00019449
22170.0 0.00019794
22190.0 0.0002015
22210.0 0.00020493
22230.0 0.00020803
22250.0 0.00021104
22270.0 0.00021389
22290.0 0.00021638
22310.0 0.00021856
22330.0 0.00022053
22350.0 0.0002221
22370.0 0.00022325
22390.0 0.00022404
22410.0 0.00022443
22430.0 0.00022436
22450.0 0.00022388
22470.0 0.00022294
22490.0 0.00022155
22510.0 0.0002198
22530.0 0.00021754
22550.0 0.00021478
22570.0 0.00021172
22590.0 0.00020827
22610.0 0.0002043
22630.0 0.00020002
22650.0 0.00019558
22670.0 0.00019067
22690.0 0.00018542
22710.0 0.00018011
22730.0 0.00017462
22750.0 0.00016864
22770.0 0.00016278
22790.0 0.00015702
22810.0 0.00015109
22830.0 0.00014515
22850.0 0.00013958
22870.0 0.0001341
22890.0 0.00012865
22910.0 0.00012363
22930.0 0.00011904
22950.0 0.00011469
22970.0 0.00011071
22990.0 0.00010745
23010.0 0.00010462
23030.0 0.00010227
23050.0 0.00010053
23070.0 9.9388e-05
23090.0 9.8772e-05
23110.0 9.8773e-05
23130.0 9.9329e-05
23150.0 0.00010042
