#lamb flux
1010.0 9.2351e-05
1030.0 9.6731e-05
1050.0 0.00010757
1070.0 0.00011963
1090.0 0.00013221
1110.0 0.00014479
1130.0 0.0001571
1150.0 0.00016976
1170.0 0.00018252
1190.0 0.00019401
1210.0 0.00020526
1230.0 0.00021649
1250.0 0.00022709
1270.0 0.00023674
1290.0 0.00024661
1310.0 0.00025596
1330.0 0.00026434
1350.0 0.00027263
1370.0 0.00028126
1390.0 0.00028972
1410.0 0.00029821
1430.0 0.00030791
1450.0 0.00031856
1470.0 0.00033
1490.0 0.00034305
1510.0 0.00035853
1530.0 0.00037531
1550.0 0.00039413
1570.0 0.00041576
1590.0 0.00044
1610.0 0.00046643
1630.0 0.00049643
1650.0 0.00052977
1670.0 0.00056563
1690.0 0.00060422
1710.0 0.00064627
1730.0 0.00069116
1750.0 0.00073741
1770.0 0.00078623
1790.0 0.00083712
1810.0 0.00088854
1830.0 0.00094015
1850.0 0.00099291
1870.0 0.0010443
1890.0 0.0010935
1910.0 0.0011407
1930.0 0.0011856
1950.0 0.0012256
1970.0 0.0012609
1990.0 0.0012923
2010.0 0.001318
2030.0 0.0013372
2050.0 0.0013515
2070.0 0.0013607
2090.0 0.0013629
2110.0 0.0013597
2130.0 0.0013523
2150.0 0.0013401
2170.0 0.001323
2190.0 0.0013035
2210.0 0.0012814
2230.0 0.0012566
2250.0 0.0012303
2270.0 0.0012041
2290.0 0.0011771
2310.0 0.0011498
2330.0 0.0011239
2350.0 0.0010994
2370.0 0.0010759
2390.0 0.0010548
2410.0 0.0010369
2430.0 0.0010217
2450.0 0.0010097
2470.0 0.0010024
2490.0 0.0010004
2510.0 0.0010029
2530.0 0.0010132
2550.0 0.0010353
2570.0 0.0010727
2590.0 0.0011301
2610.0 0.0012226
2630.0 0.0013538
2650.0 0.0015185
2670.0 0.0017216
2690.0 0.0019603
2710.0 0.002208
2730.0 0.0024526
2750.0 0.0027013
2770.0 0.0029377
2790.0 0.0031584
2810.0 0.0033791
2830.0 0.0036139
2850.0 0.0038507
2870.0 0.0041022
2890.0 0.0043796
2910.0 0.004677
2930.0 0.0049848
2950.0 0.0053199
2970.0 0.0056802
2990.0 0.0060525
3010.0 0.0067163
3030.0 0.0071519
3050.0 0.0076046
3070.0 0.0080521
3090.0 0.0085048
3110.0 0.0089378
3130.0 0.0093158
3150.0 0.0096211
3170.0 0.0098203
3190.0 0.0099772
3210.0 0.010295
3230.0 0.010736
3250.0 0.01086
3270.0 0.010584
3290.0 0.01021
3310.0 0.010043
3330.0 0.010021
3350.0 0.01009
3370.0 0.010205
3390.0 0.010399
3410.0 0.010537
3430.0 0.010424
3450.0 0.010443
3470.0 0.010538
3490.0 0.011648
3510.0 0.014838
3530.0 0.018351
3550.0 0.020894
3570.0 0.022894
3590.0 0.024021
3610.0 0.023803
3630.0 0.023256
3650.0 0.024803
3670.0 0.028822
3690.0 0.032766
3710.0 0.035721
3730.0 0.038355
3750.0 0.040844
3770.0 0.040244
3790.0 0.03744
3810.0 0.03476
3830.0 0.032401
3850.0 0.031859
3870.0 0.034231
3890.0 0.037383
3910.0 0.039825
3930.0 0.042381
3950.0 0.047297
3970.0 0.051239
3990.0 0.049145
4010.0 0.043452
4030.0 0.037973
4050.0 0.035832
4070.0 0.035426
4090.0 0.034733
4110.0 0.034508
4130.0 0.034193
4150.0 0.034356
4170.0 0.036467
4190.0 0.039562
4210.0 0.039453
4230.0 0.03816
4250.0 0.037836
4270.0 0.038698
4290.0 0.040986
4310.0 0.043151
4330.0 0.041434
4350.0 0.036517
4370.0 0.032297
4390.0 0.028765
4410.0 0.025596
4430.0 0.025
4450.0 0.026466
4470.0 0.027949
4490.0 0.029955
4510.0 0.034288
4530.0 0.043719
4550.0 0.05728
4570.0 0.066096
4590.0 0.071371
4610.0 0.080168
4630.0 0.087163
4650.0 0.082863
4670.0 0.069658
4690.0 0.057366
4710.0 0.050645
4730.0 0.04762
4750.0 0.043896
4770.0 0.040831
4790.0 0.042713
4810.0 0.046595
4830.0 0.047583
4850.0 0.045291
4870.0 0.045365
4890.0 0.048778
4910.0 0.05187
4930.0 0.052997
4950.0 0.052109
4970.0 0.049083
4990.0 0.044269
5010.0 0.039756
5030.0 0.036657
5050.0 0.034855
5070.0 0.03351
5090.0 0.032189
5110.0 0.031703
5130.0 0.031687
5150.0 0.032539
5170.0 0.035629
5190.0 0.040134
5210.0 0.045337
5230.0 0.049114
5250.0 0.051526
5270.0 0.054489
5290.0 0.057999
5310.0 0.059583
5330.0 0.058043
5350.0 0.05507
5370.0 0.054374
5390.0 0.057072
5410.0 0.061575
5430.0 0.065156
5450.0 0.066882
5470.0 0.066774
5490.0 0.065022
5510.0 0.063131
5530.0 0.061822
5550.0 0.060889
5570.0 0.059612
5590.0 0.057781
5610.0 0.055309
5630.0 0.051562
5650.0 0.046894
5670.0 0.04332
5690.0 0.041556
5710.0 0.040597
5730.0 0.039437
5750.0 0.038265
5770.0 0.037418
5790.0 0.037124
5810.0 0.036639
5830.0 0.036289
5850.0 0.035991
5870.0 0.034808
5890.0 0.033184
5910.0 0.031163
5930.0 0.027967
5950.0 0.024791
5970.0 0.023049
5990.0 0.022652
6010.0 0.022548
6030.0 0.021812
6050.0 0.021118
6070.0 0.021927
6090.0 0.023613
6110.0 0.024593
6130.0 0.024209
6150.0 0.023215
6170.0 0.022533
6190.0 0.021959
6210.0 0.020898
6230.0 0.01932
6250.0 0.018174
6270.0 0.017939
6290.0 0.017958
6310.0 0.018695
6330.0 0.020395
6350.0 0.022443
6370.0 0.023762
6390.0 0.024478
6410.0 0.025233
6430.0 0.025826
6450.0 0.026368
6470.0 0.027
6490.0 0.027647
6510.0 0.028167
6530.0 0.028355
6550.0 0.028347
6570.0 0.027716
6590.0 0.026402
6610.0 0.025331
6630.0 0.024635
6650.0 0.023731
6670.0 0.02253
6690.0 0.021513
6710.0 0.020975
6730.0 0.02052
6750.0 0.020117
6770.0 0.019943
6790.0 0.019775
6810.0 0.019329
6830.0 0.018949
6850.0 0.019276
6870.0 0.019565
6890.0 0.019282
6910.0 0.018993
6930.0 0.018767
6950.0 0.018341
6970.0 0.017689
6990.0 0.017078
7010.0 0.0167
7030.0 0.016353
7050.0 0.015608
7070.0 0.01465
7090.0 0.014403
7110.0 0.014947
7130.0 0.015801
7150.0 0.016581
7170.0 0.017186
7190.0 0.017335
7210.0 0.016838
7230.0 0.016508
7250.0 0.016717
7270.0 0.016639
7290.0 0.016431
7310.0 0.01658
7330.0 0.017142
7350.0 0.017919
7370.0 0.018407
7390.0 0.01859
7410.0 0.018587
7430.0 0.01822
7450.0 0.017629
7470.0 0.017092
7490.0 0.016462
7510.0 0.015978
7530.0 0.015938
7550.0 0.016047
7570.0 0.016183
7590.0 0.016466
7610.0 0.016593
7630.0 0.016708
7650.0 0.017304
7670.0 0.018143
7690.0 0.018978
7710.0 0.019693
7730.0 0.020366
7750.0 0.021093
7770.0 0.021805
7790.0 0.022435
7810.0 0.02277
7830.0 0.022549
7850.0 0.021942
7870.0 0.021125
7890.0 0.020314
7910.0 0.01999
7930.0 0.019805
7950.0 0.019502
7970.0 0.019197
7990.0 0.019177
8010.0 0.018172
8030.0 0.018136
8050.0 0.018064
8070.0 0.017894
8090.0 0.017733
8110.0 0.017773
8130.0 0.017915
8150.0 0.017909
8170.0 0.017823
8190.0 0.017395
8210.0 0.016491
8230.0 0.015602
8250.0 0.015183
8270.0 0.014688
8290.0 0.013845
8310.0 0.013111
8330.0 0.01269
8350.0 0.012377
8370.0 0.01258
8390.0 0.013386
8410.0 0.014325
8430.0 0.015362
8450.0 0.016589
8470.0 0.017563
8490.0 0.018563
8510.0 0.019495
8530.0 0.02041
8550.0 0.021191
8570.0 0.021785
8590.0 0.022283
8610.0 0.022894
8630.0 0.023139
8650.0 0.022792
8670.0 0.02291
8690.0 0.023645
8710.0 0.024542
8730.0 0.024815
8750.0 0.024442
8770.0 0.024442
8790.0 0.024469
8810.0 0.023976
8830.0 0.022351
8850.0 0.020321
8870.0 0.018866
8890.0 0.01829
8910.0 0.01756
8930.0 0.016388
8950.0 0.015466
8970.0 0.015249
8990.0 0.015469
9010.0 0.015491
9030.0 0.015345
9050.0 0.015228
9070.0 0.015142
9090.0 0.015062
9110.0 0.014983
9130.0 0.014904
9150.0 0.014827
9170.0 0.014749
9190.0 0.014673
9210.0 0.014601
9230.0 0.014524
9250.0 0.014448
9270.0 0.014373
9290.0 0.0143
9310.0 0.014226
9330.0 0.014154
9350.0 0.014083
9370.0 0.014012
9390.0 0.013941
9410.0 0.013871
9430.0 0.0138
9450.0 0.013718
9470.0 0.013641
9490.0 0.013585
9510.0 0.013523
9530.0 0.013461
9550.0 0.013397
9570.0 0.013332
9590.0 0.013268
9610.0 0.013204
9630.0 0.013139
9650.0 0.013075
9670.0 0.013013
9690.0 0.01295
9710.0 0.012887
9730.0 0.012826
9750.0 0.012764
9770.0 0.012702
9790.0 0.012641
9810.0 0.01258
9830.0 0.012519
9850.0 0.012455
9870.0 0.012397
9890.0 0.012338
9910.0 0.012278
9930.0 0.012219
9950.0 0.012154
9970.0 0.012095
9990.0 0.012036
10010.0 0.011974
10030.0 0.011913
10050.0 0.011856
10070.0 0.011799
10090.0 0.011742
10110.0 0.011678
10130.0 0.011592
10150.0 0.011537
10170.0 0.011487
10190.0 0.01143
10210.0 0.011374
10230.0 0.011318
10250.0 0.011257
10270.0 0.011195
10290.0 0.011136
10310.0 0.011073
10330.0 0.011007
10350.0 0.010945
10370.0 0.010883
10390.0 0.010816
10410.0 0.010751
10430.0 0.010688
10450.0 0.010622
10470.0 0.010554
10490.0 0.010488
10510.0 0.010422
10530.0 0.01035
10550.0 0.01028
10570.0 0.010213
10590.0 0.010142
10610.0 0.010069
10630.0 0.0099995
10650.0 0.0099285
10670.0 0.0098523
10690.0 0.0097778
10710.0 0.0097048
10730.0 0.0096281
10750.0 0.0095477
10770.0 0.0094727
10790.0 0.0093956
10810.0 0.0093145
10830.0 0.0092344
10850.0 0.0091568
10870.0 0.0090725
10890.0 0.0089877
10910.0 0.0089062
10930.0 0.0088232
10950.0 0.0087364
10970.0 0.008652
10990.0 0.0085714
11010.0 0.008225
11030.0 0.008135
11050.0 0.008051
11070.0 0.0079689
11090.0 0.0078851
11110.0 0.0078096
11130.0 0.0077386
11150.0 0.0076689
11170.0 0.0076031
11190.0 0.0075447
11210.0 0.007489
11230.0 0.0074363
11250.0 0.0073899
11270.0 0.0073485
11290.0 0.0073095
11310.0 0.0072744
11330.0 0.0072448
11350.0 0.007217
11370.0 0.0071908
11390.0 0.0071668
11410.0 0.0071439
11430.0 0.0071196
11450.0 0.0070948
11470.0 0.0070692
11490.0 0.0070408
11510.0 0.0070086
11530.0 0.0069745
11550.0 0.0069373
11570.0 0.0068945
11590.0 0.006848
11610.0 0.0067987
11630.0 0.0067433
11650.0 0.0066815
11670.0 0.0066176
11690.0 0.006549
11710.0 0.006473
11730.0 0.0063925
11750.0 0.0063101
11770.0 0.0062195
11790.0 0.0061224
11810.0 0.0060236
11830.0 0.0059206
11850.0 0.005808
11870.0 0.0056952
11890.0 0.0055836
11910.0 0.0054671
11930.0 0.0053488
11950.0 0.0052356
11970.0 0.0051229
11990.0 0.0050082
12010.0 0.0048998
12030.0 0.0047975
12050.0 0.0046967
12070.0 0.004599
12090.0 0.004512
12110.0 0.0044289
12130.0 0.0043493
12150.0 0.0042772
12170.0 0.0042127
12190.0 0.0041509
12210.0 0.0040965
12230.0 0.0040504
12250.0 0.0040103
12270.0 0.0039763
12290.0 0.0039499
12310.0 0.0039302
12330.0 0.003916
12350.0 0.0039077
12370.0 0.0039043
12390.0 0.0039052
12410.0 0.0039104
12430.0 0.003918
12450.0 0.0039275
12470.0 0.0039393
12490.0 0.0039522
12510.0 0.0039648
12530.0 0.0039781
12550.0 0.0039915
12570.0 0.0040035
12590.0 0.0040139
12610.0 0.0040233
12630.0 0.0040301
12650.0 0.0040332
12670.0 0.0040332
12690.0 0.0040291
12710.0 0.0040203
12730.0 0.004007
12750.0 0.0039881
12770.0 0.0039642
12790.0 0.0039359
12810.0 0.0039027
12830.0 0.0038646
12850.0 0.0038244
12870.0 0.0037819
12890.0 0.0037362
12910.0 0.0036899
12930.0 0.0036445
12950.0 0.0035979
12970.0 0.0035514
12990.0 0.0035081
13010.0 0.0034663
13030.0 0.0034251
13050.0 0.0033863
13070.0 0.0033505
13090.0 0.0033153
13110.0 0.0032816
13130.0 0.0032505
13150.0 0.0032209
13170.0 0.0031917
13190.0 0.0031647
13210.0 0.0031397
13230.0 0.0031155
13250.0 0.0030924
13270.0 0.0030711
13290.0 0.0030506
13310.0 0.0030305
13330.0 0.0030115
13350.0 0.0029933
13370.0 0.0029748
13390.0 0.002956
13410.0 0.0029377
13430.0 0.0029186
13450.0 0.0028984
13470.0 0.0028775
13490.0 0.002856
13510.0 0.0028321
13530.0 0.0028072
13550.0 0.0027817
13570.0 0.0027548
13590.0 0.0027261
13610.0 0.0026971
13630.0 0.0026681
13650.0 0.0026374
13670.0 0.0026064
13690.0 0.0025762
13710.0 0.0025455
13730.0 0.0025134
13750.0 0.0024833
13770.0 0.0024536
13790.0 0.0024234
13810.0 0.0023938
13830.0 0.0023659
13850.0 0.0023378
13870.0 0.0023099
13890.0 0.0022837
13910.0 0.0022587
13930.0 0.0022339
13950.0 0.0022106
13970.0 0.0021896
13990.0 0.0021694
14010.0 0.0021503
14030.0 0.0021332
14050.0 0.0021175
14070.0 0.0021023
14090.0 0.0020887
14110.0 0.0020764
14130.0 0.0020647
14150.0 0.0020535
14170.0 0.0020434
14190.0 0.0020338
14210.0 0.0020243
14230.0 0.0020152
14250.0 0.0020065
14270.0 0.0019976
14290.0 0.0019887
14310.0 0.0019801
14330.0 0.0019715
14350.0 0.0019626
14370.0 0.0019539
14390.0 0.0019454
14410.0 0.0019365
14430.0 0.0019276
14450.0 0.001919
14470.0 0.0019106
14490.0 0.0019018
14510.0 0.0018935
14530.0 0.0018854
14550.0 0.0018771
14570.0 0.0018687
14590.0 0.0018605
14610.0 0.0018518
14630.0 0.0018426
14650.0 0.0018333
14670.0 0.0018242
14690.0 0.0018147
14710.0 0.0018056
14730.0 0.001798
14750.0 0.0017915
14770.0 0.001787
14790.0 0.0017854
14810.0 0.0017869
14830.0 0.0017926
14850.0 0.0018029
14870.0 0.0018173
14890.0 0.0018363
14910.0 0.0018599
14930.0 0.0018856
14950.0 0.0019121
14970.0 0.0019394
14990.0 0.0019644
15010.0 0.0019856
15030.0 0.0020032
15050.0 0.0020173
15070.0 0.0020271
15090.0 0.0020343
15110.0 0.0020398
15130.0 0.0020441
15150.0 0.0020478
15170.0 0.0020511
15190.0 0.0020544
15210.0 0.0020577
15230.0 0.0020611
15250.0 0.0020645
15270.0 0.002068
15290.0 0.0020716
15310.0 0.0020752
15330.0 0.0020789
15350.0 0.0020827
15370.0 0.0020866
15390.0 0.0020905
15410.0 0.0020945
15430.0 0.0020986
15450.0 0.0021028
15470.0 0.002107
15490.0 0.0021113
15510.0 0.0021156
15530.0 0.00212
15550.0 0.0021245
15570.0 0.0021291
15590.0 0.0021337
15610.0 0.0021383
15630.0 0.0021431
15650.0 0.0021479
15670.0 0.0021527
15690.0 0.0021576
15710.0 0.0021626
15730.0 0.0021676
15750.0 0.0021727
15770.0 0.0021778
15790.0 0.002183
15810.0 0.0021882
15830.0 0.0021935
15850.0 0.0021988
15870.0 0.0022042
15890.0 0.0022096
15910.0 0.002215
15930.0 0.0022205
15950.0 0.002226
15970.0 0.0022316
15990.0 0.0022372
16010.0 0.0022429
16030.0 0.0022485
16050.0 0.0022542
16070.0 0.00226
16090.0 0.0022657
16110.0 0.0022715
16130.0 0.0022773
16150.0 0.0022832
16170.0 0.002289
16190.0 0.0022949
16210.0 0.0023008
16230.0 0.0023067
16250.0 0.0023126
16270.0 0.0023185
16290.0 0.0023245
16310.0 0.0023304
16330.0 0.0023364
16350.0 0.0023424
16370.0 0.0023483
16390.0 0.0023543
16410.0 0.0023602
16430.0 0.0023662
16450.0 0.0023721
16470.0 0.0023781
16490.0 0.002384
16510.0 0.0023899
16530.0 0.0023958
16550.0 0.0024017
16570.0 0.0024076
16590.0 0.0024134
16610.0 0.0024193
16630.0 0.0024251
16650.0 0.0024308
16670.0 0.0024366
16690.0 0.0024423
16710.0 0.0024479
16730.0 0.0024536
16750.0 0.0024592
16770.0 0.0024647
16790.0 0.0024703
16810.0 0.0024757
16830.0 0.0024812
16850.0 0.0024865
16870.0 0.0024919
16890.0 0.0024971
16910.0 0.0025023
16930.0 0.0025075
16950.0 0.0025126
16970.0 0.0025176
16990.0 0.0025226
17010.0 0.0025275
17030.0 0.0025323
17050.0 0.0025371
17070.0 0.0025418
17090.0 0.0025464
17110.0 0.0025509
17130.0 0.0025554
17150.0 0.0025597
17170.0 0.002564
17190.0 0.0025682
17210.0 0.0025723
17230.0 0.0025764
17250.0 0.0025803
17270.0 0.0025841
17290.0 0.0025879
17310.0 0.0025915
17330.0 0.0025951
17350.0 0.0025985
17370.0 0.0026018
17390.0 0.0026051
17410.0 0.0026082
17430.0 0.0026112
17450.0 0.0026141
17470.0 0.0026169
17490.0 0.0026196
17510.0 0.0026222
17530.0 0.0026246
17550.0 0.002627
17570.0 0.0026292
17590.0 0.0026313
17610.0 0.0026332
17630.0 0.0026351
17650.0 0.0026368
17670.0 0.0026384
17690.0 0.0026399
17710.0 0.0026412
17730.0 0.0026424
17750.0 0.0026435
17770.0 0.0026444
17790.0 0.0026453
17810.0 0.0026459
17830.0 0.0026465
17850.0 0.0026469
17870.0 0.0026471
17890.0 0.0026472
17910.0 0.0026472
17930.0 0.0026471
17950.0 0.0026468
17970.0 0.0026464
17990.0 0.0026458
18010.0 0.0026451
18030.0 0.0026442
18050.0 0.0026432
18070.0 0.0026421
18090.0 0.0026408
18110.0 0.0026393
18130.0 0.0026377
18150.0 0.002636
18170.0 0.0026341
18190.0 0.0026321
18210.0 0.00263
18230.0 0.0026276
18250.0 0.0026252
18270.0 0.0026226
18290.0 0.0026198
18310.0 0.0026169
18330.0 0.0026139
18350.0 0.0026107
18370.0 0.0026074
18390.0 0.0026039
18410.0 0.0026003
18430.0 0.0025966
18450.0 0.0025927
18470.0 0.0025886
18490.0 0.0025845
18510.0 0.0025801
18530.0 0.0025757
18550.0 0.0025711
18570.0 0.0025663
18590.0 0.0025614
18610.0 0.0025564
18630.0 0.0025513
18650.0 0.002546
18670.0 0.0025405
18690.0 0.002535
18710.0 0.0025293
18730.0 0.0025234
18750.0 0.0025175
18770.0 0.0025114
18790.0 0.0025052
18810.0 0.0024988
18830.0 0.0024924
18850.0 0.0024858
18870.0 0.002479
18890.0 0.0024722
18910.0 0.0024653
18930.0 0.0024582
18950.0 0.002451
18970.0 0.0024436
18990.0 0.0024362
19010.0 0.0024286
19030.0 0.002421
19050.0 0.0024132
19070.0 0.0024053
19090.0 0.0023973
19110.0 0.0023892
19130.0 0.002381
19150.0 0.0023727
19170.0 0.0023643
19190.0 0.0023558
19210.0 0.0023472
19230.0 0.0023385
19250.0 0.0023297
19270.0 0.0023208
19290.0 0.0023118
19310.0 0.0023028
19330.0 0.0022936
19350.0 0.0022843
19370.0 0.002275
19390.0 0.0022656
19410.0 0.0022561
19430.0 0.0022465
19450.0 0.0022369
19470.0 0.0022272
19490.0 0.0022173
19510.0 0.0022075
19530.0 0.0021975
19550.0 0.0021875
19570.0 0.0021774
19590.0 0.0021673
19610.0 0.0021571
19630.0 0.0021469
19650.0 0.0021365
19670.0 0.0021262
19690.0 0.0021157
19710.0 0.0021052
19730.0 0.0020947
19750.0 0.0020841
19770.0 0.0020735
19790.0 0.0020628
19810.0 0.0020521
19830.0 0.0020413
19850.0 0.0020304
19870.0 0.0020193
19890.0 0.0020078
19910.0 0.0019956
19930.0 0.0019824
19950.0 0.0019677
19970.0 0.0019508
19990.0 0.0019311
20010.0 0.0019091
20030.0 0.0018838
20050.0 0.0018554
20070.0 0.0018254
20090.0 0.0017939
20110.0 0.0017601
20130.0 0.0017264
20150.0 0.0016934
20170.0 0.0016601
20190.0 0.0016268
20210.0 0.0015951
20230.0 0.0015641
20250.0 0.001533
20270.0 0.0015033
20290.0 0.0014751
20310.0 0.0014474
20330.0 0.0014203
20350.0 0.0013955
20370.0 0.0013718
20390.0 0.0013488
20410.0 0.0013274
20430.0 0.0013077
20450.0 0.0012886
20470.0 0.001271
20490.0 0.0012549
20510.0 0.0012399
20530.0 0.0012259
20550.0 0.0012132
20570.0 0.0012016
20590.0 0.0011909
20610.0 0.0011809
20630.0 0.0011718
20650.0 0.0011633
20670.0 0.0011553
20690.0 0.0011478
20710.0 0.0011405
20730.0 0.0011335
20750.0 0.0011266
20770.0 0.0011196
20790.0 0.0011125
20810.0 0.0011053
20830.0 0.0010978
20850.0 0.00109
20870.0 0.0010818
20890.0 0.0010732
20910.0 0.0010641
20930.0 0.0010546
20950.0 0.0010446
20970.0 0.0010342
20990.0 0.0010234
21010.0 0.001012
21030.0 0.0010003
21050.0 0.00098839
21070.0 0.00097609
21090.0 0.00096333
21110.0 0.00095065
21130.0 0.00093787
21150.0 0.00092477
21170.0 0.00091167
21190.0 0.00089878
21210.0 0.00088568
21230.0 0.00087249
21250.0 0.00085968
21270.0 0.00084702
21290.0 0.00083429
21310.0 0.00082182
21330.0 0.00080984
21350.0 0.0007979
21370.0 0.00078615
21390.0 0.0007749
21410.0 0.00076398
21430.0 0.00075313
21450.0 0.00074283
21470.0 0.00073305
21490.0 0.00072355
21510.0 0.00071441
21530.0 0.00070583
21550.0 0.00069761
21570.0 0.00068968
21590.0 0.0006822
21610.0 0.00067512
21630.0 0.00066831
21650.0 0.00066176
21670.0 0.00065557
21690.0 0.00064957
21710.0 0.00064375
21730.0 0.0006381
21750.0 0.00063259
21770.0 0.00062714
21790.0 0.00062176
21810.0 0.00061645
21830.0 0.00061115
21850.0 0.00060585
21870.0 0.00060055
21890.0 0.00059526
21910.0 0.00058991
21930.0 0.00058453
21950.0 0.00057914
21970.0 0.00057369
21990.0 0.00056814
22010.0 0.00056259
22030.0 0.00055698
22050.0 0.00055127
22070.0 0.00054546
22090.0 0.00053965
22110.0 0.00053371
22130.0 0.00052762
22150.0 0.00052149
22170.0 0.00051529
22190.0 0.00050888
22210.0 0.00050236
22230.0 0.00049587
22250.0 0.00048922
22270.0 0.0004824
22290.0 0.0004756
22310.0 0.00046876
22330.0 0.00046168
22350.0 0.0004546
22370.0 0.00044757
22390.0 0.00044042
22410.0 0.00043312
22430.0 0.00042599
22450.0 0.00041888
22470.0 0.00041164
22490.0 0.00040446
22510.0 0.00039747
22530.0 0.00039037
22550.0 0.00038326
22570.0 0.00037643
22590.0 0.0003697
22610.0 0.00036297
22630.0 0.00035644
22650.0 0.00035024
22670.0 0.00034407
22690.0 0.00033807
22710.0 0.0003324
22730.0 0.00032695
22750.0 0.00032156
22770.0 0.00031653
22790.0 0.00031181
22810.0 0.00030725
22830.0 0.0003029
22850.0 0.00029886
22870.0 0.00029502
22890.0 0.00029131
22910.0 0.00028785
22930.0 0.00028459
22950.0 0.00028145
22970.0 0.00027844
22990.0 0.00027562
23010.0 0.00027289
23030.0 0.00027025
23050.0 0.0002677
23070.0 0.00026525
23090.0 0.00026282
23110.0 0.00026044
23130.0 0.00025813
23150.0 0.00025584
23170.0 0.00025354
23190.0 0.00025127
23210.0 0.00024902
23230.0 0.00024673
23250.0 0.00024441
23270.0 0.00024209
23290.0 0.0002397
23310.0 0.00023722
23330.0 0.00023473
23350.0 0.00023219
23370.0 0.00022955
23390.0 0.00022685
23410.0 0.00022416
23430.0 0.0002214
23450.0 0.00021861
23470.0 0.00021587
23490.0 0.00021317
23510.0 0.00021047
23530.0 0.00020785
23550.0 0.00020542
23570.0 0.00020307
23590.0 0.00020085
23610.0 0.00019885
23630.0 0.00019703
23650.0 0.00019538
23670.0 0.00019398
23690.0 0.0001928
23710.0 0.00019186
23730.0 0.00019119
23750.0 0.00019075
23770.0 0.00019057
23790.0 0.0001907
23810.0 0.00019109
23830.0 0.00019171
23850.0 0.00019268
23870.0 0.00019397
23890.0 0.00019543
23910.0 0.00019713
23930.0 0.00019912
23950.0 0.00020124
23970.0 0.00020336
23990.0 0.00020568
24010.0 0.00020803
