#lamb flux
1010.0 1.3082e-06
1030.0 1.3633e-06
1050.0 1.4272e-06
1070.0 1.4992e-06
1090.0 1.5811e-06
1110.0 1.6655e-06
1130.0 1.7507e-06
1150.0 1.8405e-06
1170.0 1.9335e-06
1190.0 2.0224e-06
1210.0 2.113e-06
1230.0 2.2072e-06
1250.0 2.3003e-06
1270.0 2.3915e-06
1290.0 2.4884e-06
1310.0 2.5861e-06
1330.0 2.6808e-06
1350.0 2.7775e-06
1370.0 2.878e-06
1390.0 2.9772e-06
1410.0 3.0747e-06
1430.0 3.1773e-06
1450.0 3.281e-06
1470.0 3.3825e-06
1490.0 3.486e-06
1510.0 3.5958e-06
1530.0 3.7013e-06
1550.0 3.8065e-06
1570.0 3.9156e-06
1590.0 4.0254e-06
1610.0 4.1314e-06
1630.0 4.2407e-06
1650.0 4.3527e-06
1670.0 4.4615e-06
1690.0 4.5688e-06
1710.0 4.6795e-06
1730.0 4.79e-06
1750.0 4.8938e-06
1770.0 4.9992e-06
1790.0 5.1053e-06
1810.0 5.2066e-06
1830.0 5.3046e-06
1850.0 5.4065e-06
1870.0 5.5036e-06
1890.0 5.5952e-06
1910.0 5.6863e-06
1930.0 5.7774e-06
1950.0 5.8615e-06
1970.0 5.9421e-06
1990.0 6.0239e-06
2010.0 6.1019e-06
2030.0 6.1745e-06
2050.0 6.2482e-06
2070.0 6.3228e-06
2090.0 6.3909e-06
2110.0 6.4581e-06
2130.0 6.5278e-06
2150.0 6.5962e-06
2170.0 6.6616e-06
2190.0 6.7318e-06
2210.0 6.8048e-06
2230.0 6.8771e-06
2250.0 6.9525e-06
2270.0 7.0362e-06
2290.0 7.1219e-06
2310.0 7.2098e-06
2330.0 7.3069e-06
2350.0 7.4119e-06
2370.0 7.5212e-06
2390.0 7.6401e-06
2410.0 7.7727e-06
2430.0 7.9123e-06
2450.0 8.0596e-06
2470.0 8.2182e-06
2490.0 8.3854e-06
2510.0 8.5561e-06
2530.0 8.7442e-06
2550.0 8.9735e-06
2570.0 9.2783e-06
2590.0 9.7076e-06
2610.0 1.037e-05
2630.0 1.1333e-05
2650.0 1.2593e-05
2670.0 1.4199e-05
2690.0 1.6149e-05
2710.0 1.8258e-05
2730.0 2.0419e-05
2750.0 2.2671e-05
2770.0 2.4863e-05
2790.0 2.6936e-05
2810.0 2.8984e-05
2830.0 3.1095e-05
2850.0 3.3161e-05
2870.0 3.5282e-05
2890.0 3.7542e-05
2910.0 3.9902e-05
2930.0 4.2302e-05
2950.0 4.4857e-05
2970.0 4.7553e-05
2990.0 5.0292e-05
3010.0 9.0383e-05
3030.0 9.5396e-05
3050.0 0.00010044
3070.0 0.00010516
3090.0 0.00010944
3110.0 0.00011248
3130.0 0.0001133
3150.0 0.00011081
3170.0 0.00010286
3190.0 8.8988e-05
3210.0 6.929e-05
3230.0 4.6749e-05
3250.0 6.7891e-05
3270.0 3.4306e-05
3290.0 8.6105e-05
3310.0 2.3978e-05
3330.0 2.5249e-05
3350.0 3.4692e-05
3370.0 4.5266e-05
3390.0 5.6389e-05
3410.0 6.746e-05
3430.0 7.8974e-05
3450.0 9.0433e-05
3470.0 0.00010099
3490.0 0.00010799
3510.0 0.00013071
3530.0 0.00017425
3550.0 0.00017971
3570.0 0.00016332
3590.0 0.00022632
3610.0 0.00016295
3630.0 0.00023551
3650.0 0.00025838
3670.0 0.0003218
3690.0 0.00031646
3710.0 0.00024908
3730.0 0.00032116
3750.0 0.00033448
3770.0 0.0003419
3790.0 0.00031118
3810.0 0.00026949
3830.0 0.00033518
3850.0 0.00034111
3870.0 0.00041568
3890.0 0.00040211
3910.0 0.00038486
3930.0 0.00042725
3950.0 0.00047999
3970.0 0.00062208
3990.0 0.00053889
4010.0 0.00039909
4030.0 0.00048809
4050.0 0.00050287
4070.0 0.00055586
4090.0 0.00050903
4110.0 0.00037789
4130.0 0.00046578
4150.0 0.00042818
4170.0 0.00045378
4190.0 0.000454
4210.0 0.00054011
4230.0 0.00040326
4250.0 0.00047466
4270.0 0.00047432
4290.0 0.00048167
4310.0 0.00056735
4330.0 0.0005835
4350.0 0.00047839
4370.0 0.00043005
4390.0 0.00048928
4410.0 0.00048222
4430.0 0.00038093
4450.0 0.00037956
4470.0 0.00042668
4490.0 0.00033861
4510.0 0.00039941
4530.0 0.00043475
4550.0 0.0005721
4570.0 0.00082004
4590.0 0.0008341
4610.0 0.00063018
4630.0 0.00090934
4650.0 0.0012295
4670.0 0.0011549
4690.0 0.00075705
4710.0 0.00078378
4730.0 0.00093628
4750.0 0.00082922
4770.0 0.00064149
4790.0 0.00047246
4810.0 0.00064157
4830.0 0.00073241
4850.0 0.00068986
4870.0 0.00034639
4890.0 0.00074103
4910.0 0.00096926
4930.0 0.0010407
4950.0 0.0010604
4970.0 0.00076798
4990.0 0.00085676
5010.0 0.00093162
5030.0 0.00095049
5050.0 0.00090522
5070.0 0.00066842
5090.0 0.00056017
5110.0 0.00052794
5130.0 0.000479
5150.0 0.00054141
5170.0 0.00048282
5190.0 0.00057781
5210.0 0.0005789
5230.0 0.00063099
5250.0 0.00079287
5270.0 0.00071551
5290.0 0.00071914
5310.0 0.00098484
5330.0 0.0011263
5350.0 0.00099845
5370.0 0.00090367
5390.0 0.0009847
5410.0 0.0011724
5430.0 0.001275
5450.0 0.001383
5470.0 0.0014422
5490.0 0.0014644
5510.0 0.0016905
5530.0 0.0017517
5550.0 0.001845
5570.0 0.0019235
5590.0 0.0019047
5610.0 0.0018279
5630.0 0.0017809
5650.0 0.0018099
5670.0 0.0017962
5690.0 0.0015712
5710.0 0.0014885
5730.0 0.0014675
5750.0 0.0015594
5770.0 0.0013819
5790.0 0.0012947
5810.0 0.0013262
5830.0 0.0013878
5850.0 0.0012889
5870.0 0.0012825
5890.0 0.0014657
5910.0 0.0014099
5930.0 0.0012074
5950.0 0.0010794
5970.0 0.0011237
5990.0 0.0010306
6010.0 0.00095811
6030.0 0.00096181
6050.0 0.00090963
6070.0 0.00072686
6090.0 0.00066841
6110.0 0.00081319
6130.0 0.00091309
6150.0 0.00096372
6170.0 0.00096566
6190.0 0.00094299
6210.0 0.00093573
6230.0 0.0010416
6250.0 0.00096215
6270.0 0.0008743
6290.0 0.00079185
6310.0 0.00073934
6330.0 0.00070073
6350.0 0.00062635
6370.0 0.00062896
6390.0 0.00073759
6410.0 0.00090522
6430.0 0.0010448
6450.0 0.0010227
6470.0 0.0010294
6490.0 0.0012364
6510.0 0.001379
6530.0 0.0013196
6550.0 0.0012847
6570.0 0.001303
6590.0 0.0012657
6610.0 0.0013544
6630.0 0.0012888
6650.0 0.0011695
6670.0 0.0010641
6690.0 0.0010136
6710.0 0.0011746
6730.0 0.00109
6750.0 0.00097436
6770.0 0.00090758
6790.0 0.00094699
6810.0 0.0010222
6830.0 0.00099722
6850.0 0.00092112
6870.0 0.00093585
6890.0 0.00091124
6910.0 0.00086258
6930.0 0.00096605
6950.0 0.00091407
6970.0 0.00087986
6990.0 0.00088835
7010.0 0.00085432
7030.0 0.00080199
7050.0 0.00075918
7070.0 0.00078356
7090.0 0.00073301
7110.0 0.00064729
7130.0 0.00054266
7150.0 0.00049758
7170.0 0.00062361
7190.0 0.00067216
7210.0 0.0006637
7230.0 0.00070023
7250.0 0.00067301
7270.0 0.00065251
7290.0 0.0007016
7310.0 0.00075418
7330.0 0.00073311
7350.0 0.00069323
7370.0 0.0006729
7390.0 0.00070884
7410.0 0.0008173
7430.0 0.00089514
7450.0 0.00096597
7470.0 0.00097031
7490.0 0.00099077
7510.0 0.00094701
7530.0 0.00093666
7550.0 0.00090208
7570.0 0.00079004
7590.0 0.00077373
7610.0 0.00075655
7630.0 0.00072598
7650.0 0.00080376
7670.0 0.00088001
7690.0 0.0009562
7710.0 0.0010545
7730.0 0.0011226
7750.0 0.0011731
7770.0 0.001173
7790.0 0.0012634
7810.0 0.0013031
7830.0 0.0012286
7850.0 0.0012354
7870.0 0.0011779
7890.0 0.0012101
7910.0 0.0011457
7930.0 0.0011459
7950.0 0.00104
7970.0 0.0010636
7990.0 0.0010263
8010.0 0.0010131
8030.0 0.0010099
8050.0 0.0010522
8070.0 0.0010199
8090.0 0.0010213
8110.0 0.00099125
8130.0 0.00098891
8150.0 0.00095033
8170.0 0.00092305
8190.0 0.00091056
8210.0 0.00091665
8230.0 0.00082615
8250.0 0.00075921
8270.0 0.00066395
8290.0 0.00054671
8310.0 0.00045612
8330.0 0.00036107
8350.0 0.0003071
8370.0 0.00032304
8390.0 0.00034062
8410.0 0.00036602
8430.0 0.00043599
8450.0 0.00046417
8470.0 0.00048814
8490.0 0.00055336
8510.0 0.00060505
8530.0 0.00069848
8550.0 0.0008249
8570.0 0.0009252
8590.0 0.00099994
8610.0 0.001087
8630.0 0.0011804
8650.0 0.0011968
8670.0 0.0012056
8690.0 0.0012487
8710.0 0.0012421
8730.0 0.0012385
8750.0 0.0011832
8770.0 0.0011832
8790.0 0.0011656
8810.0 0.0010781
8830.0 0.0010697
8850.0 0.0010075
8870.0 0.00096768
8890.0 0.00089566
8910.0 0.00094604
8930.0 0.00087263
8950.0 0.00085284
8970.0 0.00084993
8990.0 0.0008229
9010.0 0.00082974
9030.0 0.00079991
9050.0 0.00079545
9070.0 0.0007941
9090.0 0.00079264
9110.0 0.00079139
9130.0 0.00078969
9150.0 0.00078779
9170.0 0.00078423
9190.0 0.00077804
9210.0 0.00078548
9230.0 0.00078129
9250.0 0.00077816
9270.0 0.00077519
9290.0 0.0007723
9310.0 0.00076949
9330.0 0.00076667
9350.0 0.00076381
9370.0 0.00076091
9390.0 0.00075796
9410.0 0.00075493
9430.0 0.00075182
9450.0 0.0007486
9470.0 0.00074534
9490.0 0.00074217
9510.0 0.00073891
9530.0 0.00073561
9550.0 0.00073224
9570.0 0.00072883
9590.0 0.00072539
9610.0 0.00072193
9630.0 0.00071843
9650.0 0.00071491
9670.0 0.00071139
9690.0 0.00070785
9710.0 0.00070429
9730.0 0.00070073
9750.0 0.00069717
9770.0 0.00069359
9790.0 0.00069003
9810.0 0.00068647
9830.0 0.00068292
9850.0 0.00067938
9870.0 0.00067585
9890.0 0.00067233
9910.0 0.00066883
9930.0 0.00066532
9950.0 0.00065942
9970.0 0.0006567
9990.0 0.00065387
10010.0 0.000651
10030.0 0.00064795
10050.0 0.00064467
10070.0 0.0006409
10090.0 0.00063796
10110.0 0.00063487
10130.0 0.00063182
10150.0 0.0006288
10170.0 0.00062571
10190.0 0.00062253
10210.0 0.00061952
10230.0 0.00061658
10250.0 0.00061357
10270.0 0.00061061
10290.0 0.00060781
10310.0 0.00060494
10330.0 0.00060203
10350.0 0.0005993
10370.0 0.00059661
10390.0 0.00059387
10410.0 0.00059119
10430.0 0.00058868
10450.0 0.00058612
10470.0 0.00058354
10490.0 0.0005811
10510.0 0.00057872
10530.0 0.00057621
10550.0 0.00057383
10570.0 0.00057159
10590.0 0.0005693
10610.0 0.00056701
10630.0 0.00056487
10650.0 0.00056276
10670.0 0.00056057
10690.0 0.00055848
10710.0 0.00055649
10730.0 0.00055446
10750.0 0.00055239
10770.0 0.00055052
10790.0 0.00054866
10810.0 0.00054673
10830.0 0.00054489
10850.0 0.00054313
10870.0 0.00054118
10890.0 0.00053912
10910.0 0.00053696
10930.0 0.00053439
10950.0 0.00053108
10970.0 0.00052703
10990.0 0.00052219
11010.0 0.00050459
11030.0 0.00049778
11050.0 0.00049009
11070.0 0.00048139
11090.0 0.00047141
11110.0 0.00046153
11130.0 0.00045161
11150.0 0.00044133
11170.0 0.00043113
11190.0 0.00042164
11210.0 0.00041214
11230.0 0.0004027
11250.0 0.00039395
11270.0 0.00038573
11290.0 0.00037759
11310.0 0.00036993
11330.0 0.00036322
11350.0 0.00035679
11370.0 0.00035067
11390.0 0.0003452
11410.0 0.00034019
11430.0 0.00033516
11450.0 0.00033048
11470.0 0.00032612
11490.0 0.0003217
11510.0 0.00031707
11530.0 0.00031259
11550.0 0.00030798
11570.0 0.00030291
11590.0 0.00029762
11610.0 0.00029227
11630.0 0.00028638
11650.0 0.00028001
11670.0 0.00027374
11690.0 0.0002673
11710.0 0.00026047
11730.0 0.00025368
11750.0 0.00024724
11770.0 0.00024061
11790.0 0.00023407
11810.0 0.00022802
11830.0 0.00022226
11850.0 0.00021647
11870.0 0.00021126
11890.0 0.00020659
11910.0 0.00020207
11930.0 0.00019783
11950.0 0.00019408
11970.0 0.00019055
11990.0 0.00018707
12010.0 0.00018392
12030.0 0.00018103
12050.0 0.00017818
12070.0 0.00017539
12090.0 0.00017297
12110.0 0.00017062
12130.0 0.00016832
12150.0 0.00016627
12170.0 0.00016449
12190.0 0.00016278
12210.0 0.00016139
12230.0 0.00016041
12250.0 0.00015977
12270.0 0.00015954
12290.0 0.00015984
12310.0 0.00016065
12330.0 0.00016199
12350.0 0.00016391
12370.0 0.00016632
12390.0 0.00016924
12410.0 0.00017277
12430.0 0.00017657
12450.0 0.00018064
12470.0 0.00018502
12490.0 0.00018954
12510.0 0.00019394
12530.0 0.00019839
12550.0 0.00020278
12570.0 0.00020686
12590.0 0.00021067
12610.0 0.00021428
12630.0 0.00021753
12650.0 0.00022034
12670.0 0.00022285
12690.0 0.00022503
12710.0 0.00022682
12730.0 0.00022829
12750.0 0.00022944
12770.0 0.00023026
12790.0 0.0002308
12810.0 0.00023105
12830.0 0.00023098
12850.0 0.00023071
12870.0 0.00023021
12890.0 0.0002294
12910.0 0.00022838
12930.0 0.00022721
12950.0 0.00022574
12970.0 0.00022399
12990.0 0.00022216
13010.0 0.00022013
13030.0 0.0002178
13050.0 0.00021534
13070.0 0.00021285
13090.0 0.00021007
13110.0 0.00020714
13130.0 0.00020427
13150.0 0.00020137
13170.0 0.00019832
13190.0 0.00019549
13210.0 0.00019293
13230.0 0.00019049
13250.0 0.00018832
13270.0 0.00018661
13290.0 0.00018523
13310.0 0.00018419
13330.0 0.00018362
13350.0 0.00018344
13370.0 0.00018358
13390.0 0.00018399
13410.0 0.00018459
13430.0 0.00018526
13450.0 0.00018593
13470.0 0.00018647
13490.0 0.00018681
13510.0 0.00018684
13530.0 0.00018651
13550.0 0.00018583
13570.0 0.00018475
13590.0 0.00018324
13610.0 0.00018144
13630.0 0.00017943
13650.0 0.00017709
13670.0 0.00017461
13690.0 0.00017215
13710.0 0.00016962
13730.0 0.000167
13750.0 0.00016462
13770.0 0.00016236
13790.0 0.00016016
13810.0 0.0001581
13830.0 0.00015627
13850.0 0.00015448
13870.0 0.00015278
13890.0 0.00015122
13910.0 0.00014975
13930.0 0.00014828
13950.0 0.00014687
13970.0 0.00014557
13990.0 0.00014428
14010.0 0.00014302
14030.0 0.00014185
14050.0 0.00014074
14070.0 0.00013965
14090.0 0.00013868
14110.0 0.00013781
14130.0 0.00013702
14150.0 0.00013632
14170.0 0.00013574
14190.0 0.00013527
14210.0 0.00013489
14230.0 0.00013462
14250.0 0.00013445
14270.0 0.0001344
14290.0 0.00013445
14310.0 0.00013459
14330.0 0.00013482
14350.0 0.00013515
14370.0 0.00013553
14390.0 0.00013594
14410.0 0.00013641
14430.0 0.0001369
14450.0 0.00013734
14470.0 0.00013776
14490.0 0.00013817
14510.0 0.00013848
14530.0 0.00013872
14550.0 0.00013892
14570.0 0.00013906
14590.0 0.00013915
14610.0 0.00013924
14630.0 0.00013937
14650.0 0.00013953
14670.0 0.00013976
14690.0 0.00014012
14710.0 0.00014066
14730.0 0.0001413
14750.0 0.00014216
14770.0 0.00014328
14790.0 0.00014457
14810.0 0.00014603
14830.0 0.00014785
14850.0 0.00014985
14870.0 0.00015191
14890.0 0.00015414
14910.0 0.00015648
14930.0 0.00015865
14950.0 0.00016059
14970.0 0.00016235
14990.0 0.00016369
15010.0 0.00016452
15030.0 0.00016494
15050.0 0.00016495
15070.0 0.00016457
15090.0 0.00016395
15110.0 0.00016316
15130.0 0.00016227
15150.0 0.00016132
15170.0 0.00016033
15190.0 0.00015933
15210.0 0.00015833
15230.0 0.00015733
15250.0 0.00015631
15270.0 0.0001553
15290.0 0.0001543
15310.0 0.0001533
15330.0 0.00015229
15350.0 0.00015129
15370.0 0.0001503
15390.0 0.00014929
15410.0 0.00014829
15430.0 0.0001473
15450.0 0.00014631
15470.0 0.00014531
15490.0 0.00014433
15510.0 0.00014335
15530.0 0.00014236
15550.0 0.00014139
15570.0 0.00014042
15590.0 0.00013944
15610.0 0.00013847
15630.0 0.00013751
15650.0 0.00013656
15670.0 0.0001356
15690.0 0.00013465
15710.0 0.00013371
15730.0 0.00013277
15750.0 0.00013183
15770.0 0.0001309
15790.0 0.00012998
15810.0 0.00012905
15830.0 0.00012814
15850.0 0.00012723
15870.0 0.00012633
15890.0 0.00012543
15910.0 0.00012454
15930.0 0.00012366
15950.0 0.00012277
15970.0 0.0001219
15990.0 0.00012103
16010.0 0.00012017
16030.0 0.0001193
16050.0 0.00011846
16070.0 0.00011762
16090.0 0.00011678
16110.0 0.00011595
16130.0 0.00011513
16150.0 0.0001143
16170.0 0.00011349
16190.0 0.00011269
16210.0 0.00011189
16230.0 0.00011109
16250.0 0.00011031
16270.0 0.00010954
16290.0 0.00010876
16310.0 0.000108
16330.0 0.00010724
16350.0 0.00010649
16370.0 0.00010574
16390.0 0.000105
16410.0 0.00010427
16430.0 0.00010355
16450.0 0.00010283
16470.0 0.00010212
16490.0 0.00010141
16510.0 0.00010071
16530.0 0.00010002
16550.0 9.9341e-05
16570.0 9.8659e-05
16590.0 9.7985e-05
16610.0 9.7326e-05
16630.0 9.6667e-05
16650.0 9.6013e-05
16670.0 9.5372e-05
16690.0 9.4737e-05
16710.0 9.4099e-05
16730.0 9.3473e-05
16750.0 9.2858e-05
16770.0 9.2245e-05
16790.0 9.1635e-05
16810.0 9.1039e-05
16830.0 9.0448e-05
16850.0 8.9858e-05
16870.0 8.9278e-05
16890.0 8.8708e-05
16910.0 8.8137e-05
16930.0 8.7571e-05
16950.0 8.7018e-05
16970.0 8.647e-05
16990.0 8.5923e-05
17010.0 8.5386e-05
17030.0 8.4859e-05
17050.0 8.4331e-05
17070.0 8.3809e-05
17090.0 8.3298e-05
17110.0 8.279e-05
17130.0 8.2282e-05
17150.0 8.1786e-05
17170.0 8.1299e-05
17190.0 8.0812e-05
17210.0 8.033e-05
17230.0 7.986e-05
17250.0 7.9391e-05
17270.0 7.8923e-05
17290.0 7.8465e-05
17310.0 7.8015e-05
17330.0 7.7565e-05
17350.0 7.7119e-05
17370.0 7.6687e-05
17390.0 7.6255e-05
17410.0 7.5825e-05
17430.0 7.5405e-05
17450.0 7.4991e-05
17470.0 7.4574e-05
17490.0 7.4165e-05
17510.0 7.3766e-05
17530.0 7.3368e-05
17550.0 7.2972e-05
17570.0 7.2585e-05
17590.0 7.2205e-05
17610.0 7.1823e-05
17630.0 7.1448e-05
17650.0 7.1081e-05
17670.0 7.0715e-05
17690.0 7.0348e-05
17710.0 6.9994e-05
17730.0 6.9644e-05
17750.0 6.9293e-05
17770.0 6.8948e-05
17790.0 6.8613e-05
17810.0 6.8275e-05
17830.0 6.794e-05
17850.0 6.7615e-05
17870.0 6.7292e-05
17890.0 6.6969e-05
17910.0 6.6651e-05
17930.0 6.6343e-05
17950.0 6.6034e-05
17970.0 6.5728e-05
17990.0 6.5429e-05
18010.0 6.5134e-05
18030.0 6.4835e-05
18050.0 6.4545e-05
18070.0 6.4261e-05
18090.0 6.3977e-05
18110.0 6.3694e-05
18130.0 6.3421e-05
18150.0 6.3149e-05
18170.0 6.2877e-05
18190.0 6.2611e-05
18210.0 6.2351e-05
18230.0 6.2088e-05
18250.0 6.1828e-05
18270.0 6.1577e-05
18290.0 6.1327e-05
18310.0 6.1077e-05
18330.0 6.0833e-05
18350.0 6.0595e-05
18370.0 6.0353e-05
18390.0 6.0115e-05
18410.0 5.9885e-05
18430.0 5.9655e-05
18450.0 5.9422e-05
18470.0 5.9198e-05
18490.0 5.8979e-05
18510.0 5.8758e-05
18530.0 5.8539e-05
18550.0 5.8329e-05
18570.0 5.8116e-05
18590.0 5.7903e-05
18610.0 5.7697e-05
18630.0 5.7494e-05
18650.0 5.729e-05
18670.0 5.7088e-05
18690.0 5.6894e-05
18710.0 5.6699e-05
18730.0 5.6504e-05
18750.0 5.6314e-05
18770.0 5.6129e-05
18790.0 5.5938e-05
18810.0 5.5752e-05
18830.0 5.5573e-05
18850.0 5.5392e-05
18870.0 5.5211e-05
18890.0 5.5037e-05
18910.0 5.4866e-05
18930.0 5.4691e-05
18950.0 5.452e-05
18970.0 5.4354e-05
18990.0 5.4187e-05
19010.0 5.4017e-05
19030.0 5.3857e-05
19050.0 5.3698e-05
19070.0 5.3536e-05
19090.0 5.3378e-05
19110.0 5.3226e-05
19130.0 5.307e-05
19150.0 5.2914e-05
19170.0 5.2765e-05
19190.0 5.2617e-05
19210.0 5.2465e-05
19230.0 5.2318e-05
19250.0 5.2177e-05
19270.0 5.2032e-05
19290.0 5.1888e-05
19310.0 5.175e-05
19330.0 5.1613e-05
19350.0 5.147e-05
19370.0 5.1334e-05
19390.0 5.1201e-05
19410.0 5.1066e-05
19430.0 5.0931e-05
19450.0 5.0803e-05
19470.0 5.0674e-05
19490.0 5.0542e-05
19510.0 5.0415e-05
19530.0 5.0291e-05
19550.0 5.0163e-05
19570.0 5.0036e-05
19590.0 4.9915e-05
19610.0 4.9794e-05
19630.0 4.9671e-05
19650.0 4.9552e-05
19670.0 4.9436e-05
19690.0 4.9315e-05
19710.0 4.9197e-05
19730.0 4.9083e-05
19750.0 4.8968e-05
19770.0 4.885e-05
19790.0 4.8738e-05
19810.0 4.8628e-05
19830.0 4.8513e-05
19850.0 4.8399e-05
19870.0 4.8286e-05
19890.0 4.8161e-05
19910.0 4.8017e-05
19930.0 4.7854e-05
19950.0 4.7654e-05
19970.0 4.739e-05
19990.0 4.7054e-05
20010.0 4.6658e-05
20030.0 4.6163e-05
20050.0 4.5574e-05
20070.0 4.4929e-05
20090.0 4.4234e-05
20110.0 4.3445e-05
20130.0 4.2649e-05
20150.0 4.1863e-05
20170.0 4.105e-05
20190.0 4.0226e-05
20210.0 3.945e-05
20230.0 3.8694e-05
20250.0 3.7934e-05
20270.0 3.7228e-05
20290.0 3.6583e-05
20310.0 3.597e-05
20330.0 3.5396e-05
20350.0 3.4924e-05
20370.0 3.4508e-05
20390.0 3.4151e-05
20410.0 3.3875e-05
20430.0 3.3677e-05
20450.0 3.3542e-05
20470.0 3.3484e-05
20490.0 3.3499e-05
20510.0 3.3578e-05
20530.0 3.3725e-05
20550.0 3.3928e-05
20570.0 3.4173e-05
20590.0 3.4469e-05
20610.0 3.4804e-05
20630.0 3.5154e-05
20650.0 3.5527e-05
20670.0 3.593e-05
20690.0 3.6318e-05
20710.0 3.6693e-05
20730.0 3.7065e-05
20750.0 3.7417e-05
20770.0 3.7726e-05
20790.0 3.8009e-05
20810.0 3.8261e-05
20830.0 3.8464e-05
20850.0 3.8624e-05
20870.0 3.8744e-05
20890.0 3.8816e-05
20910.0 3.8844e-05
20930.0 3.8832e-05
20950.0 3.8777e-05
20970.0 3.8689e-05
20990.0 3.8571e-05
21010.0 3.8415e-05
21030.0 3.8234e-05
21050.0 3.8037e-05
21070.0 3.7817e-05
21090.0 3.7571e-05
21110.0 3.7327e-05
21130.0 3.7078e-05
21150.0 3.6814e-05
21170.0 3.6554e-05
21190.0 3.6308e-05
21210.0 3.6059e-05
21230.0 3.5817e-05
21250.0 3.5602e-05
21270.0 3.5407e-05
21290.0 3.5227e-05
21310.0 3.5076e-05
21330.0 3.496e-05
21350.0 3.4869e-05
21370.0 3.481e-05
21390.0 3.4786e-05
21410.0 3.4793e-05
21430.0 3.4836e-05
21450.0 3.4912e-05
21470.0 3.5017e-05
21490.0 3.5153e-05
21510.0 3.5319e-05
21530.0 3.5504e-05
21550.0 3.5712e-05
21570.0 3.5949e-05
21590.0 3.6199e-05
21610.0 3.6458e-05
21630.0 3.6738e-05
21650.0 3.7038e-05
21670.0 3.7329e-05
21690.0 3.7633e-05
21710.0 3.7953e-05
21730.0 3.8272e-05
21750.0 3.8588e-05
21770.0 3.8926e-05
21790.0 3.9266e-05
21810.0 3.96e-05
21830.0 3.9939e-05
21850.0 4.0294e-05
21870.0 4.0641e-05
21890.0 4.098e-05
21910.0 4.1333e-05
21930.0 4.1684e-05
21950.0 4.2021e-05
21970.0 4.2357e-05
21990.0 4.2702e-05
22010.0 4.302e-05
22030.0 4.3321e-05
22050.0 4.3614e-05
22070.0 4.3886e-05
22090.0 4.4123e-05
22110.0 4.4338e-05
22130.0 4.4525e-05
22150.0 4.4671e-05
22170.0 4.4777e-05
22190.0 4.4843e-05
22210.0 4.4861e-05
22230.0 4.4833e-05
22250.0 4.4755e-05
22270.0 4.4624e-05
22290.0 4.4447e-05
22310.0 4.4224e-05
22330.0 4.3938e-05
22350.0 4.3607e-05
22370.0 4.3242e-05
22390.0 4.2826e-05
22410.0 4.2355e-05
22430.0 4.1872e-05
22450.0 4.1362e-05
22470.0 4.0806e-05
22490.0 4.0235e-05
22510.0 3.9668e-05
22530.0 3.9066e-05
22550.0 3.8447e-05
22570.0 3.7854e-05
22590.0 3.7265e-05
22610.0 3.6663e-05
22630.0 3.6083e-05
22650.0 3.5543e-05
22670.0 3.5001e-05
22690.0 3.4475e-05
