#lamb flux
1010.0 3.4013e-10
1030.0 3.7619e-10
1050.0 4.1766e-10
1070.0 4.6435e-10
1090.0 5.1737e-10
1110.0 5.7176e-10
1130.0 6.265e-10
1150.0 6.8384e-10
1170.0 7.4299e-10
1190.0 7.9908e-10
1210.0 8.5592e-10
1230.0 9.1466e-10
1250.0 9.7221e-10
1270.0 1.0281e-09
1290.0 1.0872e-09
1310.0 1.1462e-09
1330.0 1.2028e-09
1350.0 1.26e-09
1370.0 1.3191e-09
1390.0 1.3767e-09
1410.0 1.4326e-09
1430.0 1.491e-09
1450.0 1.5495e-09
1470.0 1.606e-09
1490.0 1.6631e-09
1510.0 1.7234e-09
1530.0 1.7805e-09
1550.0 1.8369e-09
1570.0 1.8953e-09
1590.0 1.9537e-09
1610.0 2.0096e-09
1630.0 2.0671e-09
1650.0 2.1263e-09
1670.0 2.1835e-09
1690.0 2.24e-09
1710.0 2.2988e-09
1730.0 2.3579e-09
1750.0 2.4135e-09
1770.0 2.4709e-09
1790.0 2.5294e-09
1810.0 2.5862e-09
1830.0 2.6421e-09
1850.0 2.7014e-09
1870.0 2.7594e-09
1890.0 2.8154e-09
1910.0 2.8727e-09
1930.0 2.9316e-09
1950.0 2.9878e-09
1970.0 3.0435e-09
1990.0 3.1015e-09
2010.0 3.1586e-09
2030.0 3.2138e-09
2050.0 3.2708e-09
2070.0 3.3294e-09
2090.0 3.3848e-09
2110.0 3.4401e-09
2130.0 3.4972e-09
2150.0 3.5534e-09
2170.0 3.6072e-09
2190.0 3.6632e-09
2210.0 3.7196e-09
2230.0 3.7738e-09
2250.0 3.8279e-09
2270.0 3.8844e-09
2290.0 3.9393e-09
2310.0 3.9921e-09
2330.0 4.0469e-09
2350.0 4.1033e-09
2370.0 4.1594e-09
2390.0 4.2202e-09
2410.0 4.2922e-09
2430.0 4.375e-09
2450.0 4.474e-09
2470.0 4.6009e-09
2490.0 4.7608e-09
2510.0 4.9425e-09
2530.0 5.1613e-09
2550.0 5.4351e-09
2570.0 5.7758e-09
2590.0 6.2189e-09
2610.0 6.8824e-09
2630.0 7.8296e-09
2650.0 9.0682e-09
2670.0 1.067e-08
2690.0 1.2637e-08
2710.0 1.4738e-08
2730.0 1.6814e-08
2750.0 1.8858e-08
2770.0 2.0636e-08
2790.0 2.2048e-08
2810.0 2.3169e-08
2830.0 2.4044e-08
2850.0 2.4642e-08
2870.0 2.5081e-08
2890.0 2.5428e-08
2910.0 2.5705e-08
2930.0 2.5932e-08
2950.0 2.6148e-08
2970.0 2.6359e-08
2990.0 2.6558e-08
3010.0 7.5067e-07
3030.0 7.5628e-07
3050.0 7.617e-07
3070.0 7.6635e-07
3090.0 7.7034e-07
3110.0 7.7282e-07
3130.0 7.7272e-07
3150.0 7.6929e-07
3170.0 7.6105e-07
3190.0 7.4811e-07
3210.0 7.317e-07
3230.0 7.1292e-07
3250.0 6.9438e-07
3270.0 6.8083e-07
3290.0 6.7331e-07
3310.0 6.7453e-07
3330.0 6.8429e-07
3350.0 7.0129e-07
3370.0 7.2557e-07
3390.0 7.5616e-07
3410.0 7.8945e-07
3430.0 8.2682e-07
3450.0 8.6985e-07
3470.0 9.1684e-07
3490.0 9.6663e-07
3510.0 1.0229e-06
3530.0 1.0832e-06
3550.0 1.1442e-06
3570.0 1.2079e-06
3590.0 1.2771e-06
3610.0 1.3484e-06
3630.0 1.4195e-06
3650.0 1.4933e-06
3670.0 1.5607e-06
3690.0 1.611e-06
3710.0 1.6399e-06
3730.0 1.6408e-06
3750.0 1.618e-06
3770.0 1.609e-06
3790.0 1.5995e-06
3810.0 1.5602e-06
3830.0 1.6085e-06
3850.0 1.7984e-06
3870.0 1.9027e-06
3890.0 1.894e-06
3910.0 1.9021e-06
3930.0 1.9522e-06
3950.0 1.983e-06
3970.0 1.8067e-06
3990.0 1.5546e-06
4010.0 4.6593e-06
4030.0 5.6455e-06
4050.0 6.4722e-06
4070.0 5.6157e-06
4090.0 5.0861e-06
4110.0 4.488e-06
4130.0 4.1307e-06
4150.0 4.3939e-06
4170.0 4.3281e-06
4190.0 4.6135e-06
4210.0 4.5713e-06
4230.0 4.8352e-06
4250.0 5.7201e-06
4270.0 5.7874e-06
4290.0 5.333e-06
4310.0 5.5414e-06
4330.0 5.8944e-06
4350.0 6.6091e-06
4370.0 7.5212e-06
4390.0 7.0579e-06
4410.0 5.2145e-06
4430.0 4.4144e-06
4450.0 4.0564e-06
4470.0 3.1134e-06
4490.0 3.3597e-06
4510.0 5.075e-06
4530.0 5.8529e-06
4550.0 5.9037e-06
4570.0 6.6432e-06
4590.0 7.5672e-06
4610.0 1.0206e-05
4630.0 1.3256e-05
4650.0 1.4376e-05
4670.0 1.3313e-05
4690.0 1.2703e-05
4710.0 1.3428e-05
4730.0 1.2673e-05
4750.0 9.4744e-06
4770.0 6.9498e-06
4790.0 6.4898e-06
4810.0 6.1858e-06
4830.0 5.663e-06
4850.0 6.2142e-06
4870.0 8.2096e-06
4890.0 9.6814e-06
4910.0 8.4942e-06
4930.0 7.5162e-06
4950.0 8.2576e-06
4970.0 1.059e-05
4990.0 1.4352e-05
5010.0 1.651e-05
5030.0 1.4558e-05
5050.0 9.8494e-06
5070.0 6.4911e-06
5090.0 5.2341e-06
5110.0 5.3828e-06
5130.0 6.2126e-06
5150.0 6.7309e-06
5170.0 6.6299e-06
5190.0 6.1952e-06
5210.0 6.4754e-06
5230.0 6.8071e-06
5250.0 7.3362e-06
5270.0 7.9153e-06
5290.0 8.7718e-06
5310.0 1.021e-05
5330.0 1.1299e-05
5350.0 1.1227e-05
5370.0 1.1793e-05
5390.0 1.3532e-05
5410.0 1.352e-05
5430.0 1.1957e-05
5450.0 1.0986e-05
5470.0 1.1665e-05
5490.0 1.4251e-05
5510.0 1.7819e-05
5530.0 2.0437e-05
5550.0 1.9753e-05
5570.0 1.7957e-05
5590.0 1.5614e-05
5610.0 1.44e-05
5630.0 1.3963e-05
5650.0 1.3299e-05
5670.0 1.2602e-05
5690.0 1.1266e-05
5710.0 1.0984e-05
5730.0 1.0118e-05
5750.0 7.134e-06
5770.0 5.5657e-06
5790.0 6.3072e-06
5810.0 7.1219e-06
5830.0 8.7396e-06
5850.0 1.0404e-05
5870.0 1.1543e-05
5890.0 1.1739e-05
5910.0 1.1516e-05
5930.0 1.0962e-05
5950.0 1.117e-05
5970.0 1.2733e-05
5990.0 1.1972e-05
6010.0 1.0036e-05
6030.0 8.4793e-06
6050.0 7.3845e-06
6070.0 7.3441e-06
6090.0 7.9635e-06
6110.0 8.9044e-06
6130.0 9.0408e-06
6150.0 7.7788e-06
6170.0 6.843e-06
6190.0 7.7008e-06
6210.0 1.018e-05
6230.0 1.3359e-05
6250.0 1.447e-05
6270.0 1.2645e-05
6290.0 1.0639e-05
6310.0 8.3055e-06
6330.0 6.3636e-06
6350.0 5.6761e-06
6370.0 5.9691e-06
6390.0 6.9006e-06
6410.0 8.5087e-06
6430.0 9.9359e-06
6450.0 1.1369e-05
6470.0 1.3018e-05
6490.0 1.5725e-05
6510.0 1.7582e-05
6530.0 1.7249e-05
6550.0 1.5598e-05
6570.0 1.3241e-05
6590.0 1.194e-05
6610.0 1.0295e-05
6630.0 9.3273e-06
6650.0 8.817e-06
6670.0 8.5655e-06
6690.0 7.7394e-06
6710.0 7.0353e-06
6730.0 5.0674e-06
6750.0 5.0238e-06
6770.0 5.4605e-06
6790.0 6.2764e-06
6810.0 5.743e-06
6830.0 5.9137e-06
6850.0 5.5312e-06
6870.0 5.0528e-06
6890.0 4.8514e-06
6910.0 5.1698e-06
6930.0 4.8423e-06
6950.0 4.9819e-06
6970.0 5.2401e-06
6990.0 5.9479e-06
7010.0 5.9986e-06
7030.0 6.0938e-06
7050.0 5.8114e-06
7070.0 5.5373e-06
7090.0 5.5535e-06
7110.0 5.7141e-06
7130.0 6.1493e-06
7150.0 6.531e-06
7170.0 7.2065e-06
7190.0 7.922e-06
7210.0 7.7844e-06
7230.0 8.0025e-06
7250.0 8.6e-06
7270.0 9.3719e-06
7290.0 1.1123e-05
7310.0 1.207e-05
7330.0 1.1667e-05
7350.0 1.0552e-05
7370.0 9.181e-06
7390.0 8.9067e-06
7410.0 9.4651e-06
7430.0 1.0519e-05
7450.0 1.1457e-05
7470.0 1.1352e-05
7490.0 1.0351e-05
7510.0 1.1725e-05
7530.0 1.1597e-05
7550.0 1.0423e-05
7570.0 8.1426e-06
7590.0 5.5977e-06
7610.0 4.8045e-06
7630.0 5.4589e-06
7650.0 6.4544e-06
7670.0 8.0329e-06
7690.0 8.8396e-06
7710.0 9.2119e-06
7730.0 9.6806e-06
7750.0 1.0868e-05
7770.0 1.1038e-05
7790.0 1.0139e-05
7810.0 9.2515e-06
7830.0 9.5404e-06
7850.0 9.2741e-06
7870.0 8.5028e-06
7890.0 7.144e-06
7910.0 5.8071e-06
7930.0 5.5449e-06
7950.0 5.0516e-06
7970.0 4.6761e-06
7990.0 4.6494e-06
8010.0 3.4435e-07
8030.0 3.3987e-07
8050.0 3.3529e-07
8070.0 3.3968e-07
8090.0 3.6498e-07
8110.0 3.5876e-07
8130.0 2.9593e-07
8150.0 2.882e-07
8170.0 2.4824e-07
8190.0 2.3526e-07
8210.0 3.0551e-07
8230.0 3.4015e-07
8250.0 3.0657e-07
8270.0 2.6683e-07
8290.0 2.6011e-07
8310.0 2.0019e-07
8330.0 1.3493e-07
8350.0 9.5757e-08
8370.0 6.0331e-08
8390.0 1.1028e-07
8410.0 1.2851e-07
8430.0 1.5841e-07
8450.0 1.8602e-07
8470.0 2.312e-07
8490.0 2.2957e-07
8510.0 2.2582e-07
8530.0 2.3568e-07
8550.0 3.1797e-07
8570.0 3.7643e-07
8590.0 4.0617e-07
8610.0 5.1308e-07
8630.0 6.1807e-07
8650.0 6.4657e-07
8670.0 6.8711e-07
8690.0 6.9096e-07
8710.0 6.2576e-07
8730.0 5.8206e-07
8750.0 5.1377e-07
8770.0 4.8749e-07
8790.0 4.7893e-07
8810.0 4.5892e-07
8830.0 3.6698e-07
8850.0 2.6866e-07
8870.0 2.0571e-07
8890.0 2.0111e-07
8910.0 2.3048e-07
8930.0 2.6215e-07
8950.0 2.6717e-07
8970.0 2.6843e-07
8990.0 2.3941e-07
9010.0 2.5089e-06
9030.0 2.2734e-06
9050.0 2.2843e-06
9070.0 2.3024e-06
9090.0 2.3182e-06
9110.0 2.3377e-06
9130.0 2.3528e-06
9150.0 2.3645e-06
9170.0 2.377e-06
9190.0 2.3903e-06
9210.0 2.4044e-06
9230.0 2.4192e-06
9250.0 2.4342e-06
9270.0 2.4498e-06
9290.0 2.4659e-06
9310.0 2.4821e-06
9330.0 2.4986e-06
9350.0 2.5158e-06
9370.0 2.5331e-06
9390.0 2.5506e-06
9410.0 2.5686e-06
9430.0 2.5871e-06
9450.0 2.6056e-06
9470.0 2.6245e-06
9490.0 2.6439e-06
9510.0 2.6635e-06
9530.0 2.6832e-06
9550.0 2.7037e-06
9570.0 2.7244e-06
9590.0 2.7453e-06
9610.0 2.7665e-06
9630.0 2.7882e-06
9650.0 2.8102e-06
9670.0 2.8321e-06
9690.0 2.8547e-06
9710.0 2.8776e-06
9730.0 2.9006e-06
9750.0 2.9239e-06
9770.0 2.9479e-06
9790.0 2.9719e-06
9810.0 2.996e-06
9830.0 3.0206e-06
9850.0 3.0455e-06
9870.0 3.0703e-06
9890.0 3.0955e-06
9910.0 3.1212e-06
9930.0 3.1469e-06
9950.0 3.1727e-06
9970.0 3.1991e-06
9990.0 3.2257e-06
10010.0 2.799e-06
10030.0 2.822e-06
10050.0 2.8454e-06
10070.0 2.8697e-06
10090.0 2.8925e-06
10110.0 2.916e-06
10130.0 2.9395e-06
10150.0 2.9629e-06
10170.0 2.9866e-06
10190.0 3.0108e-06
10210.0 3.0346e-06
10230.0 3.0584e-06
10250.0 3.0826e-06
10270.0 3.1067e-06
10290.0 3.1306e-06
10310.0 3.1547e-06
10330.0 3.1791e-06
10350.0 3.2031e-06
10370.0 3.227e-06
10390.0 3.2511e-06
10410.0 3.2752e-06
10430.0 3.2988e-06
10450.0 3.3226e-06
10470.0 3.3465e-06
10490.0 3.3699e-06
10510.0 3.3933e-06
10530.0 3.417e-06
10550.0 3.4403e-06
10570.0 3.4631e-06
10590.0 3.486e-06
10610.0 3.509e-06
10630.0 3.5313e-06
10650.0 3.5535e-06
10670.0 3.5759e-06
10690.0 3.5979e-06
10710.0 3.6193e-06
10730.0 3.6409e-06
10750.0 3.6625e-06
10770.0 3.6832e-06
10790.0 3.7037e-06
10810.0 3.7242e-06
10830.0 3.7441e-06
10850.0 3.7629e-06
10870.0 3.7812e-06
10890.0 3.7973e-06
10910.0 3.8097e-06
10930.0 3.8167e-06
10950.0 3.815e-06
10970.0 3.8021e-06
10990.0 3.7767e-06
11010.0 3.7343e-06
11030.0 3.6749e-06
11050.0 3.6025e-06
11070.0 3.5159e-06
11090.0 3.4119e-06
11110.0 3.3043e-06
11130.0 3.1921e-06
11150.0 3.0712e-06
11170.0 2.9467e-06
11190.0 2.8258e-06
11210.0 2.701e-06
11230.0 2.5731e-06
11250.0 2.4508e-06
11270.0 2.3334e-06
11290.0 2.2158e-06
11310.0 2.1043e-06
11330.0 2.0062e-06
11350.0 1.9135e-06
11370.0 1.8278e-06
11390.0 1.7537e-06
11410.0 1.6889e-06
11430.0 1.6286e-06
11450.0 1.5767e-06
11470.0 1.5318e-06
11490.0 1.49e-06
11510.0 1.4498e-06
11530.0 1.4125e-06
11550.0 1.3754e-06
11570.0 1.3358e-06
11590.0 1.2948e-06
11610.0 1.2531e-06
11630.0 1.2077e-06
11650.0 1.159e-06
11670.0 1.1111e-06
11690.0 1.0625e-06
11710.0 1.0124e-06
11730.0 9.6385e-07
11750.0 9.189e-07
11770.0 8.7482e-07
11790.0 8.3351e-07
11810.0 7.9714e-07
11830.0 7.6461e-07
11850.0 7.3466e-07
11870.0 7.096e-07
11890.0 6.8877e-07
11910.0 6.7046e-07
11930.0 6.5473e-07
11950.0 6.4162e-07
11970.0 6.2992e-07
11990.0 6.1885e-07
12010.0 6.0862e-07
12030.0 5.9875e-07
12050.0 5.8855e-07
12070.0 5.7795e-07
12090.0 5.6772e-07
12110.0 5.5734e-07
12130.0 5.4694e-07
12150.0 5.3735e-07
12170.0 5.2898e-07
12190.0 5.2174e-07
12210.0 5.1668e-07
12230.0 5.1424e-07
12250.0 5.1464e-07
12270.0 5.1852e-07
12290.0 5.2585e-07
12310.0 5.3638e-07
12330.0 5.511e-07
12350.0 5.6947e-07
12370.0 5.9039e-07
12390.0 6.1451e-07
12410.0 6.4277e-07
12430.0 6.715e-07
12450.0 7.0124e-07
12470.0 7.3287e-07
12490.0 7.6464e-07
12510.0 7.9444e-07
12530.0 8.2409e-07
12550.0 8.5269e-07
12570.0 8.7794e-07
12590.0 9.0011e-07
12610.0 9.1986e-07
12630.0 9.356e-07
12650.0 9.4647e-07
12670.0 9.5361e-07
12690.0 9.5647e-07
12710.0 9.549e-07
12730.0 9.4936e-07
12750.0 9.3948e-07
12770.0 9.2593e-07
12790.0 9.095e-07
12810.0 8.8987e-07
12830.0 8.6717e-07
12850.0 8.4342e-07
12870.0 8.1832e-07
12890.0 7.9115e-07
12910.0 7.6354e-07
12930.0 7.3632e-07
12950.0 7.0792e-07
12970.0 6.7901e-07
12990.0 6.5166e-07
13010.0 6.2464e-07
13030.0 5.9733e-07
13050.0 5.711e-07
13070.0 5.4653e-07
13090.0 5.2187e-07
13110.0 4.9801e-07
13130.0 4.7601e-07
13150.0 4.5518e-07
13170.0 4.3478e-07
13190.0 4.1663e-07
13210.0 4.0066e-07
13230.0 3.8606e-07
13250.0 3.7348e-07
13270.0 3.6357e-07
13290.0 3.5585e-07
13310.0 3.5054e-07
13330.0 3.4812e-07
13350.0 3.484e-07
13370.0 3.5152e-07
13390.0 3.5766e-07
13410.0 3.6596e-07
13430.0 3.7674e-07
13450.0 3.9006e-07
13470.0 4.0485e-07
13490.0 4.2051e-07
13510.0 4.3818e-07
13530.0 4.5608e-07
13550.0 4.7322e-07
13570.0 4.9012e-07
13590.0 5.066e-07
13610.0 5.2125e-07
13630.0 5.3404e-07
13650.0 5.4572e-07
13670.0 5.5541e-07
13690.0 5.6291e-07
13710.0 5.6871e-07
13730.0 5.7285e-07
13750.0 5.7492e-07
13770.0 5.7539e-07
13790.0 5.7435e-07
13810.0 5.7181e-07
13830.0 5.6806e-07
13850.0 5.6299e-07
13870.0 5.5659e-07
13890.0 5.4927e-07
13910.0 5.4102e-07
13930.0 5.3147e-07
13950.0 5.2104e-07
13970.0 5.1038e-07
13990.0 4.9877e-07
14010.0 4.8642e-07
14030.0 4.7411e-07
14050.0 4.617e-07
14070.0 4.486e-07
14090.0 4.3604e-07
14110.0 4.2424e-07
14130.0 4.1281e-07
14150.0 4.0204e-07
14170.0 3.9286e-07
14190.0 3.8491e-07
14210.0 3.7817e-07
14230.0 3.7318e-07
14250.0 3.6996e-07
14270.0 3.6839e-07
14290.0 3.6873e-07
14310.0 3.7078e-07
14330.0 3.7447e-07
14350.0 3.799e-07
14370.0 3.8667e-07
14390.0 3.9435e-07
14410.0 4.034e-07
14430.0 4.1334e-07
14450.0 4.2349e-07
14470.0 4.3402e-07
14490.0 4.4522e-07
14510.0 4.5593e-07
14530.0 4.661e-07
14550.0 4.7627e-07
14570.0 4.8603e-07
14590.0 4.9491e-07
14610.0 5.0351e-07
14630.0 5.1201e-07
14650.0 5.1993e-07
14670.0 5.2758e-07
14690.0 5.3556e-07
14710.0 5.4394e-07
14730.0 5.5233e-07
14750.0 5.6162e-07
14770.0 5.7216e-07
14790.0 5.8358e-07
14810.0 5.9595e-07
14830.0 6.1062e-07
14850.0 6.2656e-07
14870.0 6.4319e-07
14890.0 6.6113e-07
14910.0 6.8018e-07
14930.0 6.9851e-07
14950.0 7.1563e-07
14970.0 7.3183e-07
14990.0 7.4543e-07
15010.0 7.5582e-07
15030.0 7.6352e-07
15050.0 7.6861e-07
15070.0 7.711e-07
15090.0 7.7197e-07
15110.0 7.7172e-07
15130.0 7.7074e-07
15150.0 7.6944e-07
15170.0 7.679e-07
15190.0 7.6625e-07
15210.0 7.6462e-07
15230.0 7.6299e-07
15250.0 7.6131e-07
15270.0 7.5964e-07
15290.0 7.5807e-07
15310.0 7.5645e-07
15330.0 7.5481e-07
15350.0 7.5323e-07
15370.0 7.5168e-07
15390.0 7.5003e-07
15410.0 7.4845e-07
15430.0 7.4691e-07
15450.0 7.4534e-07
15470.0 7.4374e-07
15490.0 7.4223e-07
15510.0 7.4072e-07
15530.0 7.3915e-07
15550.0 7.3762e-07
15570.0 7.3614e-07
15590.0 7.346e-07
15610.0 7.3304e-07
15630.0 7.3157e-07
15650.0 7.3008e-07
15670.0 7.2855e-07
15690.0 7.2707e-07
15710.0 7.2563e-07
15730.0 7.2413e-07
15750.0 7.2262e-07
15770.0 7.2118e-07
15790.0 7.1972e-07
15810.0 7.182e-07
15830.0 7.1674e-07
15850.0 7.1532e-07
15870.0 7.1385e-07
15890.0 7.1237e-07
15910.0 7.1096e-07
15930.0 7.0952e-07
15950.0 7.0803e-07
15970.0 7.0659e-07
15990.0 7.0518e-07
16010.0 7.0371e-07
16030.0 7.0223e-07
16050.0 7.0084e-07
16070.0 6.9941e-07
16090.0 6.9795e-07
16110.0 6.9653e-07
16130.0 6.9514e-07
16150.0 6.9365e-07
16170.0 6.9219e-07
16190.0 6.9079e-07
16210.0 6.8936e-07
16230.0 6.8789e-07
16250.0 6.8647e-07
16270.0 6.8508e-07
16290.0 6.8361e-07
16310.0 6.8216e-07
16330.0 6.8077e-07
16350.0 6.7933e-07
16370.0 6.7782e-07
16390.0 6.7641e-07
16410.0 6.75e-07
16430.0 6.7353e-07
16450.0 6.7207e-07
16470.0 6.7068e-07
16490.0 6.6922e-07
16510.0 6.6773e-07
16530.0 6.663e-07
16550.0 6.6487e-07
16570.0 6.6337e-07
16590.0 6.6189e-07
16610.0 6.6048e-07
16630.0 6.5901e-07
16650.0 6.5752e-07
16670.0 6.5608e-07
16690.0 6.5464e-07
16710.0 6.5311e-07
16730.0 6.5163e-07
16750.0 6.5018e-07
16770.0 6.4869e-07
16790.0 6.4716e-07
16810.0 6.4571e-07
16830.0 6.4424e-07
16850.0 6.4271e-07
16870.0 6.4121e-07
16890.0 6.3975e-07
16910.0 6.3822e-07
16930.0 6.3666e-07
16950.0 6.3518e-07
16970.0 6.3368e-07
16990.0 6.3212e-07
17010.0 6.306e-07
17030.0 6.2913e-07
17050.0 6.2757e-07
17070.0 6.2601e-07
17090.0 6.245e-07
17110.0 6.2297e-07
17130.0 6.2136e-07
17150.0 6.1981e-07
17170.0 6.183e-07
17190.0 6.1672e-07
17210.0 6.1514e-07
17230.0 6.1362e-07
17250.0 6.1205e-07
17270.0 6.1042e-07
17290.0 6.0885e-07
17310.0 6.073e-07
17330.0 6.0568e-07
17350.0 6.0405e-07
17370.0 6.0251e-07
17390.0 6.0092e-07
17410.0 5.9928e-07
17430.0 5.9769e-07
17450.0 5.9613e-07
17470.0 5.9445e-07
17490.0 5.9281e-07
17510.0 5.9123e-07
17530.0 5.896e-07
17550.0 5.8793e-07
17570.0 5.8632e-07
17590.0 5.8472e-07
17610.0 5.8304e-07
17630.0 5.8138e-07
17650.0 5.7977e-07
17670.0 5.7811e-07
17690.0 5.7638e-07
17710.0 5.7475e-07
17730.0 5.7312e-07
17750.0 5.7142e-07
17770.0 5.6974e-07
17790.0 5.6812e-07
17810.0 5.6642e-07
17830.0 5.647e-07
17850.0 5.6303e-07
17870.0 5.6136e-07
17890.0 5.5962e-07
17910.0 5.5791e-07
17930.0 5.5626e-07
17950.0 5.5455e-07
17970.0 5.5282e-07
17990.0 5.5115e-07
18010.0 5.4946e-07
18030.0 5.4768e-07
18050.0 5.4596e-07
18070.0 5.4428e-07
18090.0 5.4254e-07
18110.0 5.4077e-07
18130.0 5.3908e-07
18150.0 5.3737e-07
18170.0 5.356e-07
18190.0 5.3387e-07
18210.0 5.3217e-07
18230.0 5.304e-07
18250.0 5.286e-07
18270.0 5.269e-07
18290.0 5.2516e-07
18310.0 5.2337e-07
18330.0 5.2163e-07
18350.0 5.1992e-07
18370.0 5.1813e-07
18390.0 5.1635e-07
18410.0 5.1462e-07
18430.0 5.1286e-07
18450.0 5.1103e-07
18470.0 5.0928e-07
18490.0 5.0755e-07
18510.0 5.0576e-07
18530.0 5.0397e-07
18550.0 5.0225e-07
18570.0 5.0047e-07
18590.0 4.9864e-07
18610.0 4.9687e-07
18630.0 4.9512e-07
18650.0 4.9331e-07
18670.0 4.9149e-07
18690.0 4.8976e-07
18710.0 4.8798e-07
18730.0 4.8616e-07
18750.0 4.844e-07
18770.0 4.8265e-07
18790.0 4.808e-07
18810.0 4.7899e-07
18830.0 4.7724e-07
18850.0 4.7545e-07
18870.0 4.7361e-07
18890.0 4.7185e-07
18910.0 4.7009e-07
18930.0 4.6826e-07
18950.0 4.6646e-07
18970.0 4.647e-07
18990.0 4.629e-07
19010.0 4.6103e-07
19030.0 4.5927e-07
19050.0 4.575e-07
19070.0 4.5568e-07
19090.0 4.5388e-07
19110.0 4.5214e-07
19130.0 4.5031e-07
19150.0 4.4848e-07
19170.0 4.467e-07
19190.0 4.4493e-07
19210.0 4.4308e-07
19230.0 4.4127e-07
19250.0 4.3953e-07
19270.0 4.3772e-07
19290.0 4.359e-07
19310.0 4.3414e-07
19330.0 4.3236e-07
19350.0 4.305e-07
19370.0 4.2871e-07
19390.0 4.2695e-07
19410.0 4.2513e-07
19430.0 4.233e-07
19450.0 4.2156e-07
19470.0 4.1978e-07
19490.0 4.1795e-07
19510.0 4.1616e-07
19530.0 4.1441e-07
19550.0 4.1258e-07
19570.0 4.1075e-07
19590.0 4.09e-07
19610.0 4.0722e-07
19630.0 4.054e-07
19650.0 4.0363e-07
19670.0 4.0189e-07
19690.0 4.0007e-07
19710.0 3.9826e-07
19730.0 3.9651e-07
19750.0 3.9473e-07
19770.0 3.9289e-07
19790.0 3.9112e-07
19810.0 3.8938e-07
19830.0 3.8756e-07
19850.0 3.8575e-07
19870.0 3.8396e-07
19890.0 3.8204e-07
19910.0 3.7994e-07
19930.0 3.7768e-07
19950.0 3.751e-07
19970.0 3.7193e-07
19990.0 3.6811e-07
20010.0 3.275e-07
20030.0 3.2276e-07
20050.0 3.1721e-07
20070.0 3.112e-07
20090.0 3.0474e-07
20110.0 2.9742e-07
20130.0 2.9002e-07
20150.0 2.8268e-07
20170.0 2.7507e-07
20190.0 2.6736e-07
20210.0 2.6007e-07
20230.0 2.5296e-07
20250.0 2.4584e-07
20270.0 2.3922e-07
20290.0 2.3319e-07
20310.0 2.2745e-07
20330.0 2.2209e-07
20350.0 2.1764e-07
20370.0 2.1369e-07
20390.0 2.1023e-07
20410.0 2.0743e-07
20430.0 2.0527e-07
20450.0 2.0356e-07
20470.0 2.0242e-07
20490.0 2.0181e-07
20510.0 2.0163e-07
20530.0 2.0188e-07
20550.0 2.025e-07
20570.0 2.0341e-07
20590.0 2.0463e-07
20610.0 2.0612e-07
20630.0 2.0776e-07
20650.0 2.0959e-07
20670.0 2.1168e-07
20690.0 2.1382e-07
20710.0 2.1603e-07
20730.0 2.1841e-07
20750.0 2.2089e-07
20770.0 2.2334e-07
20790.0 2.259e-07
20810.0 2.2862e-07
20830.0 2.3132e-07
20850.0 2.3403e-07
20870.0 2.3694e-07
20890.0 2.399e-07
20910.0 2.4276e-07
20930.0 2.4573e-07
20950.0 2.488e-07
20970.0 2.518e-07
20990.0 2.5475e-07
21010.0 2.5786e-07
21030.0 2.609e-07
21050.0 2.638e-07
21070.0 2.6669e-07
21090.0 2.696e-07
21110.0 2.7225e-07
21130.0 2.7473e-07
21150.0 2.7714e-07
21170.0 2.7933e-07
21190.0 2.812e-07
21210.0 2.8289e-07
21230.0 2.843e-07
21250.0 2.853e-07
21270.0 2.8593e-07
21290.0 2.8617e-07
21310.0 2.8594e-07
21330.0 2.8527e-07
21350.0 2.8408e-07
21370.0 2.8235e-07
21390.0 2.8013e-07
21410.0 2.7743e-07
21430.0 2.74e-07
21450.0 2.7015e-07
21470.0 2.6596e-07
21490.0 2.6122e-07
21510.0 2.5602e-07
21530.0 2.5073e-07
21550.0 2.452e-07
21570.0 2.393e-07
21590.0 2.3349e-07
21610.0 2.2788e-07
21630.0 2.2227e-07
21650.0 2.1678e-07
21670.0 2.1202e-07
21690.0 2.0764e-07
21710.0 2.0369e-07
21730.0 2.0045e-07
21750.0 1.9796e-07
21770.0 1.9605e-07
21790.0 1.9496e-07
21810.0 1.9466e-07
21830.0 1.9509e-07
21850.0 1.9631e-07
21870.0 1.9821e-07
21890.0 2.0067e-07
21910.0 2.0382e-07
21930.0 2.0751e-07
21950.0 2.1152e-07
21970.0 2.1595e-07
21990.0 2.2093e-07
22010.0 2.2591e-07
22030.0 2.3096e-07
22050.0 2.3627e-07
22070.0 2.416e-07
22090.0 2.4665e-07
22110.0 2.5175e-07
22130.0 2.5683e-07
22150.0 2.6158e-07
22170.0 2.6606e-07
22190.0 2.705e-07
22210.0 2.7463e-07
22230.0 2.7826e-07
22250.0 2.8168e-07
22270.0 2.8483e-07
22290.0 2.8753e-07
22310.0 2.8984e-07
22330.0 2.9187e-07
22350.0 2.9345e-07
22370.0 2.9455e-07
22390.0 2.9525e-07
22410.0 2.9547e-07
22430.0 2.9519e-07
22450.0 2.9443e-07
22470.0 2.9311e-07
22490.0 2.9127e-07
22510.0 2.8897e-07
22530.0 2.8602e-07
22550.0 2.8244e-07
22570.0 2.7847e-07
22590.0 2.7399e-07
22610.0 2.6884e-07
22630.0 2.6326e-07
