#lamb flux
1010.0 9.1906e-11
1030.0 1.16e-10
1050.0 1.4401e-10
1070.0 1.7592e-10
1090.0 2.1264e-10
1110.0 2.5099e-10
1130.0 2.9035e-10
1150.0 3.3229e-10
1170.0 3.7632e-10
1190.0 4.1904e-10
1210.0 4.6294e-10
1230.0 5.0873e-10
1250.0 5.5401e-10
1270.0 5.9818e-10
1290.0 6.4442e-10
1310.0 6.9014e-10
1330.0 7.3326e-10
1350.0 7.7574e-10
1370.0 8.1819e-10
1390.0 8.58e-10
1410.0 8.9488e-10
1430.0 9.3188e-10
1450.0 9.6715e-10
1470.0 9.9943e-10
1490.0 1.0307e-09
1510.0 1.063e-09
1530.0 1.0921e-09
1550.0 1.12e-09
1570.0 1.1487e-09
1590.0 1.1772e-09
1610.0 1.2039e-09
1630.0 1.2319e-09
1650.0 1.2612e-09
1670.0 1.2896e-09
1690.0 1.3179e-09
1710.0 1.3483e-09
1730.0 1.3793e-09
1750.0 1.4087e-09
1770.0 1.4398e-09
1790.0 1.4721e-09
1810.0 1.5039e-09
1830.0 1.5356e-09
1850.0 1.5719e-09
1870.0 1.6093e-09
1890.0 1.6455e-09
1910.0 1.6824e-09
1930.0 1.7201e-09
1950.0 1.7559e-09
1970.0 1.7914e-09
1990.0 1.8283e-09
2010.0 1.8648e-09
2030.0 1.9001e-09
2050.0 1.9368e-09
2070.0 1.9742e-09
2090.0 2.0095e-09
2110.0 2.0448e-09
2130.0 2.0814e-09
2150.0 2.1173e-09
2170.0 2.1519e-09
2190.0 2.188e-09
2210.0 2.2258e-09
2230.0 2.2643e-09
2250.0 2.303e-09
2270.0 2.3436e-09
2290.0 2.3835e-09
2310.0 2.4223e-09
2330.0 2.4625e-09
2350.0 2.5033e-09
2370.0 2.5429e-09
2390.0 2.5829e-09
2410.0 2.6249e-09
2430.0 2.6663e-09
2450.0 2.7082e-09
2470.0 2.7544e-09
2490.0 2.8075e-09
2510.0 2.8682e-09
2530.0 2.946e-09
2550.0 3.0529e-09
2570.0 3.196e-09
2590.0 3.385e-09
2610.0 3.655e-09
2630.0 4.0134e-09
2650.0 4.4521e-09
2670.0 4.9945e-09
2690.0 5.6525e-09
2710.0 6.3748e-09
2730.0 7.1354e-09
2750.0 7.9593e-09
2770.0 8.7774e-09
2790.0 9.5376e-09
2810.0 1.0251e-08
2830.0 1.0918e-08
2850.0 1.1476e-08
2870.0 1.1967e-08
2890.0 1.2423e-08
2910.0 1.2848e-08
2930.0 1.3248e-08
2950.0 1.3659e-08
2970.0 1.4085e-08
2990.0 1.452e-08
3010.0 1.4972e-08
3030.0 1.5455e-08
3050.0 1.5961e-08
3070.0 1.6475e-08
3090.0 1.7021e-08
3110.0 1.7601e-08
3130.0 1.8225e-08
3150.0 1.8924e-08
3170.0 1.9823e-08
3190.0 2.0997e-08
3210.0 2.2539e-08
3230.0 2.4601e-08
3250.0 2.7248e-08
3270.0 2.9805e-08
3290.0 3.3799e-08
3310.0 4.1857e-08
3330.0 4.4551e-08
3350.0 4.5886e-08
3370.0 4.7173e-08
3390.0 4.848e-08
3410.0 4.9797e-08
3430.0 5.112e-08
3450.0 5.2441e-08
3470.0 5.3741e-08
3490.0 5.4987e-08
3510.0 5.6084e-08
3530.0 5.5549e-08
3550.0 5.4022e-08
3570.0 5.4867e-08
3590.0 5.8465e-08
3610.0 6.3771e-08
3630.0 6.6043e-08
3650.0 6.349e-08
3670.0 5.8245e-08
3690.0 5.512e-08
3710.0 5.5728e-08
3730.0 5.7562e-08
3750.0 5.8558e-08
3770.0 6.053e-08
3790.0 6.273e-08
3810.0 6.1907e-08
3830.0 5.7684e-08
3850.0 5.3859e-08
3870.0 5.2036e-08
3890.0 5.1499e-08
3910.0 5.0391e-08
3930.0 4.9812e-08
3950.0 5.1235e-08
3970.0 5.2899e-08
3990.0 5.3356e-08
4010.0 5.1435e-08
4030.0 4.8636e-08
4050.0 4.6824e-08
4070.0 4.5291e-08
4090.0 4.4069e-08
4110.0 4.2485e-08
4130.0 3.9956e-08
4150.0 3.7396e-08
4170.0 3.5877e-08
4190.0 3.348e-08
4210.0 3.0302e-08
4230.0 2.7091e-08
4250.0 2.4031e-08
4270.0 2.1732e-08
4290.0 2.0063e-08
4310.0 1.9174e-08
4330.0 1.914e-08
4350.0 1.928e-08
4370.0 1.9464e-08
4390.0 2.0212e-08
4410.0 2.0726e-08
4430.0 2.0039e-08
4450.0 1.8182e-08
4470.0 1.6546e-08
4490.0 1.567e-08
4510.0 1.5098e-08
4530.0 1.4809e-08
4550.0 1.4558e-08
4570.0 1.4494e-08
4590.0 1.4693e-08
4610.0 1.5118e-08
4630.0 1.537e-08
4650.0 1.5484e-08
4670.0 1.5108e-08
4690.0 1.4196e-08
4710.0 1.3294e-08
4730.0 1.27e-08
4750.0 1.2336e-08
4770.0 1.2389e-08
4790.0 1.234e-08
4810.0 1.2076e-08
4830.0 1.2114e-08
4850.0 1.2486e-08
4870.0 1.2614e-08
4890.0 1.2389e-08
4910.0 1.209e-08
4930.0 1.1399e-08
4950.0 1.0418e-08
4970.0 9.7356e-09
4990.0 9.1754e-09
5010.0 9.0582e-09
5030.0 9.3626e-09
5050.0 9.6008e-09
5070.0 9.9604e-09
5090.0 1.0562e-08
5110.0 1.0721e-08
5130.0 1.0816e-08
5150.0 1.1012e-08
5170.0 1.1111e-08
5190.0 1.1401e-08
5210.0 1.1459e-08
5230.0 1.1343e-08
5250.0 1.143e-08
5270.0 1.1586e-08
5290.0 1.1615e-08
5310.0 1.153e-08
5330.0 1.1309e-08
5350.0 1.1162e-08
5370.0 1.1041e-08
5390.0 1.0891e-08
5410.0 1.0772e-08
5430.0 1.0764e-08
5450.0 1.0927e-08
5470.0 1.113e-08
5490.0 1.1464e-08
5510.0 1.181e-08
5530.0 1.1956e-08
5550.0 1.2128e-08
5570.0 1.2167e-08
5590.0 1.1932e-08
5610.0 1.1848e-08
5630.0 1.193e-08
5650.0 1.1788e-08
5670.0 1.1528e-08
5690.0 1.119e-08
5710.0 1.1148e-08
5730.0 1.1272e-08
5750.0 1.0795e-08
5770.0 1.0238e-08
5790.0 9.4325e-09
5810.0 8.2697e-09
5830.0 8.901e-09
5850.0 9.8253e-09
5870.0 1.0026e-08
5890.0 1.0078e-08
5910.0 1.0174e-08
5930.0 1.0148e-08
5950.0 9.9866e-09
5970.0 9.8688e-09
5990.0 9.7345e-09
6010.0 9.4356e-09
6030.0 9.1172e-09
6050.0 8.9737e-09
6070.0 8.9215e-09
6090.0 8.7942e-09
6110.0 8.5068e-09
6130.0 8.2127e-09
6150.0 7.8862e-09
6170.0 7.5616e-09
6190.0 7.2048e-09
6210.0 6.954e-09
6230.0 6.8596e-09
6250.0 6.7142e-09
6270.0 6.574e-09
6290.0 6.531e-09
6310.0 6.4989e-09
6330.0 6.3588e-09
6350.0 6.1513e-09
6370.0 6.0381e-09
6390.0 5.9088e-09
6410.0 5.7493e-09
6430.0 5.5891e-09
6450.0 5.47e-09
6470.0 5.357e-09
6490.0 5.2782e-09
6510.0 5.1776e-09
6530.0 5.0494e-09
6550.0 4.9379e-09
6570.0 4.8564e-09
6590.0 4.8546e-09
6610.0 4.8251e-09
6630.0 4.666e-09
6650.0 4.5298e-09
6670.0 4.4798e-09
6690.0 4.4078e-09
6710.0 4.2999e-09
6730.0 4.26e-09
6750.0 4.293e-09
6770.0 4.5397e-09
6790.0 5.0472e-09
6810.0 4.7983e-09
6830.0 4.2337e-09
6850.0 4.0613e-09
6870.0 3.9995e-09
6890.0 3.999e-09
6910.0 4.0071e-09
6930.0 4.0138e-09
6950.0 4.0058e-09
6970.0 3.9038e-09
6990.0 3.8686e-09
7010.0 3.9253e-09
7030.0 3.9476e-09
7050.0 3.8907e-09
7070.0 3.8408e-09
7090.0 3.856e-09
7110.0 3.9469e-09
7130.0 3.9596e-09
7150.0 3.9764e-09
7170.0 3.9973e-09
7190.0 4.0517e-09
7210.0 4.0999e-09
7230.0 4.1525e-09
7250.0 4.2068e-09
7270.0 4.2474e-09
7290.0 4.3181e-09
7310.0 4.3902e-09
7330.0 4.3546e-09
7350.0 4.2618e-09
7370.0 4.2107e-09
7390.0 4.2088e-09
7410.0 4.2137e-09
7430.0 4.2681e-09
7450.0 4.2939e-09
7470.0 4.3622e-09
7490.0 4.3393e-09
7510.0 4.2862e-09
7530.0 4.341e-09
7550.0 4.4579e-09
7570.0 4.4482e-09
7590.0 4.2216e-09
7610.0 4.1974e-09
7630.0 4.4274e-09
7650.0 4.5222e-09
7670.0 4.5378e-09
7690.0 4.7432e-09
7710.0 4.8946e-09
7730.0 4.9451e-09
7750.0 5.1994e-09
7770.0 5.0734e-09
7790.0 4.9595e-09
7810.0 5.244e-09
7830.0 5.4523e-09
7850.0 5.5761e-09
7870.0 5.6959e-09
7890.0 5.733e-09
7910.0 5.6914e-09
7930.0 5.7271e-09
7950.0 5.9888e-09
7970.0 5.9851e-09
7990.0 5.5761e-09
8010.0 5.2227e-09
8030.0 5.3385e-09
8050.0 5.4591e-09
8070.0 4.9262e-09
8090.0 3.1718e-09
8110.0 3.3264e-09
8130.0 4.801e-09
8150.0 5.1698e-09
8170.0 5.3737e-09
8190.0 5.4819e-09
8210.0 5.4224e-09
8230.0 5.8946e-09
8250.0 6.0302e-09
8270.0 5.6862e-09
8290.0 5.4535e-09
8310.0 5.3823e-09
8330.0 5.6976e-09
8350.0 5.9678e-09
8370.0 5.8465e-09
8390.0 5.5732e-09
8410.0 5.5695e-09
8430.0 5.2146e-09
8450.0 5.3411e-09
8470.0 5.8352e-09
8490.0 5.8529e-09
8510.0 5.4284e-09
8530.0 5.0724e-09
8550.0 4.8571e-09
8570.0 4.5853e-09
8590.0 4.7159e-09
8610.0 5.0153e-09
8630.0 5.1428e-09
8650.0 5.233e-09
8670.0 5.0813e-09
8690.0 4.9635e-09
8710.0 4.6058e-09
8730.0 4.4446e-09
8750.0 4.6374e-09
8770.0 4.7146e-09
8790.0 4.6858e-09
8810.0 4.6773e-09
8830.0 4.7845e-09
8850.0 5.019e-09
8870.0 4.6854e-09
8890.0 4.4256e-09
8910.0 4.3591e-09
8930.0 4.0817e-09
8950.0 3.9429e-09
8970.0 3.9465e-09
8990.0 3.776e-09
9010.0 3.546e-09
9030.0 3.465e-09
9050.0 3.4357e-09
9070.0 3.4096e-09
9090.0 3.3834e-09
9110.0 3.357e-09
9130.0 3.3304e-09
9150.0 3.3037e-09
9170.0 3.277e-09
9190.0 3.2502e-09
9210.0 3.2234e-09
9230.0 3.1966e-09
9250.0 3.1697e-09
9270.0 3.1429e-09
9290.0 3.1162e-09
9310.0 3.0894e-09
9330.0 3.0625e-09
9350.0 3.0357e-09
9370.0 3.0091e-09
9390.0 2.9825e-09
9410.0 2.9561e-09
9430.0 2.9299e-09
9450.0 2.9038e-09
9470.0 2.8779e-09
9490.0 2.8521e-09
9510.0 2.8267e-09
9530.0 2.8014e-09
9550.0 2.7763e-09
9570.0 2.7514e-09
9590.0 2.7268e-09
9610.0 2.7022e-09
9630.0 2.6778e-09
9650.0 2.6537e-09
9670.0 2.6298e-09
9690.0 2.6062e-09
9710.0 2.5828e-09
9730.0 2.5597e-09
9750.0 2.5368e-09
9770.0 2.5142e-09
9790.0 2.4919e-09
9810.0 2.4698e-09
9830.0 2.448e-09
9850.0 2.4265e-09
9870.0 2.4054e-09
9890.0 2.3843e-09
9910.0 2.3635e-09
9930.0 2.3431e-09
9950.0 2.3228e-09
9970.0 2.3029e-09
9990.0 2.2831e-09
10010.0 2.2637e-09
10030.0 2.2445e-09
10050.0 2.2256e-09
10070.0 2.2069e-09
10090.0 2.1885e-09
10110.0 2.1703e-09
10130.0 2.1524e-09
10150.0 2.1347e-09
10170.0 2.1172e-09
10190.0 2.1e-09
10210.0 2.083e-09
10230.0 2.0662e-09
10250.0 2.0497e-09
10270.0 2.0334e-09
10290.0 2.0173e-09
10310.0 2.0014e-09
10330.0 1.9857e-09
10350.0 1.9702e-09
10370.0 1.955e-09
10390.0 1.9397e-09
10410.0 1.9217e-09
10430.0 1.903e-09
10450.0 1.8919e-09
10470.0 1.8792e-09
10490.0 1.8662e-09
10510.0 1.8531e-09
10530.0 1.8394e-09
10550.0 1.8259e-09
10570.0 1.8128e-09
10590.0 1.7995e-09
10610.0 1.7863e-09
10630.0 1.7735e-09
10650.0 1.7609e-09
10670.0 1.7481e-09
10690.0 1.7356e-09
10710.0 1.7234e-09
10730.0 1.7112e-09
10750.0 1.6988e-09
10770.0 1.6871e-09
10790.0 1.6755e-09
10810.0 1.6637e-09
10830.0 1.6522e-09
10850.0 1.641e-09
10870.0 1.6295e-09
10890.0 1.6182e-09
10910.0 1.6072e-09
10930.0 1.5962e-09
10950.0 1.5849e-09
10970.0 1.5738e-09
10990.0 1.5629e-09
11010.0 1.6333e-09
11030.0 1.6214e-09
11050.0 1.6096e-09
11070.0 1.5975e-09
11090.0 1.5847e-09
11110.0 1.5723e-09
11130.0 1.5598e-09
11150.0 1.5469e-09
11170.0 1.5339e-09
11190.0 1.5212e-09
11210.0 1.5082e-09
11230.0 1.495e-09
11250.0 1.4821e-09
11270.0 1.4696e-09
11290.0 1.4569e-09
11310.0 1.4446e-09
11330.0 1.4332e-09
11350.0 1.4221e-09
11370.0 1.4112e-09
11390.0 1.4012e-09
11410.0 1.3917e-09
11430.0 1.3823e-09
11450.0 1.3734e-09
11470.0 1.3651e-09
11490.0 1.3568e-09
11510.0 1.3486e-09
11530.0 1.3407e-09
11550.0 1.3329e-09
11570.0 1.3248e-09
11590.0 1.3167e-09
11610.0 1.3087e-09
11630.0 1.3003e-09
11650.0 1.2915e-09
11670.0 1.2828e-09
11690.0 1.2741e-09
11710.0 1.2649e-09
11730.0 1.2556e-09
11750.0 1.2466e-09
11770.0 1.2372e-09
11790.0 1.2277e-09
11810.0 1.2185e-09
11830.0 1.2093e-09
11850.0 1.1999e-09
11870.0 1.1908e-09
11890.0 1.1823e-09
11910.0 1.1738e-09
11930.0 1.1655e-09
11950.0 1.1578e-09
11970.0 1.1505e-09
11990.0 1.1433e-09
12010.0 1.1367e-09
12030.0 1.1307e-09
12050.0 1.1249e-09
12070.0 1.1195e-09
12090.0 1.1148e-09
12110.0 1.1104e-09
12130.0 1.1063e-09
12150.0 1.1026e-09
12170.0 1.0992e-09
12190.0 1.0959e-09
12210.0 1.0927e-09
12230.0 1.0897e-09
12250.0 1.0867e-09
12270.0 1.0834e-09
12290.0 1.08e-09
12310.0 1.0765e-09
12330.0 1.0724e-09
12350.0 1.068e-09
12370.0 1.0632e-09
12390.0 1.0579e-09
12410.0 1.0519e-09
12430.0 1.0456e-09
12450.0 1.0389e-09
12470.0 1.0315e-09
12490.0 1.0237e-09
12510.0 1.0158e-09
12530.0 1.0074e-09
12550.0 9.9841e-10
12570.0 9.895e-10
12590.0 9.805e-10
12610.0 9.71e-10
12630.0 9.6143e-10
12650.0 9.5234e-10
12670.0 9.4303e-10
12690.0 9.3365e-10
12710.0 9.2472e-10
12730.0 9.1609e-10
12750.0 9.0724e-10
12770.0 8.9889e-10
12790.0 8.9112e-10
12810.0 8.8354e-10
12830.0 8.7618e-10
12850.0 8.6957e-10
12870.0 8.6341e-10
12890.0 8.575e-10
12910.0 8.5216e-10
12930.0 8.4746e-10
12950.0 8.4309e-10
12970.0 8.392e-10
12990.0 8.3601e-10
13010.0 8.3332e-10
13030.0 8.3107e-10
13050.0 8.2935e-10
13070.0 8.2811e-10
13090.0 8.2721e-10
13110.0 8.2662e-10
13130.0 8.2627e-10
13150.0 8.2604e-10
13170.0 8.2584e-10
13190.0 8.2555e-10
13210.0 8.2509e-10
13230.0 8.2434e-10
13250.0 8.2323e-10
13270.0 8.2176e-10
13290.0 8.1982e-10
13310.0 8.1731e-10
13330.0 8.1435e-10
13350.0 8.1096e-10
13370.0 8.0698e-10
13390.0 8.0241e-10
13410.0 7.9767e-10
13430.0 7.9244e-10
13450.0 7.8666e-10
13470.0 7.8065e-10
13490.0 7.7449e-10
13510.0 7.6764e-10
13530.0 7.6059e-10
13550.0 7.5357e-10
13570.0 7.4627e-10
13590.0 7.3857e-10
13610.0 7.3097e-10
13630.0 7.2347e-10
13650.0 7.1555e-10
13670.0 7.0763e-10
13690.0 6.9994e-10
13710.0 6.9214e-10
13730.0 6.8398e-10
13750.0 6.7634e-10
13770.0 6.6886e-10
13790.0 6.6124e-10
13810.0 6.5382e-10
13830.0 6.4689e-10
13850.0 6.3991e-10
13870.0 6.33e-10
13890.0 6.2655e-10
13910.0 6.2038e-10
13930.0 6.1418e-10
13950.0 6.0826e-10
13970.0 6.0287e-10
13990.0 5.9751e-10
14010.0 5.923e-10
14030.0 5.8747e-10
14050.0 5.8289e-10
14070.0 5.7826e-10
14090.0 5.7398e-10
14110.0 5.7003e-10
14130.0 5.6617e-10
14150.0 5.6243e-10
14170.0 5.5904e-10
14190.0 5.5581e-10
14210.0 5.5262e-10
14230.0 5.4961e-10
14250.0 5.4681e-10
14270.0 5.4398e-10
14290.0 5.412e-10
14310.0 5.3863e-10
14330.0 5.361e-10
14350.0 5.3355e-10
14370.0 5.3109e-10
14390.0 5.2876e-10
14410.0 5.2637e-10
14430.0 5.24e-10
14450.0 5.2175e-10
14470.0 5.1951e-10
14490.0 5.1719e-10
14510.0 5.1497e-10
14530.0 5.1282e-10
14550.0 5.106e-10
14570.0 5.0837e-10
14590.0 5.0621e-10
14610.0 5.04e-10
14630.0 5.0169e-10
14650.0 4.9942e-10
14670.0 4.9718e-10
14690.0 4.9482e-10
14710.0 4.9241e-10
14730.0 4.901e-10
14750.0 4.877e-10
14770.0 4.852e-10
14790.0 4.8273e-10
14810.0 4.8027e-10
14830.0 4.776e-10
14850.0 4.7492e-10
14870.0 4.7231e-10
14890.0 4.6963e-10
14910.0 4.6688e-10
14930.0 4.6428e-10
14950.0 4.6182e-10
14970.0 4.594e-10
14990.0 4.572e-10
15010.0 4.5528e-10
15030.0 4.5354e-10
15050.0 4.5194e-10
15070.0 4.5059e-10
15090.0 4.4937e-10
15110.0 4.4819e-10
15130.0 4.4707e-10
15150.0 4.4602e-10
15170.0 4.4494e-10
15190.0 4.4385e-10
15210.0 4.428e-10
15230.0 4.4176e-10
15250.0 4.4067e-10
15270.0 4.3959e-10
15290.0 4.3856e-10
15310.0 4.375e-10
15330.0 4.3642e-10
15350.0 4.3538e-10
15370.0 4.3434e-10
15390.0 4.3323e-10
15410.0 4.3216e-10
15430.0 4.3112e-10
15450.0 4.3005e-10
15470.0 4.2896e-10
15490.0 4.2792e-10
15510.0 4.2687e-10
15530.0 4.2578e-10
15550.0 4.2471e-10
15570.0 4.2368e-10
15590.0 4.2259e-10
15610.0 4.2149e-10
15630.0 4.2044e-10
15650.0 4.1938e-10
15670.0 4.1829e-10
15690.0 4.1722e-10
15710.0 4.1619e-10
15730.0 4.151e-10
15750.0 4.1401e-10
15770.0 4.1296e-10
15790.0 4.1189e-10
15810.0 4.1078e-10
15830.0 4.0971e-10
15850.0 4.0866e-10
15870.0 4.0758e-10
15890.0 4.0649e-10
15910.0 4.0544e-10
15930.0 4.0437e-10
15950.0 4.0326e-10
15970.0 4.0219e-10
15990.0 4.0113e-10
16010.0 4.0003e-10
16030.0 3.9893e-10
16050.0 3.9788e-10
16070.0 3.9681e-10
16090.0 3.9571e-10
16110.0 3.9464e-10
16130.0 3.9359e-10
16150.0 3.9247e-10
16170.0 3.9137e-10
16190.0 3.9031e-10
16210.0 3.8923e-10
16230.0 3.8812e-10
16250.0 3.8705e-10
16270.0 3.8599e-10
16290.0 3.8488e-10
16310.0 3.8379e-10
16330.0 3.8273e-10
16350.0 3.8164e-10
16370.0 3.8051e-10
16390.0 3.7944e-10
16410.0 3.7837e-10
16430.0 3.7727e-10
16450.0 3.7617e-10
16470.0 3.7512e-10
16490.0 3.7402e-10
16510.0 3.7291e-10
16530.0 3.7183e-10
16550.0 3.7076e-10
16570.0 3.6964e-10
16590.0 3.6853e-10
16610.0 3.6747e-10
16630.0 3.6638e-10
16650.0 3.6527e-10
16670.0 3.642e-10
16690.0 3.6313e-10
16710.0 3.6199e-10
16730.0 3.609e-10
16750.0 3.5983e-10
16770.0 3.5873e-10
16790.0 3.576e-10
16810.0 3.5654e-10
16830.0 3.5546e-10
16850.0 3.5434e-10
16870.0 3.5325e-10
16890.0 3.5218e-10
16910.0 3.5107e-10
16930.0 3.4994e-10
16950.0 3.4887e-10
16970.0 3.4778e-10
16990.0 3.4666e-10
17010.0 3.4557e-10
17030.0 3.4451e-10
17050.0 3.434e-10
17070.0 3.4228e-10
17090.0 3.4121e-10
17110.0 3.4012e-10
17130.0 3.3898e-10
17150.0 3.3789e-10
17170.0 3.3682e-10
17190.0 3.3571e-10
17210.0 3.346e-10
17230.0 3.3353e-10
17250.0 3.3244e-10
17270.0 3.3131e-10
17290.0 3.3022e-10
17310.0 3.2914e-10
17330.0 3.2802e-10
17350.0 3.269e-10
17370.0 3.2584e-10
17390.0 3.2475e-10
17410.0 3.2363e-10
17430.0 3.2254e-10
17450.0 3.2147e-10
17470.0 3.2034e-10
17490.0 3.1923e-10
17510.0 3.1815e-10
17530.0 3.1705e-10
17550.0 3.1593e-10
17570.0 3.1485e-10
17590.0 3.1378e-10
17610.0 3.1266e-10
17630.0 3.1155e-10
17650.0 3.1048e-10
17670.0 3.0938e-10
17690.0 3.0824e-10
17710.0 3.0716e-10
17730.0 3.0608e-10
17750.0 3.0497e-10
17770.0 3.0386e-10
17790.0 3.028e-10
17810.0 3.0169e-10
17830.0 3.0057e-10
17850.0 2.9949e-10
17870.0 2.9841e-10
17890.0 2.9728e-10
17910.0 2.9617e-10
17930.0 2.9511e-10
17950.0 2.9401e-10
17970.0 2.929e-10
17990.0 2.9182e-10
18010.0 2.9074e-10
18030.0 2.896e-10
18050.0 2.8851e-10
18070.0 2.8743e-10
18090.0 2.8633e-10
18110.0 2.8521e-10
18130.0 2.8414e-10
18150.0 2.8306e-10
18170.0 2.8194e-10
18190.0 2.8085e-10
18210.0 2.7978e-10
18230.0 2.7866e-10
18250.0 2.7754e-10
18270.0 2.7647e-10
18290.0 2.7538e-10
18310.0 2.7427e-10
18330.0 2.7318e-10
18350.0 2.7212e-10
18370.0 2.71e-10
18390.0 2.6989e-10
18410.0 2.6882e-10
18430.0 2.6773e-10
18450.0 2.666e-10
18470.0 2.6552e-10
18490.0 2.6445e-10
18510.0 2.6334e-10
18530.0 2.6224e-10
18550.0 2.6118e-10
18570.0 2.6009e-10
18590.0 2.5896e-10
18610.0 2.5788e-10
18630.0 2.568e-10
18650.0 2.5569e-10
18670.0 2.5458e-10
18690.0 2.5352e-10
18710.0 2.5243e-10
18730.0 2.5132e-10
18750.0 2.5024e-10
18770.0 2.4918e-10
18790.0 2.4805e-10
18810.0 2.4695e-10
18830.0 2.4588e-10
18850.0 2.4479e-10
18870.0 2.4368e-10
18890.0 2.4261e-10
18910.0 2.4154e-10
18930.0 2.4043e-10
18950.0 2.3933e-10
18970.0 2.3827e-10
18990.0 2.3717e-10
19010.0 2.3604e-10
19030.0 2.3498e-10
19050.0 2.339e-10
19070.0 2.328e-10
19090.0 2.3171e-10
19110.0 2.3066e-10
19130.0 2.2955e-10
19150.0 2.2844e-10
19170.0 2.2737e-10
19190.0 2.2629e-10
19210.0 2.2517e-10
19230.0 2.2408e-10
19250.0 2.2303e-10
19270.0 2.2193e-10
19290.0 2.2083e-10
19310.0 2.1977e-10
19330.0 2.187e-10
19350.0 2.1757e-10
19370.0 2.1648e-10
19390.0 2.1542e-10
19410.0 2.1432e-10
19430.0 2.1321e-10
19450.0 2.1216e-10
19470.0 2.1108e-10
19490.0 2.0997e-10
19510.0 2.0889e-10
19530.0 2.0784e-10
19550.0 2.0673e-10
19570.0 2.0561e-10
19590.0 2.0456e-10
19610.0 2.0348e-10
19630.0 2.0237e-10
19650.0 2.013e-10
19670.0 2.0024e-10
19690.0 1.9914e-10
19710.0 1.9804e-10
19730.0 1.9698e-10
19750.0 1.959e-10
19770.0 1.9477e-10
19790.0 1.937e-10
19810.0 1.9264e-10
19830.0 1.9155e-10
19850.0 1.9046e-10
19870.0 1.8942e-10
19890.0 1.8835e-10
19910.0 1.8728e-10
19930.0 1.8628e-10
19950.0 1.8534e-10
19970.0 1.8444e-10
19990.0 1.8364e-10
20010.0 1.8298e-10
20030.0 1.824e-10
20050.0 1.8192e-10
20070.0 1.8155e-10
20090.0 1.8124e-10
20110.0 1.8097e-10
20130.0 1.8075e-10
20150.0 1.8054e-10
20170.0 1.8034e-10
20190.0 1.8014e-10
20210.0 1.7994e-10
20230.0 1.7973e-10
20250.0 1.795e-10
20270.0 1.7927e-10
20290.0 1.7902e-10
20310.0 1.7876e-10
20330.0 1.7848e-10
20350.0 1.7819e-10
20370.0 1.7789e-10
20390.0 1.7757e-10
20410.0 1.7724e-10
20430.0 1.7691e-10
20450.0 1.7655e-10
20470.0 1.7619e-10
20490.0 1.7583e-10
20510.0 1.7547e-10
20530.0 1.751e-10
20550.0 1.7474e-10
20570.0 1.744e-10
20590.0 1.7406e-10
20610.0 1.7372e-10
20630.0 1.734e-10
20650.0 1.7308e-10
20670.0 1.7275e-10
20690.0 1.7244e-10
20710.0 1.7213e-10
20730.0 1.7181e-10
20750.0 1.7147e-10
20770.0 1.7114e-10
20790.0 1.7078e-10
20810.0 1.7038e-10
20830.0 1.6997e-10
20850.0 1.6953e-10
20870.0 1.6905e-10
20890.0 1.6853e-10
20910.0 1.6801e-10
20930.0 1.6745e-10
20950.0 1.6685e-10
20970.0 1.6624e-10
20990.0 1.6562e-10
21010.0 1.6496e-10
21030.0 1.643e-10
21050.0 1.6365e-10
21070.0 1.6299e-10
21090.0 1.6231e-10
21110.0 1.6167e-10
21130.0 1.6104e-10
21150.0 1.6039e-10
21170.0 1.5975e-10
21190.0 1.5914e-10
21210.0 1.5852e-10
21230.0 1.5788e-10
21250.0 1.5726e-10
21270.0 1.5665e-10
21290.0 1.56e-10
21310.0 1.5535e-10
21330.0 1.5472e-10
21350.0 1.5405e-10
21370.0 1.5335e-10
21390.0 1.5267e-10
21410.0 1.5198e-10
21430.0 1.5123e-10
21450.0 1.5049e-10
21470.0 1.4975e-10
21490.0 1.4898e-10
21510.0 1.4817e-10
21530.0 1.4739e-10
21550.0 1.4659e-10
21570.0 1.4575e-10
21590.0 1.4493e-10
21610.0 1.4411e-10
21630.0 1.4327e-10
21650.0 1.424e-10
21670.0 1.4159e-10
21690.0 1.4077e-10
21710.0 1.3992e-10
21730.0 1.391e-10
21750.0 1.383e-10
21770.0 1.3746e-10
21790.0 1.3662e-10
21810.0 1.3582e-10
21830.0 1.3501e-10
21850.0 1.3417e-10
21870.0 1.3336e-10
21890.0 1.3257e-10
21910.0 1.3175e-10
21930.0 1.3094e-10
21950.0 1.3016e-10
21970.0 1.2937e-10
21990.0 1.2855e-10
22010.0 1.2779e-10
22030.0 1.2706e-10
22050.0 1.2631e-10
22070.0 1.2559e-10
22090.0 1.2491e-10
22110.0 1.2425e-10
22130.0 1.2359e-10
22150.0 1.2299e-10
22170.0 1.2242e-10
22190.0 1.2185e-10
22210.0 1.2132e-10
22230.0 1.2084e-10
22250.0 1.2037e-10
22270.0 1.1991e-10
22290.0 1.1949e-10
22310.0 1.1909e-10
22330.0 1.1868e-10
22350.0 1.1829e-10
22370.0 1.1791e-10
22390.0 1.1753e-10
22410.0 1.1714e-10
22430.0 1.1677e-10
22450.0 1.164e-10
22470.0 1.1601e-10
22490.0 1.1562e-10
22510.0 1.1524e-10
22530.0 1.1485e-10
22550.0 1.1444e-10
22570.0 1.1404e-10
22590.0 1.1365e-10
22610.0 1.1324e-10
22630.0 1.1285e-10
