#lamb flux
1010.0 6.6802e-09
1030.0 7.3323e-09
1050.0 8.0824e-09
1070.0 8.9267e-09
1090.0 9.8858e-09
1110.0 1.0869e-08
1130.0 1.186e-08
1150.0 1.2897e-08
1170.0 1.3966e-08
1190.0 1.4981e-08
1210.0 1.6009e-08
1230.0 1.7071e-08
1250.0 1.8112e-08
1270.0 1.9123e-08
1290.0 2.0191e-08
1310.0 2.1258e-08
1330.0 2.2282e-08
1350.0 2.3317e-08
1370.0 2.4385e-08
1390.0 2.5427e-08
1410.0 2.6438e-08
1430.0 2.7495e-08
1450.0 2.8551e-08
1470.0 2.9572e-08
1490.0 3.0605e-08
1510.0 3.1695e-08
1530.0 3.2728e-08
1550.0 3.3747e-08
1570.0 3.4802e-08
1590.0 3.5857e-08
1610.0 3.6865e-08
1630.0 3.7905e-08
1650.0 3.8972e-08
1670.0 4.0004e-08
1690.0 4.1023e-08
1710.0 4.2082e-08
1730.0 4.3146e-08
1750.0 4.4147e-08
1770.0 4.5178e-08
1790.0 4.6229e-08
1810.0 4.7247e-08
1830.0 4.8247e-08
1850.0 4.9308e-08
1870.0 5.0341e-08
1890.0 5.1339e-08
1910.0 5.2357e-08
1930.0 5.3398e-08
1950.0 5.4391e-08
1970.0 5.537e-08
1990.0 5.6386e-08
2010.0 5.7383e-08
2030.0 5.8341e-08
2050.0 5.9326e-08
2070.0 6.0334e-08
2090.0 6.1279e-08
2110.0 6.2216e-08
2130.0 6.3179e-08
2150.0 6.4117e-08
2170.0 6.5006e-08
2190.0 6.5924e-08
2210.0 6.6842e-08
2230.0 6.7712e-08
2250.0 6.8568e-08
2270.0 6.946e-08
2290.0 7.0311e-08
2310.0 7.1114e-08
2330.0 7.1944e-08
2350.0 7.279e-08
2370.0 7.3624e-08
2390.0 7.4535e-08
2410.0 7.5645e-08
2430.0 7.695e-08
2450.0 7.855e-08
2470.0 8.0662e-08
2490.0 8.3381e-08
2510.0 8.6501e-08
2530.0 9.0301e-08
2550.0 9.5108e-08
2570.0 1.0112e-07
2590.0 1.0894e-07
2610.0 1.2065e-07
2630.0 1.3728e-07
2650.0 1.5886e-07
2670.0 1.8655e-07
2690.0 2.2031e-07
2710.0 2.5599e-07
2730.0 2.9085e-07
2750.0 3.2481e-07
2770.0 3.5387e-07
2790.0 3.7641e-07
2810.0 3.9378e-07
2830.0 4.0682e-07
2850.0 4.1509e-07
2870.0 4.2063e-07
2890.0 4.2462e-07
2910.0 4.2743e-07
2930.0 4.2942e-07
2950.0 4.3126e-07
2970.0 4.3304e-07
2990.0 4.3465e-07
3010.0 1.3081e-05
3030.0 1.3127e-05
3050.0 1.3172e-05
3070.0 1.3205e-05
3090.0 1.3228e-05
3110.0 1.3227e-05
3130.0 1.3184e-05
3150.0 1.3086e-05
3170.0 1.2907e-05
3190.0 1.265e-05
3210.0 1.2337e-05
3230.0 1.1983e-05
3250.0 1.1626e-05
3270.0 1.1362e-05
3290.0 1.1188e-05
3310.0 1.1178e-05
3330.0 1.1303e-05
3350.0 1.1551e-05
3370.0 1.1921e-05
3390.0 1.2396e-05
3410.0 1.2918e-05
3430.0 1.3508e-05
3450.0 1.4189e-05
3470.0 1.4937e-05
3490.0 1.5733e-05
3510.0 1.6636e-05
3530.0 1.761e-05
3550.0 1.8618e-05
3570.0 1.9693e-05
3590.0 2.0871e-05
3610.0 2.2124e-05
3630.0 2.3366e-05
3650.0 2.4665e-05
3670.0 2.584e-05
3690.0 2.6715e-05
3710.0 2.7187e-05
3730.0 2.7082e-05
3750.0 2.6458e-05
3770.0 2.6692e-05
3790.0 2.6467e-05
3810.0 2.3746e-05
3830.0 2.409e-05
3850.0 3.0128e-05
3870.0 3.1291e-05
3890.0 2.8104e-05
3910.0 2.7221e-05
3930.0 2.9681e-05
3950.0 3.2207e-05
3970.0 3.18e-05
3990.0 2.426e-05
4010.0 6.393e-05
4030.0 7.3354e-05
4050.0 8.3666e-05
4070.0 7.8186e-05
4090.0 7.1656e-05
4110.0 6.1919e-05
4130.0 6.282e-05
4150.0 7.4128e-05
4170.0 6.6365e-05
4190.0 6.6023e-05
4210.0 6.8702e-05
4230.0 7.7201e-05
4250.0 9.2297e-05
4270.0 9.6373e-05
4290.0 8.6769e-05
4310.0 8.5927e-05
4330.0 8.849e-05
4350.0 0.00010453
4370.0 0.0001226
4390.0 0.00010714
4410.0 7.0725e-05
4430.0 5.6501e-05
4450.0 5.2468e-05
4470.0 3.6875e-05
4490.0 4.6507e-05
4510.0 8.3484e-05
4530.0 9.9012e-05
4550.0 9.5794e-05
4570.0 9.748e-05
4590.0 0.00010788
4610.0 0.00017261
4630.0 0.00023368
4650.0 0.000238
4670.0 0.00021502
4690.0 0.00021035
4710.0 0.00022082
4730.0 0.00019689
4750.0 0.00013938
4770.0 9.8764e-05
4790.0 9.8628e-05
4810.0 9.8519e-05
4830.0 9.3378e-05
4850.0 0.00010173
4870.0 0.00013455
4890.0 0.00015725
4910.0 0.00013112
4930.0 0.00012121
4950.0 0.00013615
4970.0 0.00017715
4990.0 0.00023986
5010.0 0.0002774
5030.0 0.00023437
5050.0 0.00015239
5070.0 0.00010368
5090.0 8.0905e-05
5110.0 7.9754e-05
5130.0 9.4065e-05
5150.0 9.7493e-05
5170.0 9.4151e-05
5190.0 8.6017e-05
5210.0 9.2685e-05
5230.0 0.00010456
5250.0 0.00011679
5270.0 0.00011761
5290.0 0.00012853
5310.0 0.00015946
5330.0 0.00017483
5350.0 0.00017312
5370.0 0.00018711
5390.0 0.00022349
5410.0 0.00020842
5430.0 0.00017408
5450.0 0.00016639
5470.0 0.00018354
5490.0 0.00022614
5510.0 0.00027875
5530.0 0.00032157
5550.0 0.00030182
5570.0 0.000273
5590.0 0.00023164
5610.0 0.00022252
5630.0 0.00023115
5650.0 0.00021603
5670.0 0.00020163
5690.0 0.00017207
5710.0 0.00017199
5730.0 0.00016227
5750.0 0.00010252
5770.0 7.6841e-05
5790.0 9.0213e-05
5810.0 9.8629e-05
5830.0 0.00013422
5850.0 0.00016719
5870.0 0.00018333
5890.0 0.00018147
5910.0 0.0001776
5930.0 0.00016953
5950.0 0.00017355
5970.0 0.0002061
5990.0 0.00018222
6010.0 0.00014733
6030.0 0.00012279
6050.0 0.00010811
6070.0 0.00011643
6090.0 0.00012812
6110.0 0.0001373
6130.0 0.00013397
6150.0 0.00011092
6170.0 9.2001e-05
6190.0 0.00010634
6210.0 0.00015221
6230.0 0.00021183
6250.0 0.00022962
6270.0 0.0001888
6290.0 0.00016023
6310.0 0.00012377
6330.0 9.2716e-05
6350.0 8.6338e-05
6370.0 9.071e-05
6390.0 0.00010628
6410.0 0.00013434
6430.0 0.00015917
6450.0 0.00018826
6470.0 0.00020684
6490.0 0.00024847
6510.0 0.00027815
6530.0 0.0002789
6550.0 0.00025433
6570.0 0.00020893
6590.0 0.00019273
6610.0 0.00016292
6630.0 0.00015812
6650.0 0.00015197
6670.0 0.00013934
6690.0 0.00011632
6710.0 0.00010955
6730.0 6.2744e-05
6750.0 7.0977e-05
6770.0 9.3032e-05
6790.0 0.00011552
6810.0 9.2053e-05
6830.0 9.4359e-05
6850.0 8.3111e-05
6870.0 7.6608e-05
6890.0 6.9181e-05
6910.0 7.887e-05
6930.0 7.4121e-05
6950.0 8.2237e-05
6970.0 8.6218e-05
6990.0 9.6782e-05
7010.0 9.5105e-05
7030.0 0.00010335
7050.0 9.3785e-05
7070.0 8.3423e-05
7090.0 8.6722e-05
7110.0 9.1015e-05
7130.0 0.00010158
7150.0 0.00011155
7170.0 0.00012429
7190.0 0.00013499
7210.0 0.00012624
7230.0 0.00012886
7250.0 0.00013798
7270.0 0.00014872
7290.0 0.00018041
7310.0 0.00019395
7330.0 0.00018506
7350.0 0.00016669
7370.0 0.00013429
7390.0 0.00013375
7410.0 0.00015217
7430.0 0.00017143
7450.0 0.00018573
7470.0 0.00017628
7490.0 0.00014933
7510.0 0.00020205
7530.0 0.00019198
7550.0 0.00017772
7570.0 0.00012934
7590.0 7.3088e-05
7610.0 5.829e-05
7630.0 7.4151e-05
7650.0 9.2803e-05
7670.0 0.00013015
7690.0 0.0001439
7710.0 0.00013976
7730.0 0.00014323
7750.0 0.00017376
7770.0 0.00017771
7790.0 0.00016269
7810.0 0.00013954
7830.0 0.00014764
7850.0 0.00015271
7870.0 0.00014485
7890.0 0.00011703
7910.0 8.6664e-05
7930.0 8.6307e-05
7950.0 7.8374e-05
7970.0 6.9301e-05
7990.0 6.5987e-05
8010.0 1.7837e-05
8030.0 1.6174e-05
8050.0 1.75e-05
8070.0 2.0104e-05
8090.0 2.5029e-05
8110.0 2.3639e-05
8130.0 1.3561e-05
8150.0 1.4389e-05
8170.0 7.5741e-06
8190.0 4.1631e-06
8210.0 1.3018e-05
8230.0 1.5926e-05
8250.0 5.7845e-06
8270.0 4.3942e-06
8290.0 9.6041e-06
8310.0 8.7243e-06
8330.0 5.3951e-06
8350.0 4.2869e-06
8370.0 7.9313e-07
8390.0 4.6149e-06
8410.0 5.2422e-06
8430.0 6.4836e-06
8450.0 7.3608e-06
8470.0 1.2622e-05
8490.0 1.0332e-05
8510.0 7.9024e-06
8530.0 3.9604e-06
8550.0 1.4454e-05
8570.0 2.226e-05
8590.0 1.5425e-05
8610.0 2.3351e-05
8630.0 2.56e-05
8650.0 1.4065e-05
8670.0 2.0723e-05
8690.0 3.1822e-05
8710.0 2.7121e-05
8730.0 2.8995e-05
8750.0 2.2659e-05
8770.0 2.0083e-05
8790.0 2.221e-05
8810.0 2.4129e-05
8830.0 1.3262e-05
8850.0 5.3525e-06
8870.0 3.6438e-06
8890.0 9.8219e-06
8910.0 1.5842e-05
8930.0 2.1218e-05
8950.0 2.3329e-05
8970.0 2.2373e-05
8990.0 1.6324e-05
9010.0 3.0519e-05
9030.0 2.4705e-05
9050.0 2.5253e-05
9070.0 2.5883e-05
9090.0 2.6407e-05
9110.0 2.705e-05
9130.0 2.7519e-05
9150.0 2.7857e-05
9170.0 2.8216e-05
9190.0 2.86e-05
9210.0 2.9004e-05
9230.0 2.9431e-05
9250.0 2.986e-05
9270.0 3.0305e-05
9290.0 3.076e-05
9310.0 3.1215e-05
9330.0 3.1675e-05
9350.0 3.2152e-05
9370.0 3.263e-05
9390.0 3.311e-05
9410.0 3.3602e-05
9430.0 3.4109e-05
9450.0 3.4608e-05
9470.0 3.5117e-05
9490.0 3.5639e-05
9510.0 3.6165e-05
9530.0 3.6691e-05
9550.0 3.7235e-05
9570.0 3.7788e-05
9590.0 3.8339e-05
9610.0 3.8898e-05
9630.0 3.9473e-05
9650.0 4.0051e-05
9670.0 4.0626e-05
9690.0 4.1219e-05
9710.0 4.182e-05
9730.0 4.242e-05
9750.0 4.3028e-05
9770.0 4.3656e-05
9790.0 4.428e-05
9810.0 4.4907e-05
9830.0 4.5547e-05
9850.0 4.6196e-05
9870.0 4.684e-05
9890.0 4.7494e-05
9910.0 4.8163e-05
9930.0 4.883e-05
9950.0 4.9498e-05
9970.0 5.0182e-05
9990.0 5.0873e-05
10010.0 4.4623e-05
10030.0 4.5222e-05
10050.0 4.5831e-05
10070.0 4.644e-05
10090.0 4.7043e-05
10110.0 4.7662e-05
10130.0 4.8281e-05
10150.0 4.8895e-05
10170.0 4.9516e-05
10190.0 5.0147e-05
10210.0 5.0769e-05
10230.0 5.1389e-05
10250.0 5.2019e-05
10270.0 5.2649e-05
10290.0 5.3269e-05
10310.0 5.3898e-05
10330.0 5.4535e-05
10350.0 5.5159e-05
10370.0 5.5781e-05
10390.0 5.641e-05
10410.0 5.7036e-05
10430.0 5.7649e-05
10450.0 5.8268e-05
10470.0 5.8889e-05
10490.0 5.9498e-05
10510.0 6.0102e-05
10530.0 6.0718e-05
10550.0 6.1322e-05
10570.0 6.1912e-05
10590.0 6.2505e-05
10610.0 6.3098e-05
10630.0 6.3673e-05
10650.0 6.4245e-05
10670.0 6.4822e-05
10690.0 6.5386e-05
10710.0 6.5936e-05
10730.0 6.6488e-05
10750.0 6.7041e-05
10770.0 6.7568e-05
10790.0 6.809e-05
10810.0 6.8612e-05
10830.0 6.9117e-05
10850.0 6.9596e-05
10870.0 7.0066e-05
10890.0 7.0489e-05
10910.0 7.0833e-05
10930.0 7.1069e-05
10950.0 7.1134e-05
10970.0 7.0972e-05
10990.0 7.0559e-05
11010.0 6.6502e-05
11030.0 6.5465e-05
11050.0 6.4181e-05
11070.0 6.2632e-05
11090.0 6.0765e-05
11110.0 5.883e-05
11130.0 5.6812e-05
11150.0 5.4645e-05
11170.0 5.2416e-05
11190.0 5.026e-05
11210.0 4.8041e-05
11230.0 4.5773e-05
11250.0 4.3612e-05
11270.0 4.1541e-05
11290.0 3.9471e-05
11310.0 3.7513e-05
11330.0 3.5786e-05
11350.0 3.4154e-05
11370.0 3.2642e-05
11390.0 3.1327e-05
11410.0 3.0169e-05
11430.0 2.9086e-05
11450.0 2.8142e-05
11470.0 2.7316e-05
11490.0 2.6541e-05
11510.0 2.5789e-05
11530.0 2.5087e-05
11550.0 2.4389e-05
11570.0 2.3649e-05
11590.0 2.2887e-05
11610.0 2.2115e-05
11630.0 2.1283e-05
11650.0 2.0398e-05
11670.0 1.953e-05
11690.0 1.8653e-05
11710.0 1.7752e-05
11730.0 1.688e-05
11750.0 1.6071e-05
11770.0 1.5278e-05
11790.0 1.4533e-05
11810.0 1.3873e-05
11830.0 1.3279e-05
11850.0 1.2728e-05
11870.0 1.2261e-05
11890.0 1.1867e-05
11910.0 1.1516e-05
11930.0 1.121e-05
11950.0 1.095e-05
11970.0 1.0714e-05
11990.0 1.0491e-05
12010.0 1.0283e-05
12030.0 1.0084e-05
12050.0 9.8796e-06
12070.0 9.6697e-06
12090.0 9.4677e-06
12110.0 9.2636e-06
12130.0 9.0591e-06
12150.0 8.8683e-06
12170.0 8.6977e-06
12190.0 8.5443e-06
12210.0 8.4261e-06
12230.0 8.3503e-06
12250.0 8.3197e-06
12270.0 8.3442e-06
12290.0 8.4242e-06
12310.0 8.5556e-06
12330.0 8.753e-06
12350.0 9.0083e-06
12370.0 9.3046e-06
12390.0 9.6512e-06
12410.0 1.0062e-05
12430.0 1.0482e-05
12450.0 1.0917e-05
12470.0 1.1381e-05
12490.0 1.1848e-05
12510.0 1.2284e-05
12530.0 1.2718e-05
12550.0 1.3136e-05
12570.0 1.3502e-05
12590.0 1.3821e-05
12610.0 1.4104e-05
12630.0 1.4325e-05
12650.0 1.4472e-05
12670.0 1.4562e-05
12690.0 1.4588e-05
12710.0 1.4545e-05
12730.0 1.4443e-05
12750.0 1.4275e-05
12770.0 1.4051e-05
12790.0 1.3784e-05
12810.0 1.3469e-05
12830.0 1.3108e-05
12850.0 1.2732e-05
12870.0 1.2336e-05
12890.0 1.1911e-05
12910.0 1.148e-05
12930.0 1.1057e-05
12950.0 1.0617e-05
12970.0 1.0171e-05
12990.0 9.7501e-06
13010.0 9.3353e-06
13030.0 8.9171e-06
13050.0 8.5158e-06
13070.0 8.1398e-06
13090.0 7.7628e-06
13110.0 7.3979e-06
13130.0 7.0607e-06
13150.0 6.7405e-06
13170.0 6.4264e-06
13190.0 6.1451e-06
13210.0 5.8957e-06
13230.0 5.6659e-06
13250.0 5.4654e-06
13270.0 5.3039e-06
13290.0 5.1743e-06
13310.0 5.0794e-06
13330.0 5.0271e-06
13350.0 5.0148e-06
13370.0 5.0442e-06
13390.0 5.1182e-06
13410.0 5.2255e-06
13430.0 5.3702e-06
13450.0 5.5535e-06
13470.0 5.7603e-06
13490.0 5.9821e-06
13510.0 6.2354e-06
13530.0 6.4947e-06
13550.0 6.745e-06
13570.0 6.9941e-06
13590.0 7.2391e-06
13610.0 7.4589e-06
13630.0 7.6524e-06
13650.0 7.8311e-06
13670.0 7.9812e-06
13690.0 8.0989e-06
13710.0 8.1917e-06
13730.0 8.2603e-06
13750.0 8.2972e-06
13770.0 8.3098e-06
13790.0 8.2995e-06
13810.0 8.2664e-06
13830.0 8.2145e-06
13850.0 8.1425e-06
13870.0 8.0504e-06
13890.0 7.9443e-06
13910.0 7.8241e-06
13930.0 7.6848e-06
13950.0 7.5326e-06
13970.0 7.3768e-06
13990.0 7.2074e-06
14010.0 7.0275e-06
14030.0 6.8481e-06
14050.0 6.6675e-06
14070.0 6.4771e-06
14090.0 6.2947e-06
14110.0 6.1232e-06
14130.0 5.9569e-06
14150.0 5.8001e-06
14170.0 5.6659e-06
14190.0 5.5493e-06
14210.0 5.4497e-06
14230.0 5.375e-06
14250.0 5.3256e-06
14270.0 5.2998e-06
14290.0 5.3012e-06
14310.0 5.3276e-06
14330.0 5.3778e-06
14350.0 5.4535e-06
14370.0 5.549e-06
14390.0 5.6586e-06
14410.0 5.7888e-06
14430.0 5.9328e-06
14450.0 6.081e-06
14470.0 6.2359e-06
14490.0 6.4017e-06
14510.0 6.5614e-06
14530.0 6.7141e-06
14550.0 6.8677e-06
14570.0 7.016e-06
14590.0 7.1517e-06
14610.0 7.2835e-06
14630.0 7.4141e-06
14650.0 7.5359e-06
14670.0 7.6535e-06
14690.0 7.7758e-06
14710.0 7.9039e-06
14730.0 8.0317e-06
14750.0 8.1729e-06
14770.0 8.3326e-06
14790.0 8.5057e-06
14810.0 8.6934e-06
14830.0 8.9155e-06
14850.0 9.1574e-06
14870.0 9.4104e-06
14890.0 9.6836e-06
14910.0 9.9743e-06
14930.0 1.0255e-05
14950.0 1.0518e-05
14970.0 1.0768e-05
14990.0 1.0979e-05
15010.0 1.1142e-05
15030.0 1.1264e-05
15050.0 1.1348e-05
15070.0 1.1393e-05
15090.0 1.1413e-05
15110.0 1.1417e-05
15130.0 1.1409e-05
15150.0 1.1397e-05
15170.0 1.1381e-05
15190.0 1.1364e-05
15210.0 1.1347e-05
15230.0 1.133e-05
15250.0 1.1313e-05
15270.0 1.1295e-05
15290.0 1.1279e-05
15310.0 1.1263e-05
15330.0 1.1246e-05
15350.0 1.123e-05
15370.0 1.1214e-05
15390.0 1.1197e-05
15410.0 1.1181e-05
15430.0 1.1166e-05
15450.0 1.1151e-05
15470.0 1.1134e-05
15490.0 1.112e-05
15510.0 1.1105e-05
15530.0 1.1089e-05
15550.0 1.1074e-05
15570.0 1.106e-05
15590.0 1.1045e-05
15610.0 1.1029e-05
15630.0 1.1015e-05
15650.0 1.1e-05
15670.0 1.0985e-05
15690.0 1.0971e-05
15710.0 1.0957e-05
15730.0 1.0942e-05
15750.0 1.0927e-05
15770.0 1.0913e-05
15790.0 1.0899e-05
15810.0 1.0884e-05
15830.0 1.087e-05
15850.0 1.0856e-05
15870.0 1.0841e-05
15890.0 1.0827e-05
15910.0 1.0813e-05
15930.0 1.0799e-05
15950.0 1.0783e-05
15970.0 1.0769e-05
15990.0 1.0755e-05
16010.0 1.074e-05
16030.0 1.0725e-05
16050.0 1.0711e-05
16070.0 1.0697e-05
16090.0 1.0682e-05
16110.0 1.0667e-05
16130.0 1.0653e-05
16150.0 1.0637e-05
16170.0 1.0622e-05
16190.0 1.0607e-05
16210.0 1.0592e-05
16230.0 1.0576e-05
16250.0 1.0562e-05
16270.0 1.0547e-05
16290.0 1.0531e-05
16310.0 1.0515e-05
16330.0 1.05e-05
16350.0 1.0484e-05
16370.0 1.0467e-05
16390.0 1.0452e-05
16410.0 1.0436e-05
16430.0 1.0419e-05
16450.0 1.0403e-05
16470.0 1.0387e-05
16490.0 1.037e-05
16510.0 1.0353e-05
16530.0 1.0336e-05
16550.0 1.0319e-05
16570.0 1.0302e-05
16590.0 1.0284e-05
16610.0 1.0267e-05
16630.0 1.0249e-05
16650.0 1.0231e-05
16670.0 1.0214e-05
16690.0 1.0196e-05
16710.0 1.0177e-05
16730.0 1.0158e-05
16750.0 1.014e-05
16770.0 1.0122e-05
16790.0 1.0102e-05
16810.0 1.0084e-05
16830.0 1.0065e-05
16850.0 1.0045e-05
16870.0 1.0025e-05
16890.0 1.0006e-05
16910.0 9.9858e-06
16930.0 9.9649e-06
16950.0 9.9452e-06
16970.0 9.925e-06
16990.0 9.9039e-06
17010.0 9.8832e-06
17030.0 9.8631e-06
17050.0 9.8415e-06
17070.0 9.8197e-06
17090.0 9.7988e-06
17110.0 9.7773e-06
17130.0 9.7544e-06
17150.0 9.7326e-06
17170.0 9.7111e-06
17190.0 9.6884e-06
17210.0 9.6655e-06
17230.0 9.6436e-06
17250.0 9.6207e-06
17270.0 9.5968e-06
17290.0 9.5737e-06
17310.0 9.5508e-06
17330.0 9.5267e-06
17350.0 9.5024e-06
17370.0 9.4793e-06
17390.0 9.4553e-06
17410.0 9.4305e-06
17430.0 9.4063e-06
17450.0 9.3825e-06
17470.0 9.3567e-06
17490.0 9.3314e-06
17510.0 9.3069e-06
17530.0 9.2816e-06
17550.0 9.2555e-06
17570.0 9.2303e-06
17590.0 9.2052e-06
17610.0 9.1787e-06
17630.0 9.1525e-06
17650.0 9.1269e-06
17670.0 9.1005e-06
17690.0 9.0727e-06
17710.0 9.0466e-06
17730.0 9.0203e-06
17750.0 8.9928e-06
17770.0 8.9656e-06
17790.0 8.9393e-06
17810.0 8.9115e-06
17830.0 8.8834e-06
17850.0 8.8561e-06
17870.0 8.8287e-06
17890.0 8.7999e-06
17910.0 8.7716e-06
17930.0 8.7443e-06
17950.0 8.7158e-06
17970.0 8.687e-06
17990.0 8.659e-06
18010.0 8.6308e-06
18030.0 8.6009e-06
18050.0 8.572e-06
18070.0 8.5435e-06
18090.0 8.5141e-06
18110.0 8.4843e-06
18130.0 8.4556e-06
18150.0 8.4265e-06
18170.0 8.3964e-06
18190.0 8.3668e-06
18210.0 8.3378e-06
18230.0 8.3074e-06
18250.0 8.2767e-06
18270.0 8.2474e-06
18290.0 8.2175e-06
18310.0 8.1867e-06
18330.0 8.1566e-06
18350.0 8.1271e-06
18370.0 8.0961e-06
18390.0 8.0653e-06
18410.0 8.0352e-06
18430.0 8.0047e-06
18450.0 7.973e-06
18470.0 7.9424e-06
18490.0 7.9123e-06
18510.0 7.881e-06
18530.0 7.8498e-06
18550.0 7.8196e-06
18570.0 7.7885e-06
18590.0 7.7566e-06
18610.0 7.7256e-06
18630.0 7.6949e-06
18650.0 7.6631e-06
18670.0 7.6313e-06
18690.0 7.6009e-06
18710.0 7.5695e-06
18730.0 7.5376e-06
18750.0 7.5065e-06
18770.0 7.4757e-06
18790.0 7.4431e-06
18810.0 7.4113e-06
18830.0 7.3804e-06
18850.0 7.3487e-06
18870.0 7.3165e-06
18890.0 7.2853e-06
18910.0 7.2543e-06
18930.0 7.222e-06
18950.0 7.1902e-06
18970.0 7.1591e-06
18990.0 7.1273e-06
19010.0 7.0944e-06
19030.0 7.0633e-06
19050.0 7.032e-06
19070.0 6.9998e-06
19090.0 6.968e-06
19110.0 6.9372e-06
19130.0 6.905e-06
19150.0 6.8727e-06
19170.0 6.8414e-06
19190.0 6.81e-06
19210.0 6.7775e-06
19230.0 6.7456e-06
19250.0 6.7147e-06
19270.0 6.6829e-06
19290.0 6.6508e-06
19310.0 6.6197e-06
19330.0 6.5885e-06
19350.0 6.5558e-06
19370.0 6.5242e-06
19390.0 6.4932e-06
19410.0 6.4614e-06
19430.0 6.4293e-06
19450.0 6.3985e-06
19470.0 6.3673e-06
19490.0 6.3352e-06
19510.0 6.3039e-06
19530.0 6.2732e-06
19550.0 6.2412e-06
19570.0 6.2091e-06
19590.0 6.1785e-06
19610.0 6.1474e-06
19630.0 6.1156e-06
19650.0 6.0846e-06
19670.0 6.0542e-06
19690.0 6.0225e-06
19710.0 5.9911e-06
19730.0 5.9606e-06
19750.0 5.9296e-06
19770.0 5.8976e-06
19790.0 5.867e-06
19810.0 5.8367e-06
19830.0 5.8053e-06
19850.0 5.7739e-06
19870.0 5.7431e-06
19890.0 5.7102e-06
19910.0 5.6746e-06
19930.0 5.6369e-06
19950.0 5.5944e-06
19970.0 5.5432e-06
19990.0 5.4824e-06
20010.0 4.9352e-06
20030.0 4.8605e-06
20050.0 4.7739e-06
20070.0 4.6807e-06
20090.0 4.5808e-06
20110.0 4.4686e-06
20130.0 4.3553e-06
20150.0 4.2434e-06
20170.0 4.1276e-06
20190.0 4.0106e-06
20210.0 3.9002e-06
20230.0 3.7926e-06
20250.0 3.685e-06
20270.0 3.5851e-06
20290.0 3.4939e-06
20310.0 3.4071e-06
20330.0 3.3258e-06
20350.0 3.258e-06
20370.0 3.1976e-06
20390.0 3.1442e-06
20410.0 3.1007e-06
20430.0 3.0666e-06
20450.0 3.0391e-06
20470.0 3.0199e-06
20490.0 3.0086e-06
20510.0 3.0039e-06
20530.0 3.0055e-06
20550.0 3.0129e-06
20570.0 3.0248e-06
20590.0 3.0415e-06
20610.0 3.0624e-06
20630.0 3.0858e-06
20650.0 3.1122e-06
20670.0 3.1428e-06
20690.0 3.1741e-06
20710.0 3.2067e-06
20730.0 3.2419e-06
20750.0 3.2787e-06
20770.0 3.3148e-06
20790.0 3.3527e-06
20810.0 3.3928e-06
20830.0 3.4324e-06
20850.0 3.4721e-06
20870.0 3.5144e-06
20890.0 3.5574e-06
20910.0 3.5986e-06
20930.0 3.6413e-06
20950.0 3.6853e-06
20970.0 3.7281e-06
20990.0 3.7702e-06
21010.0 3.8144e-06
21030.0 3.8574e-06
21050.0 3.8984e-06
21070.0 3.9392e-06
21090.0 3.98e-06
21110.0 4.0172e-06
21130.0 4.0519e-06
21150.0 4.0856e-06
21170.0 4.116e-06
21190.0 4.1419e-06
21210.0 4.1653e-06
21230.0 4.1846e-06
21250.0 4.1981e-06
21270.0 4.2064e-06
21290.0 4.209e-06
21310.0 4.2051e-06
21330.0 4.1946e-06
21350.0 4.1769e-06
21370.0 4.1513e-06
21390.0 4.1188e-06
21410.0 4.0792e-06
21430.0 4.0291e-06
21450.0 3.973e-06
21470.0 3.9119e-06
21490.0 3.8427e-06
21510.0 3.767e-06
21530.0 3.6899e-06
21550.0 3.6092e-06
21570.0 3.5231e-06
21590.0 3.4384e-06
21610.0 3.3565e-06
21630.0 3.2745e-06
21650.0 3.1942e-06
21670.0 3.1245e-06
21690.0 3.0601e-06
21710.0 3.002e-06
21730.0 2.9541e-06
21750.0 2.9168e-06
21770.0 2.888e-06
21790.0 2.8707e-06
21810.0 2.8648e-06
21830.0 2.8694e-06
21850.0 2.8852e-06
21870.0 2.9108e-06
21890.0 2.9444e-06
21910.0 2.9879e-06
21930.0 3.0391e-06
21950.0 3.0949e-06
21970.0 3.1568e-06
21990.0 3.2265e-06
22010.0 3.2963e-06
22030.0 3.3673e-06
22050.0 3.442e-06
22070.0 3.5172e-06
22090.0 3.5885e-06
22110.0 3.6604e-06
22130.0 3.7324e-06
22150.0 3.7996e-06
22170.0 3.8631e-06
22190.0 3.926e-06
22210.0 3.9847e-06
22230.0 4.0362e-06
22250.0 4.0847e-06
22270.0 4.1294e-06
22290.0 4.1675e-06
22310.0 4.2002e-06
22330.0 4.2289e-06
22350.0 4.2509e-06
22370.0 4.2663e-06
22390.0 4.2757e-06
22410.0 4.2783e-06
22430.0 4.2737e-06
22450.0 4.2623e-06
22470.0 4.2429e-06
22490.0 4.2159e-06
22510.0 4.1825e-06
22530.0 4.1399e-06
22550.0 4.0882e-06
22570.0 4.031e-06
22590.0 3.9665e-06
22610.0 3.8924e-06
