#lamb flux
1010.0 5.2125e-06
1030.0 5.6981e-06
1050.0 6.2592e-06
1070.0 6.8932e-06
1090.0 7.6157e-06
1110.0 8.3614e-06
1130.0 9.1177e-06
1150.0 9.9157e-06
1170.0 1.0746e-05
1190.0 1.1543e-05
1210.0 1.2359e-05
1230.0 1.3211e-05
1250.0 1.4058e-05
1270.0 1.4894e-05
1290.0 1.5785e-05
1310.0 1.669e-05
1330.0 1.7575e-05
1350.0 1.8482e-05
1370.0 1.9431e-05
1390.0 2.0374e-05
1410.0 2.1308e-05
1430.0 2.2293e-05
1450.0 2.3294e-05
1470.0 2.428e-05
1490.0 2.5289e-05
1510.0 2.6359e-05
1530.0 2.7393e-05
1550.0 2.8426e-05
1570.0 2.9497e-05
1590.0 3.0574e-05
1610.0 3.1616e-05
1630.0 3.2684e-05
1650.0 3.3774e-05
1670.0 3.4829e-05
1690.0 3.5864e-05
1710.0 3.692e-05
1730.0 3.7964e-05
1750.0 3.8933e-05
1770.0 3.9902e-05
1790.0 4.086e-05
1810.0 4.1756e-05
1830.0 4.2598e-05
1850.0 4.3453e-05
1870.0 4.4239e-05
1890.0 4.4945e-05
1910.0 4.5617e-05
1930.0 4.6256e-05
1950.0 4.6795e-05
1970.0 4.7266e-05
1990.0 4.7708e-05
2010.0 4.8073e-05
2030.0 4.8345e-05
2050.0 4.8581e-05
2070.0 4.8776e-05
2090.0 4.8861e-05
2110.0 4.8887e-05
2130.0 4.8879e-05
2150.0 4.8801e-05
2170.0 4.864e-05
2190.0 4.8459e-05
2210.0 4.8237e-05
2230.0 4.7946e-05
2250.0 4.7616e-05
2270.0 4.7283e-05
2290.0 4.6899e-05
2310.0 4.6464e-05
2330.0 4.6029e-05
2350.0 4.5581e-05
2370.0 4.5093e-05
2390.0 4.4598e-05
2410.0 4.4116e-05
2430.0 4.3597e-05
2450.0 4.304e-05
2470.0 4.2458e-05
2490.0 4.1827e-05
2510.0 4.1131e-05
2530.0 4.0441e-05
2550.0 3.9865e-05
2570.0 3.9563e-05
2590.0 3.973e-05
2610.0 4.076e-05
2630.0 4.2845e-05
2650.0 4.589e-05
2670.0 4.9978e-05
2690.0 5.5007e-05
2710.0 6.0246e-05
2730.0 6.5316e-05
2750.0 7.035e-05
2770.0 7.4857e-05
2790.0 7.8689e-05
2810.0 8.2199e-05
2830.0 8.5684e-05
2850.0 8.8819e-05
2870.0 9.1924e-05
2890.0 9.524e-05
2910.0 9.863e-05
2930.0 0.00010191
2950.0 0.00010543
2970.0 0.0001091
2990.0 0.0001127
3010.0 0.00025769
3030.0 0.00026628
3050.0 0.00027505
3070.0 0.00028343
3090.0 0.00029221
3110.0 0.00030112
3130.0 0.00030957
3150.0 0.00031759
3170.0 0.00032554
3190.0 0.00033241
3210.0 0.00033765
3230.0 0.00034244
3250.0 0.00033686
3270.0 0.00034056
3290.0 0.00033736
3310.0 0.0003667
3330.0 0.00039362
3350.0 0.00042302
3370.0 0.0004569
3390.0 0.00049506
3410.0 0.00053476
3430.0 0.0005774
3450.0 0.00062452
3470.0 0.00067447
3490.0 0.00072666
3510.0 0.00078184
3530.0 0.00084077
3550.0 0.00091659
3570.0 0.0010041
3590.0 0.0010767
3610.0 0.0011582
3630.0 0.0011889
3650.0 0.0012131
3670.0 0.0012282
3690.0 0.0012626
3710.0 0.0013017
3730.0 0.0012802
3750.0 0.0012424
3770.0 0.0011904
3790.0 0.0011298
3810.0 0.0010531
3830.0 0.00093148
3850.0 0.00058195
3870.0 0.00080856
3890.0 0.0011024
3910.0 0.0013602
3930.0 0.0015685
3950.0 0.0016652
3970.0 0.0017361
3990.0 0.0020857
4010.0 0.0019719
4030.0 0.001727
4050.0 0.0015319
4070.0 0.0013791
4090.0 0.0016157
4110.0 0.0017227
4130.0 0.0017372
4150.0 0.0017152
4170.0 0.0016134
4190.0 0.0015244
4210.0 0.0017996
4230.0 0.0020388
4250.0 0.0020764
4270.0 0.0020029
4290.0 0.0020405
4310.0 0.002166
4330.0 0.0024584
4350.0 0.0026392
4370.0 0.0026021
4390.0 0.0021942
4410.0 0.0018785
4430.0 0.0015927
4450.0 0.0013843
4470.0 0.00144
4490.0 0.0017962
4510.0 0.0019467
4530.0 0.002139
4550.0 0.0023018
4570.0 0.0028489
4590.0 0.0041416
4610.0 0.0054101
4630.0 0.0054246
4650.0 0.0050804
4670.0 0.0054683
4690.0 0.0061671
4710.0 0.0052132
4730.0 0.0037826
4750.0 0.0029407
4770.0 0.0027489
4790.0 0.0028046
4810.0 0.002607
4830.0 0.0028344
4850.0 0.0034584
4870.0 0.0042385
4890.0 0.0038654
4910.0 0.0033024
4930.0 0.0035586
4950.0 0.0046824
4970.0 0.0061749
4990.0 0.0063907
5010.0 0.005587
5030.0 0.0042922
5050.0 0.0030678
5070.0 0.0025353
5090.0 0.0023653
5110.0 0.002368
5130.0 0.002474
5150.0 0.0024331
5170.0 0.0024915
5190.0 0.0023818
5210.0 0.002424
5230.0 0.0026115
5250.0 0.0028179
5270.0 0.003488
5290.0 0.0040642
5310.0 0.0040335
5330.0 0.0041518
5350.0 0.0047302
5370.0 0.0051468
5390.0 0.0047429
5410.0 0.0040356
5430.0 0.0037963
5450.0 0.0043806
5470.0 0.0056939
5490.0 0.007084
5510.0 0.0077218
5530.0 0.0077898
5550.0 0.0073698
5570.0 0.0069221
5590.0 0.0067096
5610.0 0.0067997
5630.0 0.0069015
5650.0 0.006882
5670.0 0.0068605
5690.0 0.0066806
5710.0 0.0058489
5730.0 0.0049146
5750.0 0.0041739
5770.0 0.0042622
5790.0 0.0046636
5810.0 0.0050232
5830.0 0.0051923
5850.0 0.0051365
5870.0 0.0047274
5890.0 0.0041248
5910.0 0.0041043
5930.0 0.004529
5950.0 0.004594
5970.0 0.0041642
5990.0 0.0035839
6010.0 0.0029219
6030.0 0.002452
6050.0 0.0024702
6070.0 0.0028504
6090.0 0.0030046
6110.0 0.0026717
6130.0 0.0024813
6150.0 0.0026992
6170.0 0.0032573
6190.0 0.0038786
6210.0 0.0041268
6230.0 0.0039495
6250.0 0.0036266
6270.0 0.0031261
6290.0 0.0025921
6310.0 0.0021673
6330.0 0.0019989
6350.0 0.0021126
6370.0 0.0022279
6390.0 0.0023599
6410.0 0.0027138
6430.0 0.003419
6450.0 0.0043093
6470.0 0.0048074
6490.0 0.0047122
6510.0 0.0046386
6530.0 0.0048079
6550.0 0.0048615
6570.0 0.0049433
6590.0 0.0049624
6610.0 0.0048741
6630.0 0.0049286
6650.0 0.0049046
6670.0 0.0046573
6690.0 0.0041297
6710.0 0.0035088
6730.0 0.0034485
6750.0 0.0037403
6770.0 0.0040284
6790.0 0.0041293
6810.0 0.004093
6830.0 0.0040264
6850.0 0.0039438
6870.0 0.003704
6890.0 0.0035285
6910.0 0.0033494
6930.0 0.0032633
6950.0 0.0035194
6970.0 0.0037805
6990.0 0.0039631
7010.0 0.0039842
7030.0 0.0037473
7050.0 0.0032542
7070.0 0.002641
7090.0 0.002251
7110.0 0.0021997
7130.0 0.0023559
7150.0 0.0023443
7170.0 0.0021259
7190.0 0.002106
7210.0 0.0023327
7230.0 0.0027056
7250.0 0.0030762
7270.0 0.003213
7290.0 0.0029751
7310.0 0.0026282
7330.0 0.0024121
7350.0 0.0023818
7370.0 0.0024536
7390.0 0.0025498
7410.0 0.0027226
7430.0 0.0031289
7450.0 0.0036459
7470.0 0.0041279
7490.0 0.0043204
7510.0 0.0041698
7530.0 0.0034915
7550.0 0.0028718
7570.0 0.002405
7590.0 0.0021334
7610.0 0.0022256
7630.0 0.0025819
7650.0 0.0029554
7670.0 0.0033151
7690.0 0.0035842
7710.0 0.0038075
7730.0 0.0040233
7750.0 0.004227
7770.0 0.0043291
7790.0 0.0043149
7810.0 0.0043825
7830.0 0.0045454
7850.0 0.0045047
7870.0 0.0043569
7890.0 0.0040758
7910.0 0.0038159
7930.0 0.0036667
7950.0 0.0036207
7970.0 0.0035752
7990.0 0.0035847
8010.0 0.0036588
8030.0 0.0036775
8050.0 0.0037554
8070.0 0.0037102
8090.0 0.0037046
8110.0 0.0035521
8130.0 0.0035283
8150.0 0.0034417
8170.0 0.0033445
8190.0 0.0032949
8210.0 0.0033163
8230.0 0.0031479
8250.0 0.0029761
8270.0 0.0026084
8290.0 0.0020969
8310.0 0.0015943
8330.0 0.0012139
8350.0 0.0010855
8370.0 0.0012493
8390.0 0.0014787
8410.0 0.0016355
8430.0 0.0017761
8450.0 0.0018673
8470.0 0.0019597
8490.0 0.0021765
8510.0 0.0024454
8530.0 0.0028448
8550.0 0.0033175
8570.0 0.0037476
8590.0 0.0040936
8610.0 0.0043646
8630.0 0.0045254
8650.0 0.0045455
8670.0 0.0045517
8690.0 0.0047103
8710.0 0.0048459
8730.0 0.0049759
8750.0 0.0049041
8770.0 0.0049305
8790.0 0.0048691
8810.0 0.0045406
8830.0 0.0043885
8850.0 0.0041272
8870.0 0.0039243
8890.0 0.0037771
8910.0 0.0038462
8930.0 0.0036327
8950.0 0.0034777
8970.0 0.0034163
8990.0 0.0033481
9010.0 0.0032614
9030.0 0.0031816
9050.0 0.0031613
9070.0 0.0031517
9090.0 0.0031427
9110.0 0.003134
9130.0 0.0031247
9150.0 0.0031153
9170.0 0.0031025
9190.0 0.0030872
9210.0 0.0030993
9230.0 0.0030835
9250.0 0.0030706
9270.0 0.0030587
9290.0 0.0030474
9310.0 0.0030364
9330.0 0.0030256
9350.0 0.0030151
9370.0 0.0030045
9390.0 0.0029937
9410.0 0.002983
9430.0 0.002972
9450.0 0.0029594
9470.0 0.0029472
9490.0 0.0029378
9510.0 0.0029275
9530.0 0.0029168
9550.0 0.0029061
9570.0 0.0028951
9590.0 0.002884
9610.0 0.0028728
9630.0 0.0028616
9650.0 0.0028504
9670.0 0.002839
9690.0 0.0028277
9710.0 0.0028164
9730.0 0.0028051
9750.0 0.0027937
9770.0 0.0027824
9790.0 0.002771
9810.0 0.0027596
9830.0 0.0027483
9850.0 0.0027369
9870.0 0.0027255
9890.0 0.002714
9910.0 0.0027026
9930.0 0.0026909
9950.0 0.0026602
9970.0 0.0026544
9990.0 0.0026476
10010.0 0.0026401
10030.0 0.0026311
10050.0 0.0026206
10070.0 0.0026095
10090.0 0.0025992
10110.0 0.0025876
10130.0 0.0025768
10150.0 0.0025656
10170.0 0.0025538
10190.0 0.0025414
10210.0 0.0025299
10230.0 0.0025186
10250.0 0.0025066
10270.0 0.0024947
10290.0 0.0024835
10310.0 0.0024716
10330.0 0.0024591
10350.0 0.0024474
10370.0 0.0024357
10390.0 0.0024233
10410.0 0.002411
10430.0 0.0023995
10450.0 0.0023873
10470.0 0.0023746
10490.0 0.0023625
10510.0 0.0023505
10530.0 0.0023373
10550.0 0.0023245
10570.0 0.0023123
10590.0 0.0022995
10610.0 0.0022863
10630.0 0.0022737
10650.0 0.002261
10670.0 0.0022473
10690.0 0.002234
10710.0 0.0022211
10730.0 0.0022074
10750.0 0.002193
10770.0 0.0021799
10790.0 0.0021663
10810.0 0.0021519
10830.0 0.0021378
10850.0 0.0021243
10870.0 0.0021092
10890.0 0.0020938
10910.0 0.0020786
10930.0 0.0020624
10950.0 0.0020441
10970.0 0.0020248
10990.0 0.0020046
11010.0 0.0018589
11030.0 0.001834
11050.0 0.0018103
11070.0 0.0017864
11090.0 0.0017611
11110.0 0.0017381
11130.0 0.001716
11150.0 0.0016936
11170.0 0.0016715
11190.0 0.0016512
11210.0 0.0016305
11230.0 0.0016092
11250.0 0.0015889
11270.0 0.0015693
11290.0 0.0015487
11310.0 0.0015283
11330.0 0.0015098
11350.0 0.0014909
11370.0 0.0014717
11390.0 0.0014537
11410.0 0.0014363
11430.0 0.0014177
11450.0 0.0013995
11470.0 0.0013819
11490.0 0.0013634
11510.0 0.0013436
11530.0 0.0013244
11550.0 0.0013046
11570.0 0.0012829
11590.0 0.0012606
11610.0 0.0012384
11630.0 0.0012143
11650.0 0.0011886
11670.0 0.0011637
11690.0 0.0011385
11710.0 0.0011119
11730.0 0.0010857
11750.0 0.0010609
11770.0 0.0010354
11790.0 0.0010101
11810.0 0.00098664
11830.0 0.00096412
11850.0 0.00094129
11870.0 0.0009204
11890.0 0.00090142
11910.0 0.00088281
11930.0 0.00086505
11950.0 0.00084912
11970.0 0.00083392
11990.0 0.00081884
12010.0 0.00080508
12030.0 0.00079243
12050.0 0.00078002
12070.0 0.00076804
12090.0 0.00075767
12110.0 0.00074782
12130.0 0.00073842
12150.0 0.00073016
12170.0 0.0007231
12190.0 0.0007165
12210.0 0.00071118
12230.0 0.00070737
12250.0 0.00070479
12270.0 0.00070359
12290.0 0.00070408
12310.0 0.00070618
12330.0 0.00070999
12350.0 0.00071563
12370.0 0.00072284
12390.0 0.00073178
12410.0 0.00074284
12430.0 0.00075494
12450.0 0.00076815
12470.0 0.00078282
12490.0 0.0007983
12510.0 0.00081369
12530.0 0.00082967
12550.0 0.00084588
12570.0 0.00086119
12590.0 0.00087565
12610.0 0.00088958
12630.0 0.00090213
12650.0 0.00091267
12670.0 0.00092184
12690.0 0.0009293
12710.0 0.00093473
12730.0 0.00093833
12750.0 0.00094009
12770.0 0.00093995
12790.0 0.0009382
12810.0 0.00093483
12830.0 0.00092983
12850.0 0.00092392
12870.0 0.00091707
12890.0 0.00090905
12910.0 0.00090049
12930.0 0.00089178
12950.0 0.00088232
12970.0 0.00087238
12990.0 0.0008628
13010.0 0.00085308
13030.0 0.0008429
13050.0 0.00083279
13070.0 0.00082301
13090.0 0.00081268
13110.0 0.00080217
13130.0 0.00079198
13150.0 0.00078179
13170.0 0.00077114
13190.0 0.00076111
13210.0 0.00075179
13230.0 0.00074272
13250.0 0.00073437
13270.0 0.00072732
13290.0 0.00072129
13310.0 0.00071638
13330.0 0.00071309
13350.0 0.00071129
13370.0 0.00071086
13390.0 0.0007118
13410.0 0.00071376
13430.0 0.00071649
13450.0 0.00071972
13470.0 0.00072291
13490.0 0.00072563
13510.0 0.0007277
13530.0 0.00072852
13550.0 0.00072789
13570.0 0.00072564
13590.0 0.00072151
13610.0 0.00071577
13630.0 0.00070865
13650.0 0.00069978
13670.0 0.00068975
13690.0 0.00067921
13710.0 0.00066793
13730.0 0.00065583
13750.0 0.00064444
13770.0 0.00063343
13790.0 0.00062256
13810.0 0.00061243
13830.0 0.00060346
13850.0 0.000595
13870.0 0.00058726
13890.0 0.00058061
13910.0 0.00057477
13930.0 0.00056947
13950.0 0.00056488
13970.0 0.00056108
13990.0 0.00055765
14010.0 0.00055461
14030.0 0.00055201
14050.0 0.00054968
14070.0 0.00054746
14090.0 0.00054542
14110.0 0.00054349
14130.0 0.00054151
14150.0 0.00053945
14170.0 0.00053736
14190.0 0.00053517
14210.0 0.00053278
14230.0 0.00053031
14250.0 0.00052782
14270.0 0.00052522
14290.0 0.00052259
14310.0 0.00052015
14330.0 0.00051782
14350.0 0.00051563
14370.0 0.0005137
14390.0 0.00051204
14410.0 0.00051059
14430.0 0.00050937
14450.0 0.00050836
14470.0 0.0005075
14490.0 0.00050677
14510.0 0.00050612
14530.0 0.00050551
14550.0 0.00050494
14570.0 0.00050442
14590.0 0.00050396
14610.0 0.00050361
14630.0 0.00050347
14650.0 0.00050355
14670.0 0.00050393
14690.0 0.00050476
14710.0 0.00050612
14730.0 0.00050787
14750.0 0.00051025
14770.0 0.0005134
14790.0 0.00051714
14810.0 0.00052146
14830.0 0.00052693
14850.0 0.00053314
14870.0 0.00053983
14890.0 0.00054731
14910.0 0.00055552
14930.0 0.00056357
14950.0 0.0005712
14970.0 0.00057855
14990.0 0.00058469
15010.0 0.00058925
15030.0 0.00059245
15050.0 0.00059432
15070.0 0.00059477
15090.0 0.00059435
15110.0 0.00059332
15130.0 0.00059188
15150.0 0.00059023
15170.0 0.00058845
15190.0 0.00058661
15210.0 0.00058476
15230.0 0.0005829
15250.0 0.00058101
15270.0 0.00057913
15290.0 0.00057726
15310.0 0.00057537
15330.0 0.00057347
15350.0 0.00057159
15370.0 0.0005697
15390.0 0.00056779
15410.0 0.00056588
15430.0 0.00056399
15450.0 0.00056208
15470.0 0.00056017
15490.0 0.00055827
15510.0 0.00055637
15530.0 0.00055446
15550.0 0.00055255
15570.0 0.00055065
15590.0 0.00054873
15610.0 0.00054681
15630.0 0.00054491
15650.0 0.00054301
15670.0 0.00054109
15690.0 0.00053918
15710.0 0.00053729
15730.0 0.00053538
15750.0 0.00053347
15770.0 0.00053157
15790.0 0.00052968
15810.0 0.00052776
15830.0 0.00052587
15850.0 0.00052398
15870.0 0.00052209
15890.0 0.00052019
15910.0 0.00051831
15930.0 0.00051643
15950.0 0.00051454
15970.0 0.00051266
15990.0 0.00051079
16010.0 0.00050891
16030.0 0.00050703
16050.0 0.00050518
16070.0 0.00050332
16090.0 0.00050146
16110.0 0.00049961
16130.0 0.00049777
16150.0 0.00049591
16170.0 0.00049406
16190.0 0.00049223
16210.0 0.0004904
16230.0 0.00048856
16250.0 0.00048674
16270.0 0.00048493
16290.0 0.00048311
16310.0 0.0004813
16330.0 0.00047951
16350.0 0.00047771
16370.0 0.0004759
16390.0 0.00047412
16410.0 0.00047234
16430.0 0.00047056
16450.0 0.00046879
16470.0 0.00046703
16490.0 0.00046527
16510.0 0.00046351
16530.0 0.00046176
16550.0 0.00046003
16570.0 0.00045828
16590.0 0.00045655
16610.0 0.00045484
16630.0 0.00045312
16650.0 0.0004514
16670.0 0.0004497
16690.0 0.00044801
16710.0 0.0004463
16730.0 0.00044462
16750.0 0.00044295
16770.0 0.00044127
16790.0 0.0004396
16810.0 0.00043795
16830.0 0.0004363
16850.0 0.00043465
16870.0 0.00043301
16890.0 0.00043138
16910.0 0.00042975
16930.0 0.00042812
16950.0 0.00042652
16970.0 0.00042492
16990.0 0.00042331
17010.0 0.00042173
17030.0 0.00042015
17050.0 0.00041857
17070.0 0.000417
17090.0 0.00041544
17110.0 0.00041389
17130.0 0.00041233
17150.0 0.00041079
17170.0 0.00040926
17190.0 0.00040773
17210.0 0.00040621
17230.0 0.00040471
17250.0 0.0004032
17270.0 0.0004017
17290.0 0.00040021
17310.0 0.00039873
17330.0 0.00039725
17350.0 0.00039577
17370.0 0.00039432
17390.0 0.00039287
17410.0 0.00039142
17430.0 0.00038998
17450.0 0.00038856
17470.0 0.00038712
17490.0 0.0003857
17510.0 0.0003843
17530.0 0.00038289
17550.0 0.00038149
17570.0 0.00038011
17590.0 0.00037873
17610.0 0.00037735
17630.0 0.00037598
17650.0 0.00037463
17670.0 0.00037328
17690.0 0.00037192
17710.0 0.00037059
17730.0 0.00036926
17750.0 0.00036793
17770.0 0.00036661
17790.0 0.00036531
17810.0 0.00036401
17830.0 0.00036271
17850.0 0.00036142
17870.0 0.00036014
17890.0 0.00035886
17910.0 0.00035759
17930.0 0.00035634
17950.0 0.00035509
17970.0 0.00035384
17990.0 0.0003526
18010.0 0.00035138
18030.0 0.00035014
18050.0 0.00034892
18070.0 0.00034772
18090.0 0.00034651
18110.0 0.0003453
18130.0 0.00034412
18150.0 0.00034294
18170.0 0.00034175
18190.0 0.00034058
18210.0 0.00033943
18230.0 0.00033826
18250.0 0.00033711
18270.0 0.00033597
18290.0 0.00033483
18310.0 0.0003337
18330.0 0.00033257
18350.0 0.00033146
18370.0 0.00033035
18390.0 0.00032924
18410.0 0.00032814
18430.0 0.00032705
18450.0 0.00032596
18470.0 0.00032488
18490.0 0.00032381
18510.0 0.00032274
18530.0 0.00032168
18550.0 0.00032063
18570.0 0.00031958
18590.0 0.00031853
18610.0 0.0003175
18630.0 0.00031647
18650.0 0.00031544
18670.0 0.00031442
18690.0 0.00031342
18710.0 0.00031241
18730.0 0.0003114
18750.0 0.00031041
18770.0 0.00030943
18790.0 0.00030844
18810.0 0.00030746
18830.0 0.00030649
18850.0 0.00030553
18870.0 0.00030456
18890.0 0.00030361
18910.0 0.00030267
18930.0 0.00030172
18950.0 0.00030078
18970.0 0.00029986
18990.0 0.00029893
19010.0 0.000298
19030.0 0.00029709
19050.0 0.00029619
19070.0 0.00029528
19090.0 0.00029438
19110.0 0.00029349
19130.0 0.0002926
19150.0 0.00029171
19170.0 0.00029084
19190.0 0.00028997
19210.0 0.00028909
19230.0 0.00028823
19250.0 0.00028738
19270.0 0.00028653
19290.0 0.00028568
19310.0 0.00028484
19330.0 0.00028401
19350.0 0.00028316
19370.0 0.00028234
19390.0 0.00028152
19410.0 0.0002807
19430.0 0.00027988
19450.0 0.00027908
19470.0 0.00027828
19490.0 0.00027748
19510.0 0.00027668
19530.0 0.0002759
19550.0 0.00027511
19570.0 0.00027432
19590.0 0.00027356
19610.0 0.00027279
19630.0 0.00027202
19650.0 0.00027126
19670.0 0.00027051
19690.0 0.00026975
19710.0 0.000269
19730.0 0.00026826
19750.0 0.00026752
19770.0 0.00026677
19790.0 0.00026604
19810.0 0.00026532
19830.0 0.00026459
19850.0 0.00026385
19870.0 0.0002631
19890.0 0.0002623
19910.0 0.0002614
19930.0 0.00026037
19950.0 0.00025912
19970.0 0.00025752
19990.0 0.00025551
20010.0 0.00025314
20030.0 0.00025025
20050.0 0.00024686
20070.0 0.0002432
20090.0 0.00023929
20110.0 0.00023495
20130.0 0.00023064
20150.0 0.00022643
20170.0 0.00022214
20190.0 0.00021786
20210.0 0.00021385
20230.0 0.00020995
20250.0 0.00020605
20270.0 0.00020238
20290.0 0.00019896
20310.0 0.00019563
20330.0 0.00019239
20350.0 0.00018954
20370.0 0.00018682
20390.0 0.00018423
20410.0 0.00018188
20430.0 0.00017978
20450.0 0.00017778
20470.0 0.00017599
20490.0 0.00017445
20510.0 0.00017308
20530.0 0.00017188
20550.0 0.0001709
20570.0 0.00017012
20590.0 0.00016949
20610.0 0.00016902
20630.0 0.00016872
20650.0 0.00016855
20670.0 0.00016852
20690.0 0.0001686
20710.0 0.00016876
20730.0 0.00016901
20750.0 0.00016932
20770.0 0.00016965
20790.0 0.00017001
20810.0 0.00017039
20830.0 0.00017074
20850.0 0.00017106
20870.0 0.00017135
20890.0 0.00017158
20910.0 0.00017172
20930.0 0.00017178
20950.0 0.00017174
20970.0 0.0001716
20990.0 0.00017136
21010.0 0.00017099
21030.0 0.00017051
21050.0 0.00016993
21070.0 0.00016924
21090.0 0.00016841
21110.0 0.00016753
21130.0 0.00016656
21150.0 0.0001655
21170.0 0.00016438
21190.0 0.00016325
21210.0 0.00016205
21230.0 0.0001608
21250.0 0.00015959
21270.0 0.00015838
21290.0 0.00015716
21310.0 0.00015597
21330.0 0.00015487
21350.0 0.00015377
21370.0 0.00015273
21390.0 0.00015178
21410.0 0.0001509
21430.0 0.00015007
21450.0 0.00014935
21470.0 0.00014873
21490.0 0.0001482
21510.0 0.00014777
21530.0 0.00014746
21550.0 0.00014725
21570.0 0.00014716
21590.0 0.00014718
21610.0 0.0001473
21630.0 0.00014754
21650.0 0.00014791
21670.0 0.00014834
21690.0 0.00014887
21710.0 0.00014952
21730.0 0.00015022
21750.0 0.00015097
21770.0 0.00015182
21790.0 0.00015272
21810.0 0.0001536
21830.0 0.00015451
21850.0 0.00015547
21870.0 0.00015638
21890.0 0.00015724
21910.0 0.0001581
21930.0 0.00015892
21950.0 0.00015965
21970.0 0.00016033
21990.0 0.00016097
22010.0 0.00016149
22030.0 0.00016192
22050.0 0.00016229
22070.0 0.00016255
22090.0 0.00016271
22110.0 0.00016277
22130.0 0.00016275
22150.0 0.00016261
22170.0 0.00016239
22190.0 0.00016205
22210.0 0.00016161
22230.0 0.00016109
22250.0 0.00016046
22270.0 0.00015972
22290.0 0.00015891
22310.0 0.00015801
22330.0 0.00015698
22350.0 0.00015587
22370.0 0.0001547
22390.0 0.00015343
22410.0 0.00015202
22430.0 0.00015061
22450.0 0.00014912
22470.0 0.00014752
22490.0 0.00014587
22510.0 0.00014422
22530.0 0.00014245
22550.0 0.00014061
22570.0 0.00013882
22590.0 0.000137
22610.0 0.00013512
22630.0 0.00013327
22650.0 0.00013151
22670.0 0.0001297
22690.0 0.00012792
22710.0 0.00012625
22730.0 0.00012463
22750.0 0.00012299
22770.0 0.00012149
22790.0 0.00012009
22810.0 0.00011874
22830.0 0.00011746
22850.0 0.0001163
22870.0 0.00011521
22890.0 0.00011416
22910.0 0.00011321
22930.0 0.00011234
22950.0 0.00011152
22970.0 0.00011073
22990.0 0.00011004
23010.0 0.00010938
23030.0 0.00010875
23050.0 0.00010816
