#lamb flux
1010.0 1.0719e-05
1030.0 1.0719e-05
1050.0 1.0719e-05
1070.0 1.0719e-05
1090.0 1.0719e-05
1110.0 1.0719e-05
1130.0 1.0719e-05
1150.0 1.0719e-05
1170.0 1.0719e-05
1190.0 1.0719e-05
1210.0 1.0719e-05
1230.0 1.0719e-05
1250.0 1.0719e-05
1270.0 1.0719e-05
1290.0 1.0719e-05
1310.0 1.0719e-05
1330.0 1.0719e-05
1350.0 1.0719e-05
1370.0 1.0719e-05
1390.0 1.0719e-05
1410.0 1.0719e-05
1430.0 1.0719e-05
1450.0 1.1887e-05
1470.0 1.3509e-05
1490.0 1.5336e-05
1510.0 1.7402e-05
1530.0 1.9647e-05
1550.0 2.2104e-05
1570.0 2.4821e-05
1590.0 2.7798e-05
1610.0 3.0995e-05
1630.0 3.4452e-05
1650.0 3.8248e-05
1670.0 4.2339e-05
1690.0 4.6759e-05
1710.0 5.1588e-05
1730.0 5.6804e-05
1750.0 6.2311e-05
1770.0 6.8235e-05
1790.0 7.4564e-05
1810.0 8.119e-05
1830.0 8.8106e-05
1850.0 9.5433e-05
1870.0 0.00010296
1890.0 0.00011061
1910.0 0.00011843
1930.0 0.00012639
1950.0 0.00013422
1970.0 0.00014194
1990.0 0.00014959
2010.0 0.00015696
2030.0 0.00016391
2050.0 0.00017056
2070.0 0.00017683
2090.0 0.00018242
2110.0 0.00018744
2130.0 0.00019196
2150.0 0.0001958
2170.0 0.00019888
2190.0 0.00020143
2210.0 0.00020338
2230.0 0.00020459
2250.0 0.00020522
2270.0 0.00020542
2290.0 0.00020503
2310.0 0.00020406
2330.0 0.00020276
2350.0 0.00020113
2370.0 0.00019909
2390.0 0.00019684
2410.0 0.00019453
2430.0 0.00019203
2450.0 0.00018944
2470.0 0.00018696
2490.0 0.00018468
2510.0 0.00018255
2530.0 0.00018111
2550.0 0.00018106
2570.0 0.00018301
2590.0 0.00018776
2610.0 0.00019746
2630.0 0.00021255
2650.0 0.00023218
2670.0 0.00025699
2690.0 0.00028671
2710.0 0.00031791
2730.0 0.00034926
2750.0 0.00038247
2770.0 0.0004154
2790.0 0.00044719
2810.0 0.00048002
2830.0 0.00051579
2850.0 0.00055108
2870.0 0.0005878
2890.0 0.00062776
2910.0 0.00066972
2930.0 0.00071215
2950.0 0.00075814
2970.0 0.00080736
2990.0 0.00085765
3010.0 0.00091002
3030.0 0.00096631
3050.0 0.0010247
3070.0 0.0010819
3090.0 0.0011401
3110.0 0.001196
3130.0 0.001245
3150.0 0.0012852
3170.0 0.0013137
3190.0 0.0013268
3210.0 0.0013218
3230.0 0.0013044
3250.0 0.0012978
3270.0 0.0013155
3290.0 0.0013502
3310.0 0.0013933
3330.0 0.0014466
3350.0 0.0015066
3370.0 0.0015742
3390.0 0.0016531
3410.0 0.0017281
3430.0 0.0018449
3450.0 0.0019381
3470.0 0.0020358
3490.0 0.0021186
3510.0 0.0022191
3530.0 0.0025516
3550.0 0.0030164
3570.0 0.0033001
3590.0 0.0034242
3610.0 0.0034368
3630.0 0.0033315
3650.0 0.0036003
3670.0 0.0042821
3690.0 0.0048218
3710.0 0.0051084
3730.0 0.0053473
3750.0 0.0056098
3770.0 0.0055638
3790.0 0.0052705
3810.0 0.004935
3830.0 0.0045974
3850.0 0.0045653
3870.0 0.0049419
3890.0 0.0053332
3910.0 0.0056032
3930.0 0.0057741
3950.0 0.0062818
3970.0 0.0067544
3990.0 0.0064548
4010.0 0.0056788
4030.0 0.0049743
4050.0 0.0047632
4070.0 0.0048835
4090.0 0.0048849
4110.0 0.004777
4130.0 0.0046979
4150.0 0.0047466
4170.0 0.0051721
4190.0 0.0056797
4210.0 0.005616
4230.0 0.0053125
4250.0 0.0051785
4270.0 0.0051751
4290.0 0.0053966
4310.0 0.0056335
4330.0 0.0053633
4350.0 0.004653
4370.0 0.0040737
4390.0 0.003661
4410.0 0.0033101
4430.0 0.0032905
4450.0 0.0035716
4470.0 0.0038192
4490.0 0.0041484
4510.0 0.0047463
4530.0 0.0060043
4550.0 0.0076294
4570.0 0.008602
4590.0 0.0091703
4610.0 0.010072
4630.0 0.010719
4650.0 0.010026
4670.0 0.0082204
4690.0 0.0067265
4710.0 0.0061154
4730.0 0.0059358
4750.0 0.0054723
4770.0 0.0050749
4790.0 0.0053321
4810.0 0.0058304
4830.0 0.0058877
4850.0 0.0055019
4870.0 0.0053386
4890.0 0.0056948
4910.0 0.0060579
4930.0 0.0061031
4950.0 0.0058929
4970.0 0.0055237
4990.0 0.0049935
5010.0 0.0045209
5030.0 0.004246
5050.0 0.0041193
5070.0 0.0040177
5090.0 0.0038991
5110.0 0.0038649
5130.0 0.0038885
5150.0 0.0040706
5170.0 0.0045238
5190.0 0.0051006
5210.0 0.0057576
5230.0 0.006191
5250.0 0.0064162
5270.0 0.0067727
5290.0 0.0071956
5310.0 0.0073598
5330.0 0.0070897
5350.0 0.0066983
5370.0 0.0066864
5390.0 0.0071654
5410.0 0.0077713
5430.0 0.008147
5450.0 0.0082305
5470.0 0.0080529
5490.0 0.0077454
5510.0 0.0075404
5530.0 0.0075033
5550.0 0.007557
5570.0 0.0075798
5590.0 0.0074019
5610.0 0.0070651
5630.0 0.0066004
5650.0 0.0061088
5670.0 0.0058062
5690.0 0.0056517
5710.0 0.0055695
5730.0 0.0055977
5750.0 0.0055493
5770.0 0.0054404
5790.0 0.0054618
5810.0 0.0055098
5830.0 0.0055782
5850.0 0.0056255
5870.0 0.0055216
5890.0 0.0052932
5910.0 0.0049847
5930.0 0.004505
5950.0 0.0041092
5970.0 0.0040192
5990.0 0.004162
6010.0 0.0042586
6030.0 0.0041167
6050.0 0.0039799
6070.0 0.0041301
6090.0 0.0044506
6110.0 0.004638
6130.0 0.0045231
6150.0 0.0042615
6170.0 0.0040736
6190.0 0.0038993
6210.0 0.0036662
6230.0 0.0034228
6250.0 0.0033072
6270.0 0.0033804
6290.0 0.0035104
6310.0 0.0037177
6330.0 0.0040195
6350.0 0.0043412
6370.0 0.0045208
6390.0 0.0045652
6410.0 0.0046098
6430.0 0.0046548
6450.0 0.0047052
6470.0 0.004798
6490.0 0.0048989
6510.0 0.0049693
6530.0 0.004968
6550.0 0.0048898
6570.0 0.0047242
6590.0 0.0045048
6610.0 0.004348
6630.0 0.0042579
6650.0 0.0041249
6670.0 0.0039386
6690.0 0.0037796
6710.0 0.003697
6730.0 0.0036589
6750.0 0.0036032
6770.0 0.003535
6790.0 0.0034775
6810.0 0.0034054
6830.0 0.0033649
6850.0 0.0034235
6870.0 0.0034607
6890.0 0.0034256
6910.0 0.0033505
6930.0 0.0032802
6950.0 0.0032195
6970.0 0.0031104
6990.0 0.0029919
7010.0 0.00294
7030.0 0.002911
7050.0 0.0028252
7070.0 0.0026984
7090.0 0.0026442
7110.0 0.0027113
7130.0 0.0028771
7150.0 0.0030548
7170.0 0.0031698
7190.0 0.0031473
7210.0 0.0030243
7230.0 0.0029452
7250.0 0.002939
7270.0 0.0029316
7290.0 0.0029075
7310.0 0.0029291
7330.0 0.0030165
7350.0 0.0031313
7370.0 0.0032016
7390.0 0.0031926
7410.0 0.0031235
7430.0 0.0030328
7450.0 0.0029271
7470.0 0.0027876
7490.0 0.0026913
7510.0 0.002608
7530.0 0.0025585
7550.0 0.0025742
7570.0 0.0026034
7590.0 0.0026219
7610.0 0.002611
7630.0 0.0025972
7650.0 0.0026163
7670.0 0.0026821
7690.0 0.0027653
7710.0 0.0028622
7730.0 0.0029369
7750.0 0.003025
7770.0 0.0030893
7790.0 0.0031241
7810.0 0.0031253
7830.0 0.0031222
7850.0 0.0030654
7870.0 0.002932
7890.0 0.002794
7910.0 0.0027061
7930.0 0.0026421
7950.0 0.0025804
7970.0 0.0025491
7990.0 0.0025629
8010.0 0.0024642
8030.0 0.0024373
8050.0 0.0024027
8070.0 0.0023601
8090.0 0.0023169
8110.0 0.0023145
8130.0 0.0023259
8150.0 0.0023157
8170.0 0.0022969
8190.0 0.0022364
8210.0 0.002107
8230.0 0.0019665
8250.0 0.0018853
8270.0 0.0018227
8290.0 0.0017583
8310.0 0.0017275
8330.0 0.0017222
8350.0 0.0016781
8370.0 0.0016549
8390.0 0.0017082
8410.0 0.0018064
8430.0 0.0019334
8450.0 0.0020667
8470.0 0.0021432
8490.0 0.0022106
8510.0 0.0022574
8530.0 0.0023041
8550.0 0.0023508
8570.0 0.0023814
8590.0 0.0024088
8610.0 0.0024712
8630.0 0.0024961
8650.0 0.0024459
8670.0 0.0024466
8690.0 0.0024851
8710.0 0.0025208
8730.0 0.0025137
8750.0 0.0024521
8770.0 0.0024276
8790.0 0.0024151
8810.0 0.0023749
8830.0 0.0022189
8850.0 0.0020241
8870.0 0.0018846
8890.0 0.001814
8910.0 0.0017171
8930.0 0.0015964
8950.0 0.0015185
8970.0 0.0015045
8990.0 0.0015185
9010.0 0.0015167
9030.0 0.0015055
9050.0 0.0014951
9070.0 0.0014864
9090.0 0.001478
9110.0 0.0014696
9130.0 0.0014613
9150.0 0.0014531
9170.0 0.0014448
9190.0 0.0014367
9210.0 0.0014285
9230.0 0.0014205
9250.0 0.0014125
9270.0 0.0014045
9290.0 0.0013966
9310.0 0.0013887
9330.0 0.0013809
9350.0 0.0013731
9370.0 0.0013653
9390.0 0.0013577
9410.0 0.00135
9430.0 0.0013423
9450.0 0.001334
9470.0 0.001326
9490.0 0.0013192
9510.0 0.0013121
9530.0 0.001305
9550.0 0.0012978
9570.0 0.0012905
9590.0 0.0012834
9610.0 0.0012762
9630.0 0.001269
9650.0 0.0012619
9670.0 0.0012549
9690.0 0.0012479
9710.0 0.0012409
9730.0 0.0012339
9750.0 0.001227
9770.0 0.0012201
9790.0 0.0012132
9810.0 0.0012064
9830.0 0.0011995
9850.0 0.0011922
9870.0 0.0011856
9890.0 0.0011791
9910.0 0.0011725
9930.0 0.0011659
9950.0 0.0011593
9970.0 0.0011527
9990.0 0.0011459
10010.0 0.0011385
10030.0 0.0011316
10050.0 0.0011255
10070.0 0.0011193
10090.0 0.001113
10110.0 0.0011061
10130.0 0.0010972
10150.0 0.0010911
10170.0 0.0010855
10190.0 0.0010793
10210.0 0.0010732
10230.0 0.001067
10250.0 0.0010605
10270.0 0.0010539
10290.0 0.0010475
10310.0 0.0010409
10330.0 0.001034
10350.0 0.0010274
10370.0 0.0010209
10390.0 0.001014
10410.0 0.0010072
10430.0 0.0010007
10450.0 0.00099395
10470.0 0.00098699
10490.0 0.00098028
10510.0 0.00097359
10530.0 0.00096639
10550.0 0.00095939
10570.0 0.00095266
10590.0 0.00094564
10610.0 0.00093844
10630.0 0.00093155
10650.0 0.00092459
10670.0 0.0009172
10690.0 0.00090998
10710.0 0.00090293
10730.0 0.00089558
10750.0 0.00088793
10770.0 0.00088077
10790.0 0.00087347
10810.0 0.00086584
10830.0 0.00085834
10850.0 0.00085107
10870.0 0.00084326
10890.0 0.00083544
10910.0 0.00082794
10930.0 0.00082037
10950.0 0.00081255
10970.0 0.000805
10990.0 0.00079784
11010.0 0.00077451
11030.0 0.00076705
11050.0 0.00076005
11070.0 0.00075316
11090.0 0.00074608
11110.0 0.00073958
11130.0 0.00073338
11150.0 0.00072722
11170.0 0.00072135
11190.0 0.00071606
11210.0 0.00071099
11230.0 0.00070617
11250.0 0.0007019
11270.0 0.00069808
11290.0 0.00069448
11310.0 0.00069125
11330.0 0.0006885
11350.0 0.00068594
11370.0 0.00068355
11390.0 0.00068139
11410.0 0.00067935
11430.0 0.00067724
11450.0 0.00067515
11470.0 0.00067303
11490.0 0.00067073
11510.0 0.00066817
11530.0 0.00066547
11550.0 0.00066253
11570.0 0.00065918
11590.0 0.0006555
11610.0 0.0006516
11630.0 0.00064717
11650.0 0.0006422
11670.0 0.00063702
11690.0 0.00063143
11710.0 0.00062521
11730.0 0.00061861
11750.0 0.00061186
11770.0 0.00060445
11790.0 0.00059655
11810.0 0.00058855
11830.0 0.00058025
11850.0 0.00057124
11870.0 0.00056226
11890.0 0.00055343
11910.0 0.00054425
11930.0 0.00053496
11950.0 0.00052608
11970.0 0.00051726
11990.0 0.00050829
12010.0 0.00049979
12030.0 0.00049175
12050.0 0.00048381
12070.0 0.00047606
12090.0 0.00046911
12110.0 0.00046242
12130.0 0.00045596
12150.0 0.00045004
12170.0 0.00044468
12190.0 0.00043949
12210.0 0.00043484
12230.0 0.00043083
12250.0 0.00042727
12270.0 0.00042415
12290.0 0.00042163
12310.0 0.00041965
12330.0 0.00041808
12350.0 0.00041698
12370.0 0.00041628
12390.0 0.00041593
12410.0 0.00041591
12430.0 0.0004161
12450.0 0.00041645
12470.0 0.00041696
12490.0 0.00041754
12510.0 0.00041808
12530.0 0.00041864
12550.0 0.00041915
12570.0 0.0004195
12590.0 0.00041968
12610.0 0.00041967
12630.0 0.00041939
12650.0 0.0004188
12670.0 0.00041788
12690.0 0.00041657
12710.0 0.00041491
12730.0 0.00041287
12750.0 0.00041035
12770.0 0.00040747
12790.0 0.00040431
12810.0 0.00040078
12830.0 0.00039688
12850.0 0.0003929
12870.0 0.00038879
12890.0 0.00038443
12910.0 0.00038007
12930.0 0.00037582
12950.0 0.00037146
12970.0 0.0003671
12990.0 0.00036301
13010.0 0.00035902
13030.0 0.00035504
13050.0 0.00035125
13070.0 0.0003477
13090.0 0.00034417
13110.0 0.00034074
13130.0 0.00033754
13150.0 0.00033446
13170.0 0.0003314
13190.0 0.00032856
13210.0 0.00032592
13230.0 0.00032335
13250.0 0.00032091
13270.0 0.00031866
13290.0 0.00031651
13310.0 0.0003144
13330.0 0.00031242
13350.0 0.00031053
13370.0 0.00030863
13390.0 0.00030672
13410.0 0.00030487
13430.0 0.00030296
13450.0 0.00030094
13470.0 0.00029888
13490.0 0.00029677
13510.0 0.00029444
13530.0 0.00029202
13550.0 0.00028956
13570.0 0.00028696
13590.0 0.0002842
13610.0 0.00028142
13630.0 0.00027864
13650.0 0.0002757
13670.0 0.00027273
13690.0 0.00026983
13710.0 0.00026688
13730.0 0.0002638
13750.0 0.00026088
13770.0 0.00025801
13790.0 0.00025507
13810.0 0.00025218
13830.0 0.00024943
13850.0 0.00024664
13870.0 0.00024385
13890.0 0.0002412
13910.0 0.00023864
13930.0 0.00023606
13950.0 0.00023357
13970.0 0.00023129
13990.0 0.00022904
14010.0 0.00022685
14030.0 0.00022483
14050.0 0.0002229
14070.0 0.00022097
14090.0 0.00021916
14110.0 0.00021748
14130.0 0.00021582
14150.0 0.00021419
14170.0 0.00021269
14190.0 0.00021124
14210.0 0.00020978
14230.0 0.00020838
14250.0 0.00020708
14270.0 0.00020575
14290.0 0.00020445
14310.0 0.00020326
14330.0 0.00020209
14350.0 0.00020092
14370.0 0.00019982
14390.0 0.00019879
14410.0 0.00019774
14430.0 0.00019673
14450.0 0.00019579
14470.0 0.00019487
14490.0 0.00019393
14510.0 0.00019306
14530.0 0.00019223
14550.0 0.00019137
14570.0 0.00019051
14590.0 0.00018968
14610.0 0.00018882
14630.0 0.00018789
14650.0 0.00018697
14670.0 0.00018605
14690.0 0.0001851
14710.0 0.00018416
14730.0 0.00018333
14750.0 0.00018258
14770.0 0.00018195
14790.0 0.00018154
14810.0 0.00018137
14830.0 0.00018149
14850.0 0.00018195
14870.0 0.00018276
14890.0 0.00018391
14910.0 0.00018542
14930.0 0.00018712
14950.0 0.00018891
14970.0 0.00019078
14990.0 0.00019252
15010.0 0.000194
15030.0 0.00019524
15050.0 0.00019622
15070.0 0.00019691
15090.0 0.00019742
15110.0 0.0001978
15130.0 0.00019809
15150.0 0.00019835
15170.0 0.00019858
15190.0 0.00019881
15210.0 0.00019904
15230.0 0.00019927
15250.0 0.00019951
15270.0 0.00019975
15290.0 0.00020001
15310.0 0.00020027
15330.0 0.00020053
15350.0 0.00020081
15370.0 0.00020109
15390.0 0.00020137
15410.0 0.00020166
15430.0 0.00020196
15450.0 0.00020226
15470.0 0.00020257
15490.0 0.00020289
15510.0 0.00020321
15530.0 0.00020353
15550.0 0.00020386
15570.0 0.00020421
15590.0 0.00020455
15610.0 0.00020489
15630.0 0.00020525
15650.0 0.0002056
15670.0 0.00020596
15690.0 0.00020633
15710.0 0.00020671
15730.0 0.00020708
15750.0 0.00020746
15770.0 0.00020785
15790.0 0.00020824
15810.0 0.00020863
15830.0 0.00020903
15850.0 0.00020944
15870.0 0.00020984
15890.0 0.00021025
15910.0 0.00021067
15930.0 0.00021109
15950.0 0.00021151
15970.0 0.00021193
15990.0 0.00021236
16010.0 0.00021279
16030.0 0.00021322
16050.0 0.00021366
16070.0 0.0002141
16090.0 0.00021454
16110.0 0.00021498
16130.0 0.00021543
16150.0 0.00021588
16170.0 0.00021633
16190.0 0.00021678
16210.0 0.00021724
16230.0 0.00021769
16250.0 0.00021815
16270.0 0.00021861
16290.0 0.00021907
16310.0 0.00021953
16330.0 0.00021999
16350.0 0.00022045
16370.0 0.00022091
16390.0 0.00022138
16410.0 0.00022184
16430.0 0.00022231
16450.0 0.00022277
16470.0 0.00022324
16490.0 0.0002237
16510.0 0.00022416
16530.0 0.00022463
16550.0 0.00022509
16570.0 0.00022555
16590.0 0.00022601
16610.0 0.00022647
16630.0 0.00022693
16650.0 0.00022738
16670.0 0.00022784
16690.0 0.0002283
16710.0 0.00022874
16730.0 0.00022919
16750.0 0.00022964
16770.0 0.00023008
16790.0 0.00023052
16810.0 0.00023097
16830.0 0.0002314
16850.0 0.00023183
16870.0 0.00023226
16890.0 0.00023269
16910.0 0.00023311
16930.0 0.00023353
16950.0 0.00023395
16970.0 0.00023436
16990.0 0.00023476
17010.0 0.00023517
17030.0 0.00023557
17050.0 0.00023596
17070.0 0.00023635
17090.0 0.00023673
17110.0 0.00023711
17130.0 0.00023748
17150.0 0.00023785
17170.0 0.00023821
17190.0 0.00023856
17210.0 0.00023891
17230.0 0.00023926
17250.0 0.0002396
17270.0 0.00023992
17290.0 0.00024025
17310.0 0.00024057
17330.0 0.00024087
17350.0 0.00024117
17370.0 0.00024147
17390.0 0.00024176
17410.0 0.00024204
17430.0 0.00024231
17450.0 0.00024258
17470.0 0.00024283
17490.0 0.00024308
17510.0 0.00024332
17530.0 0.00024356
17550.0 0.00024377
17570.0 0.00024399
17590.0 0.0002442
17610.0 0.00024439
17630.0 0.00024458
17650.0 0.00024476
17670.0 0.00024493
17690.0 0.00024508
17710.0 0.00024523
17730.0 0.00024537
17750.0 0.00024549
17770.0 0.00024561
17790.0 0.00024573
17810.0 0.00024582
17830.0 0.0002459
17850.0 0.00024598
17870.0 0.00024605
17890.0 0.0002461
17910.0 0.00024614
17930.0 0.00024618
17950.0 0.0002462
17970.0 0.00024621
17990.0 0.00024621
18010.0 0.0002462
18030.0 0.00024617
18050.0 0.00024613
18070.0 0.00024609
18090.0 0.00024603
18110.0 0.00024595
18130.0 0.00024587
18150.0 0.00024578
18170.0 0.00024567
18190.0 0.00024555
18210.0 0.00024542
18230.0 0.00024528
18250.0 0.00024512
18270.0 0.00024495
18290.0 0.00024477
18310.0 0.00024457
18330.0 0.00024437
18350.0 0.00024416
18370.0 0.00024392
18390.0 0.00024367
18410.0 0.00024342
18430.0 0.00024315
18450.0 0.00024286
18470.0 0.00024257
18490.0 0.00024227
18510.0 0.00024195
18530.0 0.00024161
18550.0 0.00024127
18570.0 0.00024091
18590.0 0.00024054
18610.0 0.00024015
18630.0 0.00023976
18650.0 0.00023935
18670.0 0.00023892
18690.0 0.0002385
18710.0 0.00023805
18730.0 0.00023759
18750.0 0.00023712
18770.0 0.00023664
18790.0 0.00023613
18810.0 0.00023562
18830.0 0.00023511
18850.0 0.00023457
18870.0 0.00023402
18890.0 0.00023347
18910.0 0.0002329
18930.0 0.00023232
18950.0 0.00023172
18970.0 0.00023112
18990.0 0.0002305
19010.0 0.00022987
19030.0 0.00022923
19050.0 0.00022858
19070.0 0.00022792
19090.0 0.00022724
19110.0 0.00022656
19130.0 0.00022586
19150.0 0.00022515
19170.0 0.00022443
19190.0 0.00022371
19210.0 0.00022296
19230.0 0.00022221
19250.0 0.00022146
19270.0 0.00022068
19290.0 0.0002199
19310.0 0.00021911
19330.0 0.00021831
19350.0 0.0002175
19370.0 0.00021668
19390.0 0.00021585
19410.0 0.00021501
19430.0 0.00021416
19450.0 0.00021331
19470.0 0.00021244
19490.0 0.00021156
19510.0 0.00021068
19530.0 0.00020979
19550.0 0.00020889
19570.0 0.00020798
19590.0 0.00020707
19610.0 0.00020614
19630.0 0.00020521
19650.0 0.00020427
19670.0 0.00020333
19690.0 0.00020237
19710.0 0.00020141
19730.0 0.00020045
19750.0 0.00019947
19770.0 0.00019849
19790.0 0.0001975
19810.0 0.00019651
19830.0 0.00019551
19850.0 0.00019449
19870.0 0.00019346
19890.0 0.0001924
19910.0 0.00019126
19930.0 0.00019005
19950.0 0.00018871
19970.0 0.00018716
19990.0 0.00018538
20010.0 0.0001834
20030.0 0.00018112
20050.0 0.00017857
20070.0 0.00017587
20090.0 0.00017304
20110.0 0.00016999
20130.0 0.00016694
20150.0 0.00016395
20170.0 0.00016091
20190.0 0.00015787
20210.0 0.00015497
20230.0 0.00015212
20250.0 0.00014926
20270.0 0.00014652
20290.0 0.00014391
20310.0 0.00014135
20330.0 0.00013883
20350.0 0.00013652
20370.0 0.0001343
20390.0 0.00013215
20410.0 0.00013014
20430.0 0.00012828
20450.0 0.00012647
20470.0 0.00012479
20490.0 0.00012325
20510.0 0.00012181
20530.0 0.00012045
20550.0 0.00011921
20570.0 0.00011807
20590.0 0.00011701
20610.0 0.00011602
20630.0 0.00011511
20650.0 0.00011426
20670.0 0.00011346
20690.0 0.00011271
20710.0 0.00011198
20730.0 0.00011129
20750.0 0.0001106
20770.0 0.00010992
20790.0 0.00010923
20810.0 0.00010853
20830.0 0.00010781
20850.0 0.00010706
20870.0 0.00010628
20890.0 0.00010545
20910.0 0.00010459
20930.0 0.00010367
20950.0 0.0001027
20970.0 0.0001017
20990.0 0.00010065
21010.0 9.9531e-05
21030.0 9.8376e-05
21050.0 9.7195e-05
21070.0 9.5969e-05
21090.0 9.469e-05
21110.0 9.341e-05
21130.0 9.2115e-05
21150.0 9.0781e-05
21170.0 8.9441e-05
21190.0 8.8118e-05
21210.0 8.6768e-05
21230.0 8.5406e-05
21250.0 8.4081e-05
21270.0 8.2769e-05
21290.0 8.1449e-05
21310.0 8.0154e-05
21330.0 7.891e-05
21350.0 7.7667e-05
21370.0 7.6444e-05
21390.0 7.5269e-05
21410.0 7.4127e-05
21430.0 7.2987e-05
21450.0 7.19e-05
21470.0 7.0862e-05
21490.0 6.9845e-05
21510.0 6.8859e-05
21530.0 6.7923e-05
21550.0 6.7019e-05
21570.0 6.6134e-05
21590.0 6.529e-05
21610.0 6.4483e-05
21630.0 6.3695e-05
21650.0 6.2927e-05
21670.0 6.2198e-05
21690.0 6.1485e-05
21710.0 6.0785e-05
21730.0 6.0104e-05
21750.0 5.9441e-05
21770.0 5.8779e-05
21790.0 5.8126e-05
21810.0 5.7483e-05
21830.0 5.6843e-05
21850.0 5.6199e-05
21870.0 5.5559e-05
21890.0 5.4922e-05
21910.0 5.4276e-05
21930.0 5.3627e-05
21950.0 5.298e-05
21970.0 5.2327e-05
21990.0 5.1659e-05
22010.0 5.0996e-05
22030.0 5.0331e-05
22050.0 4.9654e-05
22070.0 4.8972e-05
22090.0 4.8297e-05
22110.0 4.7613e-05
22130.0 4.6918e-05
22150.0 4.6228e-05
22170.0 4.554e-05
22190.0 4.4837e-05
22210.0 4.4133e-05
22230.0 4.3442e-05
22250.0 4.2743e-05
22270.0 4.2038e-05
22290.0 4.1342e-05
22310.0 4.0652e-05
22330.0 3.9946e-05
22350.0 3.9247e-05
22370.0 3.856e-05
22390.0 3.7868e-05
22410.0 3.7168e-05
22430.0 3.6488e-05
22450.0 3.5814e-05
22470.0 3.5132e-05
22490.0 3.4458e-05
22510.0 3.3802e-05
22530.0 3.3138e-05
22550.0 3.2476e-05
22570.0 3.1836e-05
22590.0 3.1206e-05
22610.0 3.0575e-05
22630.0 2.9961e-05
22650.0 2.9371e-05
22670.0 2.8785e-05
22690.0 2.8211e-05
22710.0 2.7663e-05
22730.0 2.7132e-05
22750.0 2.6606e-05
22770.0 2.6108e-05
22790.0 2.5635e-05
22810.0 2.5175e-05
22830.0 2.4734e-05
22850.0 2.4319e-05
22870.0 2.3922e-05
22890.0 2.3539e-05
22910.0 2.3179e-05
22930.0 2.2839e-05
22950.0 2.2515e-05
22970.0 2.2207e-05
22990.0 2.192e-05
