#lamb flux
1010.0 4.8865e-08
1030.0 5.5073e-08
1050.0 6.2213e-08
1070.0 7.0252e-08
1090.0 7.9382e-08
1110.0 8.8746e-08
1130.0 9.8171e-08
1150.0 1.0804e-07
1170.0 1.1823e-07
1190.0 1.2789e-07
1210.0 1.3767e-07
1230.0 1.4779e-07
1250.0 1.577e-07
1270.0 1.6732e-07
1290.0 1.7749e-07
1310.0 1.8765e-07
1330.0 1.9739e-07
1350.0 2.0725e-07
1370.0 2.1742e-07
1390.0 2.2734e-07
1410.0 2.3696e-07
1430.0 2.4702e-07
1450.0 2.5707e-07
1470.0 2.6679e-07
1490.0 2.7661e-07
1510.0 2.8699e-07
1530.0 2.9681e-07
1550.0 3.065e-07
1570.0 3.1652e-07
1590.0 3.2655e-07
1610.0 3.3612e-07
1630.0 3.4599e-07
1650.0 3.561e-07
1670.0 3.6588e-07
1690.0 3.7551e-07
1710.0 3.8551e-07
1730.0 3.9555e-07
1750.0 4.0496e-07
1770.0 4.1463e-07
1790.0 4.2448e-07
1810.0 4.3397e-07
1830.0 4.4326e-07
1850.0 4.531e-07
1870.0 4.6262e-07
1890.0 4.7176e-07
1910.0 4.8103e-07
1930.0 4.9046e-07
1950.0 4.9936e-07
1970.0 5.0805e-07
1990.0 5.17e-07
2010.0 5.2568e-07
2030.0 5.3388e-07
2050.0 5.4223e-07
2070.0 5.5066e-07
2090.0 5.5837e-07
2110.0 5.6587e-07
2130.0 5.7344e-07
2150.0 5.8061e-07
2170.0 5.8714e-07
2190.0 5.9376e-07
2210.0 6.0017e-07
2230.0 6.0591e-07
2250.0 6.1132e-07
2270.0 6.168e-07
2290.0 6.2165e-07
2310.0 6.2579e-07
2330.0 6.2984e-07
2350.0 6.336e-07
2370.0 6.3665e-07
2390.0 6.395e-07
2410.0 6.4258e-07
2430.0 6.4535e-07
2450.0 6.4809e-07
2470.0 6.5159e-07
2490.0 6.5622e-07
2510.0 6.6167e-07
2530.0 6.702e-07
2550.0 6.8505e-07
2570.0 7.0925e-07
2590.0 7.4689e-07
2610.0 8.0944e-07
2630.0 8.9956e-07
2650.0 1.0121e-06
2670.0 1.1482e-06
2690.0 1.3019e-06
2710.0 1.4499e-06
2730.0 1.5804e-06
2750.0 1.6948e-06
2770.0 1.7802e-06
2790.0 1.8356e-06
2810.0 1.8699e-06
2830.0 1.8896e-06
2850.0 1.8946e-06
2870.0 1.8925e-06
2890.0 1.8876e-06
2910.0 1.8805e-06
2930.0 1.8712e-06
2950.0 1.8625e-06
2970.0 1.8542e-06
2990.0 1.8454e-06
3010.0 3.8188e-05
3030.0 3.799e-05
3050.0 3.7794e-05
3070.0 3.7565e-05
3090.0 3.7322e-05
3110.0 3.7027e-05
3130.0 3.6633e-05
3150.0 3.6119e-05
3170.0 3.5444e-05
3190.0 3.4626e-05
3210.0 3.3734e-05
3230.0 3.2839e-05
3250.0 3.2095e-05
3270.0 3.1603e-05
3290.0 3.149e-05
3310.0 3.1735e-05
3330.0 3.2413e-05
3350.0 3.3419e-05
3370.0 3.4776e-05
3390.0 3.6441e-05
3410.0 3.8232e-05
3430.0 4.0236e-05
3450.0 4.2529e-05
3470.0 4.5009e-05
3490.0 4.7609e-05
3510.0 5.0513e-05
3530.0 5.3592e-05
3550.0 5.6672e-05
3570.0 5.9882e-05
3590.0 6.3455e-05
3610.0 6.7133e-05
3630.0 7.1003e-05
3650.0 7.5028e-05
3670.0 7.8811e-05
3690.0 8.1766e-05
3710.0 8.3607e-05
3730.0 8.3966e-05
3750.0 8.2836e-05
3770.0 7.6207e-05
3790.0 6.8759e-05
3810.0 6.3749e-05
3830.0 5.5677e-05
3850.0 4.143e-05
3870.0 2.9454e-05
3890.0 4.9244e-05
3910.0 8.0085e-05
3930.0 9.6856e-05
3950.0 9.5169e-05
3970.0 9.7277e-05
3990.0 0.00011426
4010.0 0.00014677
4030.0 0.00014854
4050.0 0.00013165
4070.0 0.00011668
4090.0 0.00011031
4110.0 0.00013297
4130.0 0.00013898
4150.0 0.00013563
4170.0 0.00013754
4190.0 0.00014022
4210.0 0.00013841
4230.0 0.00015288
4250.0 0.0001671
4270.0 0.00016951
4290.0 0.00017162
4310.0 0.00017602
4330.0 0.00019408
4350.0 0.00022382
4370.0 0.00025412
4390.0 0.00024123
4410.0 0.00019754
4430.0 0.00016577
4450.0 0.00014199
4470.0 0.00013783
4490.0 0.00015143
4510.0 0.00016987
4530.0 0.00018769
4550.0 0.0002174
4570.0 0.00025724
4590.0 0.00031186
4610.0 0.00040049
4630.0 0.00048655
4650.0 0.0005003
4670.0 0.00048307
4690.0 0.00051483
4710.0 0.00054366
4730.0 0.00046111
4750.0 0.00032947
4770.0 0.00026843
4790.0 0.00025941
4810.0 0.00024121
4830.0 0.00022762
4850.0 0.00026067
4870.0 0.00033645
4890.0 0.00038671
4910.0 0.0003281
4930.0 0.00029034
4950.0 0.00032505
4970.0 0.00043567
4990.0 0.00056519
5010.0 0.00060128
5030.0 0.00049738
5050.0 0.00032108
5070.0 0.00022061
5090.0 0.00019578
5110.0 0.0002046
5130.0 0.00022027
5150.0 0.0002314
5170.0 0.00023113
5190.0 0.00022623
5210.0 0.00021912
5230.0 0.00022462
5250.0 0.00024012
5270.0 0.0002764
5290.0 0.00031899
5310.0 0.00035157
5330.0 0.00036081
5350.0 0.00036369
5370.0 0.00039538
5390.0 0.00042738
5410.0 0.00041582
5430.0 0.00035951
5450.0 0.00033073
5470.0 0.00037062
5490.0 0.00047555
5510.0 0.00060775
5530.0 0.00067592
5550.0 0.00065567
5570.0 0.00059447
5590.0 0.00053036
5610.0 0.00049018
5630.0 0.00046558
5650.0 0.00047628
5670.0 0.00046514
5690.0 0.00043183
5710.0 0.0004091
5730.0 0.00037135
5750.0 0.00026676
5770.0 0.00023167
5790.0 0.00026067
5810.0 0.00031517
5830.0 0.00035895
5850.0 0.00039391
5870.0 0.00040571
5890.0 0.0003921
5910.0 0.0003755
5930.0 0.00037665
5950.0 0.00039469
5970.0 0.0004208
5990.0 0.00039875
6010.0 0.00033556
6030.0 0.00027872
6050.0 0.00024188
6070.0 0.00024041
6090.0 0.00027099
6110.0 0.00029768
6130.0 0.0002869
6150.0 0.00026455
6170.0 0.00028764
6190.0 0.00034673
6210.0 0.00042298
6230.0 0.00048734
6250.0 0.0004886
6270.0 0.00043746
6290.0 0.00036232
6310.0 0.0002879
6330.0 0.00022888
6350.0 0.00020606
6370.0 0.00022295
6390.0 0.00026362
6410.0 0.00030448
6430.0 0.00035301
6450.0 0.00041083
6470.0 0.00050236
6490.0 0.00061851
6510.0 0.00068416
6530.0 0.00063624
6550.0 0.00058413
6570.0 0.00056731
6590.0 0.00054529
6610.0 0.00048691
6630.0 0.0004384
6650.0 0.00040343
6670.0 0.00041812
6690.0 0.0004129
6710.0 0.0003668
6730.0 0.00033332
6750.0 0.00029868
6770.0 0.00028997
6790.0 0.00031944
6810.0 0.00032875
6830.0 0.00033754
6850.0 0.00033058
6870.0 0.00031637
6890.0 0.00030881
6910.0 0.00029722
6930.0 0.00027919
6950.0 0.00028398
6970.0 0.00028819
6990.0 0.00032183
7010.0 0.00034295
7030.0 0.00031419
7050.0 0.00029464
7070.0 0.00028599
7090.0 0.0002618
7110.0 0.00024532
7130.0 0.00025064
7150.0 0.00026307
7170.0 0.00027911
7190.0 0.00028107
7210.0 0.00027886
7230.0 0.00029042
7250.0 0.00033284
7270.0 0.00038943
7290.0 0.00042226
7310.0 0.00041253
7330.0 0.00036712
7350.0 0.00032894
7370.0 0.00031721
7390.0 0.00031998
7410.0 0.00033438
7430.0 0.00036546
7450.0 0.00039573
7470.0 0.00043488
7490.0 0.00048166
7510.0 0.00046814
7530.0 0.00044313
7550.0 0.00036999
7570.0 0.00030258
7590.0 0.00024005
7610.0 0.00021778
7630.0 0.00022948
7650.0 0.0002626
7670.0 0.0002909
7690.0 0.00032925
7710.0 0.00036204
7730.0 0.00037576
7750.0 0.00038033
7770.0 0.00037827
7790.0 0.00036877
7810.0 0.00037873
7830.0 0.00036732
7850.0 0.00032797
7870.0 0.00029533
7890.0 0.00027197
7910.0 0.00024131
7930.0 0.00020697
7950.0 0.00018861
7970.0 0.00018672
7990.0 0.00019453
8010.0 0.00020626
8030.0 0.00020832
8050.0 0.00020815
8070.0 0.0002028
8090.0 0.00020389
8110.0 0.00019297
8130.0 0.00017573
8150.0 0.00016489
8170.0 0.00015755
8190.0 0.00015928
8210.0 0.0001632
8230.0 0.000172
8250.0 0.00016729
8270.0 0.00014955
8290.0 0.00011733
8310.0 7.9783e-05
8330.0 5.2219e-05
8350.0 3.741e-05
8370.0 4.3203e-05
8390.0 4.848e-05
8410.0 6.1976e-05
8430.0 7.5315e-05
8450.0 8.277e-05
8470.0 8.7853e-05
8490.0 8.8652e-05
8510.0 9.1332e-05
8530.0 9.9807e-05
8550.0 0.00011313
8570.0 0.0001351
8590.0 0.00016244
8610.0 0.0001923
8630.0 0.00022426
8650.0 0.00024726
8670.0 0.00024588
8690.0 0.00023455
8710.0 0.00022085
8730.0 0.00020953
8750.0 0.00019795
8770.0 0.00019136
8790.0 0.00018707
8810.0 0.00017569
8830.0 0.00015443
8850.0 0.00013163
8870.0 0.00011116
8890.0 0.00010283
8910.0 0.00010613
8930.0 0.00010851
8950.0 0.00011997
8970.0 0.00012256
8990.0 0.00012508
9010.0 0.00012647
9030.0 0.00012694
9050.0 0.00012773
9070.0 0.00012833
9090.0 0.00012878
9110.0 0.0001291
9130.0 0.00012945
9150.0 0.00012984
9170.0 0.00013025
9190.0 0.00013067
9210.0 0.00013117
9230.0 0.00013164
9250.0 0.00013216
9270.0 0.00013271
9290.0 0.00013328
9310.0 0.00013389
9330.0 0.00013453
9350.0 0.00013519
9370.0 0.00013588
9390.0 0.00013661
9410.0 0.00013736
9430.0 0.00013812
9450.0 0.00013894
9470.0 0.00013977
9490.0 0.00014062
9510.0 0.00014151
9530.0 0.00014242
9550.0 0.00014335
9570.0 0.0001443
9590.0 0.00014528
9610.0 0.00014629
9630.0 0.0001473
9650.0 0.00014835
9670.0 0.00014942
9690.0 0.00015051
9710.0 0.00015161
9730.0 0.00015274
9750.0 0.00015388
9770.0 0.00015503
9790.0 0.0001562
9810.0 0.0001574
9830.0 0.0001586
9850.0 0.00015981
9870.0 0.00016105
9890.0 0.00016229
9910.0 0.00016354
9930.0 0.0001648
9950.0 0.00016607
9970.0 0.00016734
9990.0 0.00016862
10010.0 0.00016426
10030.0 0.00016549
10050.0 0.0001667
10070.0 0.00016791
10090.0 0.00016916
10110.0 0.00017039
10130.0 0.00017161
10150.0 0.00017285
10170.0 0.00017407
10190.0 0.00017527
10210.0 0.00017649
10230.0 0.0001777
10250.0 0.00017888
10270.0 0.00018006
10290.0 0.00018125
10310.0 0.0001824
10330.0 0.00018353
10350.0 0.00018466
10370.0 0.00018579
10390.0 0.00018687
10410.0 0.00018794
10430.0 0.00018902
10450.0 0.00019005
10470.0 0.00019106
10490.0 0.00019206
10510.0 0.00019304
10530.0 0.00019396
10550.0 0.00019487
10570.0 0.00019577
10590.0 0.00019663
10610.0 0.00019746
10630.0 0.00019827
10650.0 0.00019905
10670.0 0.00019977
10690.0 0.00020048
10710.0 0.00020116
10730.0 0.0002018
10750.0 0.00020238
10770.0 0.00020297
10790.0 0.0002035
10810.0 0.00020399
10830.0 0.00020443
10850.0 0.00020485
10870.0 0.00020515
10890.0 0.00020534
10910.0 0.00020537
10930.0 0.00020514
10950.0 0.00020446
10970.0 0.00020327
10990.0 0.00020154
11010.0 0.00019446
11030.0 0.0001912
11050.0 0.00018737
11070.0 0.00018287
11090.0 0.00017749
11110.0 0.00017197
11130.0 0.00016624
11150.0 0.0001601
11170.0 0.00015383
11190.0 0.00014784
11210.0 0.00014177
11230.0 0.00013569
11250.0 0.00013004
11270.0 0.00012477
11290.0 0.00011966
11310.0 0.00011497
11330.0 0.00011098
11350.0 0.0001073
11370.0 0.00010396
11390.0 0.00010111
11410.0 9.8611e-05
11430.0 9.6233e-05
11450.0 9.4087e-05
11470.0 9.2105e-05
11490.0 9.0108e-05
11510.0 8.8012e-05
11530.0 8.5914e-05
11550.0 8.3714e-05
11570.0 8.1284e-05
11590.0 7.8728e-05
11610.0 7.6128e-05
11630.0 7.333e-05
11650.0 7.0396e-05
11670.0 6.7571e-05
11690.0 6.4778e-05
11710.0 6.1975e-05
11730.0 5.933e-05
11750.0 5.694e-05
11770.0 5.4649e-05
11790.0 5.2546e-05
11810.0 5.0719e-05
11830.0 4.9099e-05
11850.0 4.7606e-05
11870.0 4.6336e-05
11890.0 4.5243e-05
11910.0 4.4231e-05
11930.0 4.3292e-05
11950.0 4.243e-05
11970.0 4.1578e-05
11990.0 4.0689e-05
12010.0 3.9793e-05
12030.0 3.8879e-05
12050.0 3.7901e-05
12070.0 3.6869e-05
12090.0 3.5871e-05
12110.0 3.486e-05
12130.0 3.3847e-05
12150.0 3.2904e-05
12170.0 3.2059e-05
12190.0 3.128e-05
12210.0 3.0649e-05
12230.0 3.0191e-05
12250.0 2.9899e-05
12270.0 2.9798e-05
12290.0 2.9891e-05
12310.0 3.0156e-05
12330.0 3.0623e-05
12350.0 3.1262e-05
12370.0 3.2019e-05
12390.0 3.2909e-05
12410.0 3.396e-05
12430.0 3.5013e-05
12450.0 3.6083e-05
12470.0 3.7197e-05
12490.0 3.828e-05
12510.0 3.925e-05
12530.0 4.0174e-05
12550.0 4.1014e-05
12570.0 4.1694e-05
12590.0 4.223e-05
12610.0 4.2644e-05
12630.0 4.2893e-05
12650.0 4.2969e-05
12670.0 4.2908e-05
12690.0 4.2703e-05
12710.0 4.2367e-05
12730.0 4.192e-05
12750.0 4.135e-05
12770.0 4.0692e-05
12790.0 3.9972e-05
12810.0 3.9176e-05
12830.0 3.8307e-05
12850.0 3.7426e-05
12870.0 3.6513e-05
12890.0 3.5542e-05
12910.0 3.4556e-05
12930.0 3.3575e-05
12950.0 3.2543e-05
12970.0 3.1475e-05
12990.0 3.0438e-05
13010.0 2.9392e-05
13030.0 2.8312e-05
13050.0 2.725e-05
13070.0 2.6234e-05
13090.0 2.5201e-05
13110.0 2.4191e-05
13130.0 2.3251e-05
13150.0 2.2361e-05
13170.0 2.1496e-05
13190.0 2.0735e-05
13210.0 2.0075e-05
13230.0 1.949e-05
13250.0 1.9005e-05
13270.0 1.8641e-05
13290.0 1.8379e-05
13310.0 1.8227e-05
13330.0 1.819e-05
13350.0 1.8255e-05
13370.0 1.8423e-05
13390.0 1.8691e-05
13410.0 1.9015e-05
13430.0 1.9407e-05
13450.0 1.9864e-05
13470.0 2.0342e-05
13490.0 2.0822e-05
13510.0 2.1342e-05
13530.0 2.1844e-05
13550.0 2.2302e-05
13570.0 2.2734e-05
13590.0 2.3138e-05
13610.0 2.3478e-05
13630.0 2.3755e-05
13650.0 2.3993e-05
13670.0 2.417e-05
13690.0 2.4283e-05
13710.0 2.4346e-05
13730.0 2.436e-05
13750.0 2.4318e-05
13770.0 2.4234e-05
13790.0 2.4108e-05
13810.0 2.3943e-05
13830.0 2.375e-05
13850.0 2.3524e-05
13870.0 2.3265e-05
13890.0 2.2987e-05
13910.0 2.2691e-05
13930.0 2.2365e-05
13950.0 2.2022e-05
13970.0 2.1683e-05
13990.0 2.1324e-05
14010.0 2.0955e-05
14030.0 2.0596e-05
14050.0 2.0244e-05
14070.0 1.9883e-05
14090.0 1.9546e-05
14110.0 1.9237e-05
14130.0 1.8948e-05
14150.0 1.8685e-05
14170.0 1.8469e-05
14190.0 1.8291e-05
14210.0 1.8152e-05
14230.0 1.806e-05
14250.0 1.8015e-05
14270.0 1.8017e-05
14290.0 1.8069e-05
14310.0 1.8161e-05
14330.0 1.8294e-05
14350.0 1.847e-05
14370.0 1.8676e-05
14390.0 1.89e-05
14410.0 1.9158e-05
14430.0 1.9436e-05
14450.0 1.9718e-05
14470.0 2.0011e-05
14490.0 2.0329e-05
14510.0 2.0642e-05
14530.0 2.0954e-05
14550.0 2.1288e-05
14570.0 2.1638e-05
14590.0 2.1993e-05
14610.0 2.2378e-05
14630.0 2.281e-05
14650.0 2.3266e-05
14670.0 2.3753e-05
14690.0 2.4304e-05
14710.0 2.4913e-05
14730.0 2.5533e-05
14750.0 2.6211e-05
14770.0 2.6951e-05
14790.0 2.7706e-05
14810.0 2.8468e-05
14830.0 2.9296e-05
14850.0 3.0115e-05
14870.0 3.0893e-05
14890.0 3.1658e-05
14910.0 3.2399e-05
14930.0 3.3052e-05
14950.0 3.3617e-05
14970.0 3.4113e-05
14990.0 3.4498e-05
15010.0 3.4771e-05
15030.0 3.4954e-05
15050.0 3.5055e-05
15070.0 3.5087e-05
15090.0 3.5075e-05
15110.0 3.5031e-05
15130.0 3.4971e-05
15150.0 3.4904e-05
15170.0 3.483e-05
15190.0 3.4753e-05
15210.0 3.4678e-05
15230.0 3.4604e-05
15250.0 3.4527e-05
15270.0 3.4451e-05
15290.0 3.438e-05
15310.0 3.4306e-05
15330.0 3.4231e-05
15350.0 3.416e-05
15370.0 3.409e-05
15390.0 3.4014e-05
15410.0 3.3942e-05
15430.0 3.3872e-05
15450.0 3.38e-05
15470.0 3.3727e-05
15490.0 3.3657e-05
15510.0 3.3588e-05
15530.0 3.3515e-05
15550.0 3.3445e-05
15570.0 3.3377e-05
15590.0 3.3304e-05
15610.0 3.3231e-05
15630.0 3.3162e-05
15650.0 3.3092e-05
15670.0 3.3019e-05
15690.0 3.2948e-05
15710.0 3.288e-05
15730.0 3.2808e-05
15750.0 3.2735e-05
15770.0 3.2665e-05
15790.0 3.2594e-05
15810.0 3.2518e-05
15830.0 3.2446e-05
15850.0 3.2376e-05
15870.0 3.2302e-05
15890.0 3.2228e-05
15910.0 3.2157e-05
15930.0 3.2084e-05
15950.0 3.2007e-05
15970.0 3.1932e-05
15990.0 3.1859e-05
16010.0 3.1782e-05
16030.0 3.1704e-05
16050.0 3.1631e-05
16070.0 3.1555e-05
16090.0 3.1476e-05
16110.0 3.1399e-05
16130.0 3.1323e-05
16150.0 3.1241e-05
16170.0 3.1161e-05
16190.0 3.1083e-05
16210.0 3.1003e-05
16230.0 3.092e-05
16250.0 3.0839e-05
16270.0 3.076e-05
16290.0 3.0675e-05
16310.0 3.0591e-05
16330.0 3.051e-05
16350.0 3.0426e-05
16370.0 3.0336e-05
16390.0 3.0252e-05
16410.0 3.0168e-05
16430.0 3.0079e-05
16450.0 2.9991e-05
16470.0 2.9907e-05
16490.0 2.9817e-05
16510.0 2.9725e-05
16530.0 2.9636e-05
16550.0 2.9547e-05
16570.0 2.9453e-05
16590.0 2.9359e-05
16610.0 2.927e-05
16630.0 2.9176e-05
16650.0 2.9081e-05
16670.0 2.8988e-05
16690.0 2.8894e-05
16710.0 2.8794e-05
16730.0 2.8698e-05
16750.0 2.8602e-05
16770.0 2.8504e-05
16790.0 2.8402e-05
16810.0 2.8305e-05
16830.0 2.8207e-05
16850.0 2.8104e-05
16870.0 2.8003e-05
16890.0 2.7904e-05
16910.0 2.78e-05
16930.0 2.7694e-05
16950.0 2.7592e-05
16970.0 2.7489e-05
16990.0 2.7382e-05
17010.0 2.7277e-05
17030.0 2.7173e-05
17050.0 2.7065e-05
17070.0 2.6956e-05
17090.0 2.685e-05
17110.0 2.6742e-05
17130.0 2.663e-05
17150.0 2.652e-05
17170.0 2.6413e-05
17190.0 2.6301e-05
17210.0 2.6189e-05
17230.0 2.608e-05
17250.0 2.5968e-05
17270.0 2.5852e-05
17290.0 2.5739e-05
17310.0 2.5627e-05
17330.0 2.5511e-05
17350.0 2.5394e-05
17370.0 2.5282e-05
17390.0 2.5167e-05
17410.0 2.5049e-05
17430.0 2.4934e-05
17450.0 2.482e-05
17470.0 2.4699e-05
17490.0 2.458e-05
17510.0 2.4464e-05
17530.0 2.4346e-05
17550.0 2.4225e-05
17570.0 2.4107e-05
17590.0 2.399e-05
17610.0 2.3868e-05
17630.0 2.3748e-05
17650.0 2.363e-05
17670.0 2.3509e-05
17690.0 2.3384e-05
17710.0 2.3264e-05
17730.0 2.3145e-05
17750.0 2.3021e-05
17770.0 2.2899e-05
17790.0 2.278e-05
17810.0 2.2656e-05
17830.0 2.2532e-05
17850.0 2.241e-05
17870.0 2.2289e-05
17890.0 2.2163e-05
17910.0 2.2039e-05
17930.0 2.1918e-05
17950.0 2.1794e-05
17970.0 2.1669e-05
17990.0 2.1547e-05
18010.0 2.1425e-05
18030.0 2.1298e-05
18050.0 2.1174e-05
18070.0 2.1052e-05
18090.0 2.0927e-05
18110.0 2.08e-05
18130.0 2.0678e-05
18150.0 2.0556e-05
18170.0 2.0429e-05
18190.0 2.0305e-05
18210.0 2.0184e-05
18230.0 2.0058e-05
18250.0 1.9931e-05
18270.0 1.9809e-05
18290.0 1.9686e-05
18310.0 1.956e-05
18330.0 1.9437e-05
18350.0 1.9316e-05
18370.0 1.919e-05
18390.0 1.9065e-05
18410.0 1.8944e-05
18430.0 1.8821e-05
18450.0 1.8694e-05
18470.0 1.8572e-05
18490.0 1.8451e-05
18510.0 1.8327e-05
18530.0 1.8204e-05
18550.0 1.8084e-05
18570.0 1.7962e-05
18590.0 1.7837e-05
18610.0 1.7716e-05
18630.0 1.7596e-05
18650.0 1.7473e-05
18670.0 1.735e-05
18690.0 1.7232e-05
18710.0 1.7111e-05
18730.0 1.6989e-05
18750.0 1.687e-05
18770.0 1.6752e-05
18790.0 1.6629e-05
18810.0 1.6508e-05
18830.0 1.6391e-05
18850.0 1.6272e-05
18870.0 1.6152e-05
18890.0 1.6035e-05
18910.0 1.5919e-05
18930.0 1.5799e-05
18950.0 1.5681e-05
18970.0 1.5566e-05
18990.0 1.5449e-05
19010.0 1.5329e-05
19030.0 1.5215e-05
19050.0 1.51e-05
19070.0 1.4983e-05
19090.0 1.4868e-05
19110.0 1.4756e-05
19130.0 1.464e-05
19150.0 1.4524e-05
19170.0 1.4412e-05
19190.0 1.4299e-05
19210.0 1.4184e-05
19230.0 1.4071e-05
19250.0 1.3961e-05
19270.0 1.3849e-05
19290.0 1.3736e-05
19310.0 1.3627e-05
19330.0 1.3517e-05
19350.0 1.3403e-05
19370.0 1.3294e-05
19390.0 1.3186e-05
19410.0 1.3076e-05
19430.0 1.2965e-05
19450.0 1.2859e-05
19470.0 1.2752e-05
19490.0 1.2642e-05
19510.0 1.2535e-05
19530.0 1.2431e-05
19550.0 1.2322e-05
19570.0 1.2214e-05
19590.0 1.2111e-05
19610.0 1.2006e-05
19630.0 1.1899e-05
19650.0 1.1796e-05
19670.0 1.1694e-05
19690.0 1.1589e-05
19710.0 1.1484e-05
19730.0 1.1383e-05
19750.0 1.1281e-05
19770.0 1.1176e-05
19790.0 1.1075e-05
19810.0 1.0976e-05
19830.0 1.0874e-05
19850.0 1.0772e-05
19870.0 1.0673e-05
19890.0 1.0569e-05
19910.0 1.046e-05
19930.0 1.0349e-05
19950.0 1.023e-05
19970.0 1.0095e-05
19990.0 9.9444e-06
20010.0 9.9773e-06
20030.0 9.7912e-06
20050.0 9.585e-06
20070.0 9.3714e-06
20090.0 9.1507e-06
20110.0 8.9116e-06
20130.0 8.6779e-06
20150.0 8.4534e-06
20170.0 8.2278e-06
20190.0 8.0058e-06
20210.0 7.8008e-06
20230.0 7.6053e-06
20250.0 7.4138e-06
20270.0 7.2391e-06
20290.0 7.0819e-06
20310.0 6.9352e-06
20330.0 6.8007e-06
20350.0 6.6905e-06
20370.0 6.5949e-06
20390.0 6.5138e-06
20410.0 6.4511e-06
20430.0 6.4057e-06
20450.0 6.3747e-06
20470.0 6.3601e-06
20490.0 6.3601e-06
20510.0 6.3734e-06
20530.0 6.4006e-06
20550.0 6.4386e-06
20570.0 6.4843e-06
20590.0 6.5409e-06
20610.0 6.6054e-06
20630.0 6.6732e-06
20650.0 6.7466e-06
20670.0 6.8284e-06
20690.0 6.9092e-06
20710.0 6.9903e-06
20730.0 7.0759e-06
20750.0 7.1629e-06
20770.0 7.2459e-06
20790.0 7.3313e-06
20810.0 7.42e-06
20830.0 7.5063e-06
20850.0 7.5917e-06
20870.0 7.6825e-06
20890.0 7.7745e-06
20910.0 7.8628e-06
20930.0 7.9546e-06
20950.0 8.0505e-06
20970.0 8.1443e-06
20990.0 8.2374e-06
21010.0 8.3366e-06
21030.0 8.4342e-06
21050.0 8.5276e-06
21070.0 8.6217e-06
21090.0 8.717e-06
21110.0 8.8039e-06
21130.0 8.8859e-06
21150.0 8.9664e-06
21170.0 9.0401e-06
21190.0 9.1045e-06
21210.0 9.1646e-06
21230.0 9.2177e-06
21250.0 9.2594e-06
21270.0 9.2919e-06
21290.0 9.3157e-06
21310.0 9.328e-06
21330.0 9.3286e-06
21350.0 9.318e-06
21370.0 9.2944e-06
21390.0 9.2584e-06
21410.0 9.2099e-06
21430.0 9.1444e-06
21450.0 9.0665e-06
21470.0 8.9777e-06
21490.0 8.8737e-06
21510.0 8.7556e-06
21530.0 8.6311e-06
21550.0 8.4967e-06
21570.0 8.3487e-06
21590.0 8.198e-06
21610.0 8.0472e-06
21630.0 7.8906e-06
21650.0 7.7311e-06
21670.0 7.5857e-06
21690.0 7.4443e-06
21710.0 7.3082e-06
21730.0 7.1864e-06
21750.0 7.0807e-06
21770.0 6.9844e-06
21790.0 6.9062e-06
21810.0 6.8479e-06
21830.0 6.807e-06
21850.0 6.7843e-06
21870.0 6.7813e-06
21890.0 6.7956e-06
21910.0 6.8286e-06
21930.0 6.8791e-06
21950.0 6.9434e-06
21970.0 7.0232e-06
21990.0 7.1219e-06
22010.0 7.2284e-06
22030.0 7.3437e-06
22050.0 7.4724e-06
22070.0 7.6093e-06
22090.0 7.7455e-06
22110.0 7.8895e-06
22130.0 8.0399e-06
22150.0 8.1864e-06
22170.0 8.3297e-06
22190.0 8.4768e-06
22210.0 8.6181e-06
22230.0 8.7457e-06
22250.0 8.8685e-06
22270.0 8.9834e-06
22290.0 9.0828e-06
22310.0 9.1685e-06
22330.0 9.2438e-06
22350.0 9.3013e-06
22370.0 9.3407e-06
22390.0 9.3636e-06
22410.0 9.3679e-06
22430.0 9.3531e-06
22450.0 9.3205e-06
22470.0 9.2676e-06
22490.0 9.1961e-06
22510.0 9.1096e-06
22530.0 9.0015e-06
22550.0 8.8729e-06
22570.0 8.733e-06
22590.0 8.578e-06
22610.0 8.4023e-06
22630.0 8.2147e-06
