#lamb flux
1010.0 5.9424e-08
1030.0 6.5723e-08
1050.0 7.2968e-08
1070.0 8.1125e-08
1090.0 9.0389e-08
1110.0 9.9891e-08
1130.0 1.0945e-07
1150.0 1.1947e-07
1170.0 1.2981e-07
1190.0 1.396e-07
1210.0 1.4954e-07
1230.0 1.598e-07
1250.0 1.6985e-07
1270.0 1.7962e-07
1290.0 1.8993e-07
1310.0 2.0024e-07
1330.0 2.1013e-07
1350.0 2.2013e-07
1370.0 2.3045e-07
1390.0 2.4052e-07
1410.0 2.5029e-07
1430.0 2.605e-07
1450.0 2.7071e-07
1470.0 2.8057e-07
1490.0 2.9055e-07
1510.0 3.0109e-07
1530.0 3.1107e-07
1550.0 3.2092e-07
1570.0 3.3112e-07
1590.0 3.4133e-07
1610.0 3.5108e-07
1630.0 3.6114e-07
1650.0 3.7147e-07
1670.0 3.8147e-07
1690.0 3.9135e-07
1710.0 4.0161e-07
1730.0 4.1194e-07
1750.0 4.2166e-07
1770.0 4.3168e-07
1790.0 4.4191e-07
1810.0 4.5183e-07
1830.0 4.6159e-07
1850.0 4.7196e-07
1870.0 4.8208e-07
1890.0 4.9188e-07
1910.0 5.0189e-07
1930.0 5.1216e-07
1950.0 5.2199e-07
1970.0 5.3172e-07
1990.0 5.4185e-07
2010.0 5.5183e-07
2030.0 5.6147e-07
2050.0 5.7143e-07
2070.0 5.8167e-07
2090.0 5.9134e-07
2110.0 6.0101e-07
2130.0 6.1099e-07
2150.0 6.208e-07
2170.0 6.3021e-07
2190.0 6.3999e-07
2210.0 6.4984e-07
2230.0 6.5931e-07
2250.0 6.6875e-07
2270.0 6.7864e-07
2290.0 6.8822e-07
2310.0 6.9744e-07
2330.0 7.0703e-07
2350.0 7.1687e-07
2370.0 7.2668e-07
2390.0 7.373e-07
2410.0 7.4988e-07
2430.0 7.6435e-07
2450.0 7.8164e-07
2470.0 8.0381e-07
2490.0 8.3174e-07
2510.0 8.6349e-07
2530.0 9.0171e-07
2550.0 9.4955e-07
2570.0 1.0091e-06
2590.0 1.0865e-06
2610.0 1.2024e-06
2630.0 1.3679e-06
2650.0 1.5843e-06
2670.0 1.864e-06
2690.0 2.2078e-06
2710.0 2.5748e-06
2730.0 2.9374e-06
2750.0 3.2946e-06
2770.0 3.6053e-06
2790.0 3.852e-06
2810.0 4.0478e-06
2830.0 4.2007e-06
2850.0 4.3051e-06
2870.0 4.3818e-06
2890.0 4.4425e-06
2910.0 4.4909e-06
2930.0 4.5305e-06
2950.0 4.5682e-06
2970.0 4.6052e-06
2990.0 4.6398e-06
3010.0 0.00013115
3030.0 0.00013213
3050.0 0.00013307
3070.0 0.00013389
3090.0 0.00013458
3110.0 0.00013502
3130.0 0.000135
3150.0 0.0001344
3170.0 0.00013296
3190.0 0.0001307
3210.0 0.00012783
3230.0 0.00012455
3250.0 0.00012131
3270.0 0.00011895
3290.0 0.00011763
3310.0 0.00011784
3330.0 0.00011955
3350.0 0.00012252
3370.0 0.00012676
3390.0 0.00013211
3410.0 0.00013792
3430.0 0.00014445
3450.0 0.00015197
3470.0 0.00016018
3490.0 0.00016888
3510.0 0.00017871
3530.0 0.00018924
3550.0 0.0001999
3570.0 0.00021102
3590.0 0.00022312
3610.0 0.00023558
3630.0 0.000248
3650.0 0.00026089
3670.0 0.00027266
3690.0 0.00028146
3710.0 0.0002865
3730.0 0.00028667
3750.0 0.00028268
3770.0 0.00028111
3790.0 0.00027944
3810.0 0.00027257
3830.0 0.00028101
3850.0 0.0003142
3870.0 0.00033242
3890.0 0.0003309
3910.0 0.00033231
3930.0 0.00034106
3950.0 0.00034645
3970.0 0.00031564
3990.0 0.0002716
4010.0 0.00081402
4030.0 0.0009863
4050.0 0.0011307
4070.0 0.0009811
4090.0 0.00088858
4110.0 0.00078408
4130.0 0.00072167
4150.0 0.00076764
4170.0 0.00075615
4190.0 0.00080601
4210.0 0.00079863
4230.0 0.00084474
4250.0 0.00099935
4270.0 0.0010111
4290.0 0.00093172
4310.0 0.00096812
4330.0 0.0010298
4350.0 0.0011546
4370.0 0.001314
4390.0 0.0012331
4410.0 0.00091102
4430.0 0.00077123
4450.0 0.00070867
4470.0 0.00054393
4490.0 0.00058697
4510.0 0.00088663
4530.0 0.0010225
4550.0 0.0010314
4570.0 0.0011606
4590.0 0.001322
4610.0 0.0017831
4630.0 0.0023159
4650.0 0.0025116
4670.0 0.002326
4690.0 0.0022194
4710.0 0.002346
4730.0 0.002214
4750.0 0.0016552
4770.0 0.0012142
4790.0 0.0011338
4810.0 0.0010807
4830.0 0.00098937
4850.0 0.0010857
4870.0 0.0014343
4890.0 0.0016914
4910.0 0.001484
4930.0 0.0013131
4950.0 0.0014427
4970.0 0.0018501
4990.0 0.0025074
5010.0 0.0028844
5030.0 0.0025434
5050.0 0.0017208
5070.0 0.001134
5090.0 0.00091444
5110.0 0.00094042
5130.0 0.0010854
5150.0 0.0011759
5170.0 0.0011583
5190.0 0.0010823
5210.0 0.0011313
5230.0 0.0011892
5250.0 0.0012817
5270.0 0.0013828
5290.0 0.0015324
5310.0 0.0017837
5330.0 0.0019738
5350.0 0.0019612
5370.0 0.0020601
5390.0 0.0023639
5410.0 0.0023618
5430.0 0.0020887
5450.0 0.001919
5470.0 0.0020376
5490.0 0.0024894
5510.0 0.0031125
5530.0 0.0035699
5550.0 0.0034503
5570.0 0.0031366
5590.0 0.0027273
5610.0 0.0025151
5630.0 0.0024389
5650.0 0.0023228
5670.0 0.002201
5690.0 0.0019677
5710.0 0.0019185
5730.0 0.0017672
5750.0 0.001246
5770.0 0.00097206
5790.0 0.0011015
5810.0 0.0012438
5830.0 0.0015263
5850.0 0.0018169
5870.0 0.0020159
5890.0 0.00205
5910.0 0.0020112
5930.0 0.0019144
5950.0 0.0019507
5970.0 0.0022236
5990.0 0.0020908
6010.0 0.0017527
6030.0 0.0014807
6050.0 0.0012895
6070.0 0.0012825
6090.0 0.0013907
6110.0 0.001555
6130.0 0.0015788
6150.0 0.0013584
6170.0 0.001195
6190.0 0.0013448
6210.0 0.0017778
6230.0 0.002333
6250.0 0.0025269
6270.0 0.0022082
6290.0 0.0018579
6310.0 0.0014504
6330.0 0.0011113
6350.0 0.00099122
6370.0 0.0010424
6390.0 0.001205
6410.0 0.0014859
6430.0 0.0017351
6450.0 0.0019854
6470.0 0.0022733
6490.0 0.002746
6510.0 0.0030704
6530.0 0.0030123
6550.0 0.0027239
6570.0 0.0023123
6590.0 0.0020851
6610.0 0.0017979
6630.0 0.0016288
6650.0 0.0015397
6670.0 0.0014958
6690.0 0.0013515
6710.0 0.0012286
6730.0 0.00088491
6750.0 0.0008773
6770.0 0.00095356
6790.0 0.001096
6810.0 0.0010029
6830.0 0.0010327
6850.0 0.00096592
6870.0 0.00088236
6890.0 0.00084721
6910.0 0.00090281
6930.0 0.00084561
6950.0 0.00086999
6970.0 0.00091507
6990.0 0.0010387
7010.0 0.0010475
7030.0 0.0010642
7050.0 0.0010149
7070.0 0.00096697
7090.0 0.0009698
7110.0 0.00099785
7130.0 0.0010738
7150.0 0.0011405
7170.0 0.0012585
7190.0 0.0013834
7210.0 0.0013594
7230.0 0.0013975
7250.0 0.0015018
7270.0 0.0016366
7290.0 0.0019425
7310.0 0.0021078
7330.0 0.0020373
7350.0 0.0018427
7370.0 0.0016033
7390.0 0.0015554
7410.0 0.0016529
7430.0 0.001837
7450.0 0.0020008
7470.0 0.0019824
7490.0 0.0018076
7510.0 0.0020476
7530.0 0.0020252
7550.0 0.0018203
7570.0 0.001422
7590.0 0.00097755
7610.0 0.00083904
7630.0 0.00095331
7650.0 0.0011272
7670.0 0.0014029
7690.0 0.0015437
7710.0 0.0016088
7730.0 0.0016906
7750.0 0.0018979
7770.0 0.0019278
7790.0 0.0017708
7810.0 0.0016157
7830.0 0.0016662
7850.0 0.0016197
7870.0 0.001485
7890.0 0.0012477
7910.0 0.0010142
7930.0 0.00096842
7950.0 0.00088227
7970.0 0.0008167
7990.0 0.00081204
8010.0 6.0169e-05
8030.0 5.9384e-05
8050.0 5.8586e-05
8070.0 5.9359e-05
8090.0 6.3787e-05
8110.0 6.2699e-05
8130.0 5.1707e-05
8150.0 5.036e-05
8170.0 4.3368e-05
8190.0 4.1093e-05
8210.0 5.3382e-05
8230.0 5.9438e-05
8250.0 5.3553e-05
8270.0 4.6608e-05
8290.0 4.5447e-05
8310.0 3.4982e-05
8330.0 2.3577e-05
8350.0 1.6733e-05
8370.0 1.0537e-05
8390.0 1.9271e-05
8410.0 2.2456e-05
8430.0 2.7681e-05
8450.0 3.2504e-05
8470.0 4.0408e-05
8490.0 4.0119e-05
8510.0 3.9459e-05
8530.0 4.1172e-05
8550.0 5.5569e-05
8570.0 6.5797e-05
8590.0 7.0977e-05
8610.0 8.9667e-05
8630.0 0.00010801
8650.0 0.00011297
8670.0 0.00012006
8690.0 0.00012076
8710.0 0.00010936
8730.0 0.00010173
8750.0 8.9791e-05
8770.0 8.5196e-05
8790.0 8.3705e-05
8810.0 8.0214e-05
8830.0 6.4132e-05
8850.0 4.694e-05
8870.0 3.594e-05
8890.0 3.515e-05
8910.0 4.0292e-05
8930.0 4.5836e-05
8950.0 4.6717e-05
8970.0 4.6936e-05
8990.0 4.1853e-05
9010.0 0.00043829
9030.0 0.00039714
9050.0 0.00039905
9070.0 0.00040221
9090.0 0.00040497
9110.0 0.00040838
9130.0 0.00041102
9150.0 0.00041306
9170.0 0.00041525
9190.0 0.00041758
9210.0 0.00042003
9230.0 0.00042262
9250.0 0.00042525
9270.0 0.00042798
9290.0 0.00043079
9310.0 0.00043362
9330.0 0.00043651
9350.0 0.0004395
9370.0 0.00044253
9390.0 0.00044558
9410.0 0.00044873
9430.0 0.00045197
9450.0 0.0004552
9470.0 0.00045849
9490.0 0.00046189
9510.0 0.00046532
9530.0 0.00046876
9550.0 0.00047233
9570.0 0.00047596
9590.0 0.0004796
9610.0 0.00048331
9630.0 0.00048711
9650.0 0.00049094
9670.0 0.00049478
9690.0 0.00049873
9710.0 0.00050273
9730.0 0.00050675
9750.0 0.00051082
9770.0 0.00051502
9790.0 0.0005192
9810.0 0.00052341
9830.0 0.00052771
9850.0 0.00053206
9870.0 0.0005364
9890.0 0.00054081
9910.0 0.0005453
9930.0 0.00054979
9950.0 0.0005543
9970.0 0.0005589
9990.0 0.00056354
10010.0 0.00048901
10030.0 0.00049302
10050.0 0.00049712
10070.0 0.00050136
10090.0 0.00050535
10110.0 0.00050944
10130.0 0.00051355
10150.0 0.00051765
10170.0 0.00052179
10190.0 0.00052601
10210.0 0.00053018
10230.0 0.00053434
10250.0 0.00053856
10270.0 0.00054278
10290.0 0.00054694
10310.0 0.00055116
10330.0 0.00055542
10350.0 0.00055961
10370.0 0.00056379
10390.0 0.00056801
10410.0 0.00057221
10430.0 0.00057633
10450.0 0.0005805
10470.0 0.00058467
10490.0 0.00058877
10510.0 0.00059285
10530.0 0.00059699
10550.0 0.00060106
10570.0 0.00060505
10590.0 0.00060906
10610.0 0.00061306
10630.0 0.00061697
10650.0 0.00062085
10670.0 0.00062476
10690.0 0.0006286
10710.0 0.00063235
10730.0 0.00063612
10750.0 0.00063989
10770.0 0.00064351
10790.0 0.00064709
10810.0 0.00065068
10830.0 0.00065415
10850.0 0.00065744
10870.0 0.00066063
10890.0 0.00066345
10910.0 0.00066561
10930.0 0.00066683
10950.0 0.00066655
10970.0 0.00066429
10990.0 0.00065986
11010.0 0.00065241
11030.0 0.00064203
11050.0 0.00062939
11070.0 0.00061426
11090.0 0.00059609
11110.0 0.00057729
11130.0 0.00055768
11150.0 0.00053657
11170.0 0.0005148
11190.0 0.00049369
11210.0 0.00047189
11230.0 0.00044954
11250.0 0.00042817
11270.0 0.00040766
11290.0 0.00038711
11310.0 0.00036764
11330.0 0.0003505
11350.0 0.0003343
11370.0 0.00031933
11390.0 0.00030638
11410.0 0.00029506
11430.0 0.00028453
11450.0 0.00027546
11470.0 0.00026762
11490.0 0.00026032
11510.0 0.00025329
11530.0 0.00024677
11550.0 0.00024028
11570.0 0.00023337
11590.0 0.00022621
11610.0 0.00021892
11630.0 0.00021099
11650.0 0.00020249
11670.0 0.00019412
11690.0 0.00018563
11710.0 0.00017688
11730.0 0.00016839
11750.0 0.00016054
11770.0 0.00015284
11790.0 0.00014562
11810.0 0.00013927
11830.0 0.00013358
11850.0 0.00012835
11870.0 0.00012397
11890.0 0.00012033
11910.0 0.00011713
11930.0 0.00011438
11950.0 0.0001121
11970.0 0.00011005
11990.0 0.00010812
12010.0 0.00010633
12030.0 0.00010461
12050.0 0.00010282
12070.0 0.00010097
12090.0 9.9185e-05
12110.0 9.7371e-05
12130.0 9.5554e-05
12150.0 9.3878e-05
12170.0 9.2416e-05
12190.0 9.1151e-05
12210.0 9.0268e-05
12230.0 8.9842e-05
12250.0 8.9911e-05
12270.0 9.0588e-05
12290.0 9.187e-05
12310.0 9.3708e-05
12330.0 9.628e-05
12350.0 9.949e-05
12370.0 0.00010315
12390.0 0.00010736
12410.0 0.0001123
12430.0 0.00011732
12450.0 0.00012251
12470.0 0.00012804
12490.0 0.00013359
12510.0 0.00013879
12530.0 0.00014397
12550.0 0.00014897
12570.0 0.00015338
12590.0 0.00015725
12610.0 0.00016071
12630.0 0.00016346
12650.0 0.00016535
12670.0 0.0001666
12690.0 0.0001671
12710.0 0.00016683
12730.0 0.00016586
12750.0 0.00016413
12770.0 0.00016177
12790.0 0.0001589
12810.0 0.00015547
12830.0 0.0001515
12850.0 0.00014735
12870.0 0.00014297
12890.0 0.00013822
12910.0 0.00013339
12930.0 0.00012864
12950.0 0.00012368
12970.0 0.00011863
12990.0 0.00011385
13010.0 0.00010913
13030.0 0.00010436
13050.0 9.9775e-05
13070.0 9.5482e-05
13090.0 9.1173e-05
13110.0 8.7005e-05
13130.0 8.3162e-05
13150.0 7.9523e-05
13170.0 7.596e-05
13190.0 7.2789e-05
13210.0 6.9998e-05
13230.0 6.7447e-05
13250.0 6.525e-05
13270.0 6.3517e-05
13290.0 6.2169e-05
13310.0 6.1241e-05
13330.0 6.0819e-05
13350.0 6.0868e-05
13370.0 6.1413e-05
13390.0 6.2486e-05
13410.0 6.3935e-05
13430.0 6.5819e-05
13450.0 6.8146e-05
13470.0 7.073e-05
13490.0 7.3466e-05
13510.0 7.6553e-05
13530.0 7.9681e-05
13550.0 8.2675e-05
13570.0 8.5628e-05
13590.0 8.8506e-05
13610.0 9.1066e-05
13630.0 9.33e-05
13650.0 9.5341e-05
13670.0 9.7034e-05
13690.0 9.8344e-05
13710.0 9.9357e-05
13730.0 0.00010008
13750.0 0.00010044
13770.0 0.00010052
13790.0 0.00010034
13810.0 9.9899e-05
13830.0 9.9245e-05
13850.0 9.8358e-05
13870.0 9.7239e-05
13890.0 9.596e-05
13910.0 9.4519e-05
13930.0 9.2851e-05
13950.0 9.1029e-05
13970.0 8.9167e-05
13990.0 8.7138e-05
14010.0 8.4981e-05
14030.0 8.283e-05
14050.0 8.0662e-05
14070.0 7.8373e-05
14090.0 7.6179e-05
14110.0 7.4118e-05
14130.0 7.212e-05
14150.0 7.024e-05
14170.0 6.8635e-05
14190.0 6.7246e-05
14210.0 6.6069e-05
14230.0 6.5197e-05
14250.0 6.4634e-05
14270.0 6.4361e-05
14290.0 6.4419e-05
14310.0 6.4778e-05
14330.0 6.5422e-05
14350.0 6.6371e-05
14370.0 6.7553e-05
14390.0 6.8896e-05
14410.0 7.0477e-05
14430.0 7.2214e-05
14450.0 7.3987e-05
14470.0 7.5827e-05
14490.0 7.7783e-05
14510.0 7.9654e-05
14530.0 8.1431e-05
14550.0 8.3207e-05
14570.0 8.4913e-05
14590.0 8.6465e-05
14610.0 8.7966e-05
14630.0 8.9452e-05
14650.0 9.0836e-05
14670.0 9.2172e-05
14690.0 9.3565e-05
14710.0 9.5031e-05
14730.0 9.6495e-05
14750.0 9.8118e-05
14770.0 9.9959e-05
14790.0 0.00010195
14810.0 0.00010412
14830.0 0.00010668
14850.0 0.00010946
14870.0 0.00011237
14890.0 0.0001155
14910.0 0.00011883
14930.0 0.00012203
14950.0 0.00012502
14970.0 0.00012786
14990.0 0.00013023
15010.0 0.00013205
15030.0 0.00013339
15050.0 0.00013428
15070.0 0.00013472
15090.0 0.00013487
15110.0 0.00013482
15130.0 0.00013465
15150.0 0.00013443
15170.0 0.00013416
15190.0 0.00013387
15210.0 0.00013358
15230.0 0.0001333
15250.0 0.00013301
15270.0 0.00013271
15290.0 0.00013244
15310.0 0.00013216
15330.0 0.00013187
15350.0 0.0001316
15370.0 0.00013132
15390.0 0.00013104
15410.0 0.00013076
15430.0 0.00013049
15450.0 0.00013022
15470.0 0.00012994
15490.0 0.00012967
15510.0 0.00012941
15530.0 0.00012913
15550.0 0.00012887
15570.0 0.00012861
15590.0 0.00012834
15610.0 0.00012807
15630.0 0.00012781
15650.0 0.00012755
15670.0 0.00012728
15690.0 0.00012702
15710.0 0.00012677
15730.0 0.00012651
15750.0 0.00012625
15770.0 0.00012599
15790.0 0.00012574
15810.0 0.00012547
15830.0 0.00012522
15850.0 0.00012497
15870.0 0.00012471
15890.0 0.00012446
15910.0 0.00012421
15930.0 0.00012396
15950.0 0.0001237
15970.0 0.00012345
15990.0 0.0001232
16010.0 0.00012294
16030.0 0.00012268
16050.0 0.00012244
16070.0 0.00012219
16090.0 0.00012194
16110.0 0.00012169
16130.0 0.00012145
16150.0 0.00012118
16170.0 0.00012093
16190.0 0.00012069
16210.0 0.00012044
16230.0 0.00012018
16250.0 0.00011993
16270.0 0.00011969
16290.0 0.00011943
16310.0 0.00011918
16330.0 0.00011893
16350.0 0.00011868
16370.0 0.00011842
16390.0 0.00011817
16410.0 0.00011793
16430.0 0.00011767
16450.0 0.00011742
16470.0 0.00011717
16490.0 0.00011692
16510.0 0.00011666
16530.0 0.00011641
16550.0 0.00011616
16570.0 0.0001159
16590.0 0.00011564
16610.0 0.00011539
16630.0 0.00011513
16650.0 0.00011487
16670.0 0.00011462
16690.0 0.00011437
16710.0 0.0001141
16730.0 0.00011384
16750.0 0.00011359
16770.0 0.00011333
16790.0 0.00011306
16810.0 0.00011281
16830.0 0.00011255
16850.0 0.00011229
16870.0 0.00011202
16890.0 0.00011177
16910.0 0.0001115
16930.0 0.00011123
16950.0 0.00011097
16970.0 0.00011071
16990.0 0.00011044
17010.0 0.00011017
17030.0 0.00010991
17050.0 0.00010964
17070.0 0.00010937
17090.0 0.0001091
17110.0 0.00010884
17130.0 0.00010855
17150.0 0.00010829
17170.0 0.00010802
17190.0 0.00010775
17210.0 0.00010747
17230.0 0.0001072
17250.0 0.00010693
17270.0 0.00010664
17290.0 0.00010637
17310.0 0.0001061
17330.0 0.00010582
17350.0 0.00010553
17370.0 0.00010526
17390.0 0.00010498
17410.0 0.0001047
17430.0 0.00010442
17450.0 0.00010415
17470.0 0.00010385
17490.0 0.00010357
17510.0 0.00010329
17530.0 0.00010301
17550.0 0.00010271
17570.0 0.00010243
17590.0 0.00010215
17610.0 0.00010186
17630.0 0.00010157
17650.0 0.00010129
17670.0 0.000101
17690.0 0.0001007
17710.0 0.00010041
17730.0 0.00010013
17750.0 9.983e-05
17770.0 9.9537e-05
17790.0 9.9254e-05
17810.0 9.8957e-05
17830.0 9.8656e-05
17850.0 9.8366e-05
17870.0 9.8074e-05
17890.0 9.777e-05
17910.0 9.7471e-05
17930.0 9.7183e-05
17950.0 9.6884e-05
17970.0 9.6581e-05
17990.0 9.6289e-05
18010.0 9.5995e-05
18030.0 9.5683e-05
18050.0 9.5383e-05
18070.0 9.5089e-05
18090.0 9.4785e-05
18110.0 9.4476e-05
18130.0 9.4182e-05
18150.0 9.3883e-05
18170.0 9.3573e-05
18190.0 9.3271e-05
18210.0 9.2974e-05
18230.0 9.2664e-05
18250.0 9.235e-05
18270.0 9.2052e-05
18290.0 9.1749e-05
18310.0 9.1437e-05
18330.0 9.1132e-05
18350.0 9.0834e-05
18370.0 9.0521e-05
18390.0 9.0209e-05
18410.0 8.9907e-05
18430.0 8.9601e-05
18450.0 8.9281e-05
18470.0 8.8974e-05
18490.0 8.8673e-05
18510.0 8.8359e-05
18530.0 8.8047e-05
18550.0 8.7746e-05
18570.0 8.7435e-05
18590.0 8.7115e-05
18610.0 8.6807e-05
18630.0 8.6501e-05
18650.0 8.6184e-05
18670.0 8.5867e-05
18690.0 8.5565e-05
18710.0 8.5254e-05
18730.0 8.4936e-05
18750.0 8.4627e-05
18770.0 8.4322e-05
18790.0 8.3999e-05
18810.0 8.3683e-05
18830.0 8.3377e-05
18850.0 8.3063e-05
18870.0 8.2744e-05
18890.0 8.2436e-05
18910.0 8.2128e-05
18930.0 8.1808e-05
18950.0 8.1493e-05
18970.0 8.1187e-05
18990.0 8.0872e-05
19010.0 8.0545e-05
19030.0 8.0238e-05
19050.0 7.9929e-05
19070.0 7.961e-05
19090.0 7.9295e-05
19110.0 7.8991e-05
19130.0 7.8672e-05
19150.0 7.8352e-05
19170.0 7.8042e-05
19190.0 7.7731e-05
19210.0 7.7409e-05
19230.0 7.7093e-05
19250.0 7.6788e-05
19270.0 7.6472e-05
19290.0 7.6154e-05
19310.0 7.5847e-05
19330.0 7.5537e-05
19350.0 7.5211e-05
19370.0 7.4898e-05
19390.0 7.4591e-05
19410.0 7.4274e-05
19430.0 7.3954e-05
19450.0 7.3649e-05
19470.0 7.3338e-05
19490.0 7.3019e-05
19510.0 7.2707e-05
19530.0 7.2401e-05
19550.0 7.2081e-05
19570.0 7.1761e-05
19590.0 7.1456e-05
19610.0 7.1145e-05
19630.0 7.0826e-05
19650.0 7.0517e-05
19670.0 7.0213e-05
19690.0 6.9894e-05
19710.0 6.9579e-05
19730.0 6.9273e-05
19750.0 6.8962e-05
19770.0 6.864e-05
19790.0 6.8332e-05
19810.0 6.8027e-05
19830.0 6.771e-05
19850.0 6.7393e-05
19870.0 6.708e-05
19890.0 6.6745e-05
19910.0 6.6377e-05
19930.0 6.5984e-05
19950.0 6.5533e-05
19970.0 6.4978e-05
19990.0 6.4311e-05
20010.0 5.7217e-05
20030.0 5.6389e-05
20050.0 5.5419e-05
20070.0 5.437e-05
20090.0 5.324e-05
20110.0 5.1962e-05
20130.0 5.0668e-05
20150.0 4.9386e-05
20170.0 4.8057e-05
20190.0 4.6709e-05
20210.0 4.5436e-05
20230.0 4.4194e-05
20250.0 4.2949e-05
20270.0 4.1794e-05
20290.0 4.0739e-05
20310.0 3.9737e-05
20330.0 3.8801e-05
20350.0 3.8023e-05
20370.0 3.7333e-05
20390.0 3.6728e-05
20410.0 3.6239e-05
20430.0 3.5863e-05
20450.0 3.5564e-05
20470.0 3.5364e-05
20490.0 3.5257e-05
20510.0 3.5226e-05
20530.0 3.5269e-05
20550.0 3.5378e-05
20570.0 3.5537e-05
20590.0 3.5751e-05
20610.0 3.6011e-05
20630.0 3.6297e-05
20650.0 3.6617e-05
20670.0 3.6983e-05
20690.0 3.7356e-05
20710.0 3.7741e-05
20730.0 3.8157e-05
20750.0 3.8591e-05
20770.0 3.9018e-05
20790.0 3.9467e-05
20810.0 3.9941e-05
20830.0 4.0413e-05
20850.0 4.0887e-05
20870.0 4.1395e-05
20890.0 4.1913e-05
20910.0 4.2412e-05
20930.0 4.293e-05
20950.0 4.3467e-05
20970.0 4.399e-05
20990.0 4.4507e-05
21010.0 4.505e-05
21030.0 4.5581e-05
21050.0 4.6087e-05
21070.0 4.6593e-05
21090.0 4.71e-05
21110.0 4.7563e-05
21130.0 4.7998e-05
21150.0 4.8419e-05
21170.0 4.88e-05
21190.0 4.9128e-05
21210.0 4.9423e-05
21230.0 4.9669e-05
21250.0 4.9844e-05
21270.0 4.9955e-05
21290.0 4.9996e-05
21310.0 4.9956e-05
21330.0 4.9839e-05
21350.0 4.9632e-05
21370.0 4.9328e-05
21390.0 4.8941e-05
21410.0 4.8468e-05
21430.0 4.7869e-05
21450.0 4.7197e-05
21470.0 4.6465e-05
21490.0 4.5637e-05
21510.0 4.4728e-05
21530.0 4.3805e-05
21550.0 4.2838e-05
21570.0 4.1807e-05
21590.0 4.0792e-05
21610.0 3.9812e-05
21630.0 3.8831e-05
21650.0 3.7873e-05
21670.0 3.7042e-05
21690.0 3.6276e-05
21710.0 3.5586e-05
21730.0 3.502e-05
21750.0 3.4584e-05
21770.0 3.4252e-05
21790.0 3.4061e-05
21810.0 3.4008e-05
21830.0 3.4083e-05
21850.0 3.4297e-05
21870.0 3.4629e-05
21890.0 3.5058e-05
21910.0 3.5608e-05
21930.0 3.6254e-05
21950.0 3.6954e-05
21970.0 3.7728e-05
21990.0 3.8598e-05
22010.0 3.9467e-05
22030.0 4.035e-05
22050.0 4.1277e-05
22070.0 4.221e-05
22090.0 4.3092e-05
22110.0 4.3982e-05
22130.0 4.487e-05
22150.0 4.57e-05
22170.0 4.6482e-05
22190.0 4.7258e-05
22210.0 4.7979e-05
22230.0 4.8614e-05
22250.0 4.9212e-05
22270.0 4.9762e-05
22290.0 5.0233e-05
22310.0 5.0636e-05
22330.0 5.0992e-05
22350.0 5.1267e-05
22370.0 5.1461e-05
22390.0 5.1582e-05
22410.0 5.162e-05
22430.0 5.1571e-05
22450.0 5.1438e-05
22470.0 5.1209e-05
22490.0 5.0886e-05
22510.0 5.0484e-05
22530.0 4.997e-05
22550.0 4.9345e-05
22570.0 4.8651e-05
22590.0 4.7868e-05
22610.0 4.6968e-05
22630.0 4.5994e-05
22650.0 4.4987e-05
22670.0 4.3873e-05
22690.0 4.2684e-05
22710.0 4.1485e-05
22730.0 4.0249e-05
22750.0 3.8909e-05
22770.0 3.7599e-05
22790.0 3.632e-05
