#lamb flux
1010.0 1.5693e-06
1030.0 1.7118e-06
1050.0 1.8758e-06
1070.0 2.0604e-06
1090.0 2.2702e-06
1110.0 2.4854e-06
1130.0 2.702e-06
1150.0 2.9291e-06
1170.0 3.1634e-06
1190.0 3.3857e-06
1210.0 3.6111e-06
1230.0 3.8442e-06
1250.0 4.0726e-06
1270.0 4.2947e-06
1290.0 4.5295e-06
1310.0 4.7642e-06
1330.0 4.9896e-06
1350.0 5.2176e-06
1370.0 5.4532e-06
1390.0 5.6831e-06
1410.0 5.9064e-06
1430.0 6.14e-06
1450.0 6.3738e-06
1470.0 6.6e-06
1490.0 6.8288e-06
1510.0 7.0705e-06
1530.0 7.2998e-06
1550.0 7.5261e-06
1570.0 7.7603e-06
1590.0 7.9947e-06
1610.0 8.2188e-06
1630.0 8.4497e-06
1650.0 8.6866e-06
1670.0 8.9156e-06
1690.0 9.1414e-06
1710.0 9.3756e-06
1730.0 9.6106e-06
1750.0 9.8312e-06
1770.0 1.0058e-05
1790.0 1.0288e-05
1810.0 1.051e-05
1830.0 1.0727e-05
1850.0 1.0956e-05
1870.0 1.1179e-05
1890.0 1.1392e-05
1910.0 1.1607e-05
1930.0 1.1827e-05
1950.0 1.2034e-05
1970.0 1.2236e-05
1990.0 1.2444e-05
2010.0 1.2646e-05
2030.0 1.2837e-05
2050.0 1.3032e-05
2070.0 1.3229e-05
2090.0 1.3409e-05
2110.0 1.3586e-05
2130.0 1.3765e-05
2150.0 1.3935e-05
2170.0 1.4092e-05
2190.0 1.4253e-05
2210.0 1.441e-05
2230.0 1.4553e-05
2250.0 1.469e-05
2270.0 1.4831e-05
2290.0 1.4959e-05
2310.0 1.5073e-05
2330.0 1.5188e-05
2350.0 1.5298e-05
2370.0 1.5394e-05
2390.0 1.5486e-05
2410.0 1.5582e-05
2430.0 1.5669e-05
2450.0 1.5752e-05
2470.0 1.5846e-05
2490.0 1.5962e-05
2510.0 1.6105e-05
2530.0 1.6342e-05
2550.0 1.6778e-05
2570.0 1.752e-05
2590.0 1.8686e-05
2610.0 2.0602e-05
2630.0 2.3327e-05
2650.0 2.6691e-05
2670.0 3.0712e-05
2690.0 3.5217e-05
2710.0 3.9556e-05
2730.0 4.3427e-05
2750.0 4.6898e-05
2770.0 4.9638e-05
2790.0 5.1633e-05
2810.0 5.3163e-05
2830.0 5.4429e-05
2850.0 5.5384e-05
2870.0 5.6232e-05
2890.0 5.7099e-05
2910.0 5.7954e-05
2930.0 5.8744e-05
2950.0 5.9592e-05
2970.0 6.0478e-05
2990.0 6.1312e-05
3010.0 0.00048806
3030.0 0.00049488
3050.0 0.00050144
3070.0 0.00050676
3090.0 0.00051114
3110.0 0.00051316
3130.0 0.00051112
3150.0 0.00050379
3170.0 0.00048876
3190.0 0.00046603
3210.0 0.00043693
3230.0 0.00040514
3250.0 0.0004203
3270.0 0.0003913
3290.0 0.00044442
3310.0 0.00038945
3330.0 0.00039562
3350.0 0.00041274
3370.0 0.00043471
3390.0 0.00046024
3410.0 0.00048641
3430.0 0.00051428
3450.0 0.0005437
3470.0 0.0005726
3490.0 0.00059855
3510.0 0.00064121
3530.0 0.00070095
3550.0 0.00071687
3570.0 0.00070934
3590.0 0.00078282
3610.0 0.00074544
3630.0 0.00085001
3650.0 0.00091075
3670.0 0.00099322
3690.0 0.00098109
3710.0 0.00089026
3730.0 0.0009351
3750.0 0.00093755
3770.0 0.00099942
3790.0 0.0010643
3810.0 0.0012056
3830.0 0.0015875
3850.0 0.0019585
3870.0 0.0022962
3890.0 0.002431
3910.0 0.0024123
3930.0 0.0024603
3950.0 0.0025597
3970.0 0.0022903
3990.0 0.0014408
4010.0 0.0011011
4030.0 0.0016693
4050.0 0.0022117
4070.0 0.0020184
4090.0 0.0011915
4110.0 0.0010499
4130.0 0.001631
4150.0 0.0018554
4170.0 0.0015358
4190.0 0.0012844
4210.0 0.0017854
4230.0 0.0017675
4250.0 0.0016745
4270.0 0.0016748
4290.0 0.0015077
4310.0 0.0017635
4330.0 0.0020577
4350.0 0.0022572
4370.0 0.0021627
4390.0 0.0021789
4410.0 0.0019827
4430.0 0.0015202
4450.0 0.0011618
4470.0 0.0013288
4490.0 0.0013552
4510.0 0.0019199
4530.0 0.0019834
4550.0 0.001962
4570.0 0.0023477
4590.0 0.0028831
4610.0 0.0037411
4630.0 0.0047463
4650.0 0.0049643
4670.0 0.005098
4690.0 0.0052444
4710.0 0.0051508
4730.0 0.0043024
4750.0 0.0030987
4770.0 0.002561
4790.0 0.0021401
4810.0 0.0021389
4830.0 0.0024057
4850.0 0.0025722
4870.0 0.0027113
4890.0 0.0032419
4910.0 0.0030721
4930.0 0.0032803
4950.0 0.0039964
4970.0 0.0045783
4990.0 0.0052168
5010.0 0.0052803
5030.0 0.0046472
5050.0 0.0035247
5070.0 0.0025635
5090.0 0.0021907
5110.0 0.0022425
5130.0 0.0024035
5150.0 0.0022538
5170.0 0.0022142
5190.0 0.0022583
5210.0 0.0023176
5230.0 0.0025322
5250.0 0.0026483
5270.0 0.0027037
5290.0 0.0032024
5310.0 0.0037962
5330.0 0.0040752
5350.0 0.0040033
5370.0 0.0041677
5390.0 0.0044104
5410.0 0.0042007
5430.0 0.00394
5450.0 0.0040687
5470.0 0.0046742
5490.0 0.0058089
5510.0 0.0069637
5530.0 0.0072867
5550.0 0.0071559
5570.0 0.0068942
5590.0 0.0065301
5610.0 0.0062174
5630.0 0.006301
5650.0 0.0065293
5670.0 0.0063083
5690.0 0.0058363
5710.0 0.0057262
5730.0 0.0051633
5750.0 0.004341
5770.0 0.0039179
5790.0 0.0043052
5810.0 0.004695
5830.0 0.0052108
5850.0 0.0052474
5870.0 0.0051114
5890.0 0.0050233
5910.0 0.0046495
5930.0 0.004477
5950.0 0.0046254
5970.0 0.0047664
5990.0 0.0041955
6010.0 0.0034685
6030.0 0.0028939
6050.0 0.0026155
6070.0 0.0026399
6090.0 0.0029082
6110.0 0.0030805
6130.0 0.0029754
6150.0 0.0029739
6170.0 0.0032123
6190.0 0.0036198
6210.0 0.0042643
6230.0 0.0048854
6250.0 0.0045878
6270.0 0.0040032
6290.0 0.003394
6310.0 0.0027406
6330.0 0.0023622
6350.0 0.0023116
6370.0 0.0025083
6390.0 0.0027734
6410.0 0.0032816
6430.0 0.0040529
6450.0 0.0048805
6470.0 0.005571
6490.0 0.0062822
6510.0 0.0067388
6530.0 0.0065196
6550.0 0.0062536
6570.0 0.0062981
6590.0 0.0062906
6610.0 0.0061025
6630.0 0.005751
6650.0 0.0052725
6670.0 0.0051643
6690.0 0.0050444
6710.0 0.0048581
6730.0 0.0042335
6750.0 0.0037061
6770.0 0.0037434
6790.0 0.0039945
6810.0 0.0044046
6830.0 0.0044811
6850.0 0.004164
6870.0 0.0040917
6890.0 0.0040228
6910.0 0.0037947
6930.0 0.003742
6950.0 0.0037236
6970.0 0.0037444
6990.0 0.0039054
7010.0 0.0041883
7030.0 0.0041212
7050.0 0.0037526
7070.0 0.0034732
7090.0 0.0030142
7110.0 0.0026449
7130.0 0.0027064
7150.0 0.0029148
7170.0 0.0030569
7190.0 0.0030236
7210.0 0.0029654
7230.0 0.003295
7250.0 0.0036628
7270.0 0.0038726
7290.0 0.0039189
7310.0 0.0038116
7330.0 0.0035446
7350.0 0.0032842
7370.0 0.003084
7390.0 0.0030261
7410.0 0.0032715
7430.0 0.0037893
7450.0 0.0042013
7470.0 0.0046792
7490.0 0.0054117
7510.0 0.0052738
7530.0 0.0043872
7550.0 0.0037317
7570.0 0.0031079
7590.0 0.0026361
7610.0 0.0025611
7630.0 0.0026206
7650.0 0.0028617
7670.0 0.003273
7690.0 0.0035996
7710.0 0.0040848
7730.0 0.0042473
7750.0 0.004394
7770.0 0.0047011
7790.0 0.0048152
7810.0 0.0047314
7830.0 0.004411
7850.0 0.0043467
7870.0 0.0042282
7890.0 0.0039524
7910.0 0.0036335
7930.0 0.0033707
7950.0 0.0028493
7970.0 0.0027222
7990.0 0.002777
8010.0 0.0032498
8030.0 0.0032631
8050.0 0.0034184
8070.0 0.0033463
8090.0 0.0033517
8110.0 0.0032825
8130.0 0.0031275
8150.0 0.0029029
8170.0 0.0028778
8190.0 0.0029113
8210.0 0.0029426
8230.0 0.0027043
8250.0 0.0025228
8270.0 0.0022227
8290.0 0.0018481
8310.0 0.0015077
8330.0 0.0011079
8350.0 0.00084815
8370.0 0.00079265
8390.0 0.00083991
8410.0 0.00096224
8430.0 0.0012201
8450.0 0.0013471
8470.0 0.0014507
8490.0 0.0016259
8510.0 0.0017543
8530.0 0.0019546
8550.0 0.0023122
8570.0 0.0026089
8590.0 0.0028203
8610.0 0.0032239
8630.0 0.0037242
8650.0 0.0038961
8670.0 0.0039689
8690.0 0.0039931
8710.0 0.0038763
8730.0 0.0037187
8750.0 0.0034612
8770.0 0.003418
8790.0 0.0033204
8810.0 0.0030672
8830.0 0.0029421
8850.0 0.0025889
8870.0 0.0023995
8890.0 0.0021937
8910.0 0.0024317
8930.0 0.0022707
8950.0 0.0023075
8970.0 0.0023581
8990.0 0.0023298
9010.0 0.0023654
9030.0 0.0022683
9050.0 0.0022612
9070.0 0.0022636
9090.0 0.0022659
9110.0 0.0022694
9130.0 0.0022717
9150.0 0.0022733
9170.0 0.002271
9190.0 0.0022631
9210.0 0.0022908
9230.0 0.0022869
9250.0 0.0022862
9270.0 0.0022864
9290.0 0.0022872
9310.0 0.0022884
9330.0 0.0022898
9350.0 0.0022915
9370.0 0.0022933
9390.0 0.002295
9410.0 0.0022969
9430.0 0.0022989
9450.0 0.0023007
9470.0 0.0023026
9490.0 0.0023047
9510.0 0.0023067
9530.0 0.0023087
9550.0 0.0023109
9570.0 0.0023132
9590.0 0.0023155
9610.0 0.0023178
9630.0 0.0023204
9650.0 0.0023229
9670.0 0.0023255
9690.0 0.0023282
9710.0 0.0023311
9730.0 0.0023339
9750.0 0.0023369
9770.0 0.0023401
9790.0 0.0023433
9810.0 0.0023465
9830.0 0.0023499
9850.0 0.0023535
9870.0 0.002357
9890.0 0.0023607
9910.0 0.0023645
9930.0 0.0023684
9950.0 0.0023703
9970.0 0.002375
9990.0 0.0023798
10010.0 0.0023841
10030.0 0.0023886
10050.0 0.0023922
10070.0 0.0023909
10090.0 0.0023974
10110.0 0.0024038
10130.0 0.0024097
10150.0 0.0024153
10170.0 0.0024205
10190.0 0.0024254
10210.0 0.0024304
10230.0 0.0024354
10250.0 0.0024403
10270.0 0.0024451
10290.0 0.0024502
10310.0 0.002455
10330.0 0.0024598
10350.0 0.0024647
10370.0 0.0024697
10390.0 0.0024745
10410.0 0.0024792
10430.0 0.0024842
10450.0 0.0024889
10470.0 0.0024935
10490.0 0.0024982
10510.0 0.0025029
10530.0 0.0025073
10550.0 0.0025117
10570.0 0.0025161
10590.0 0.0025204
10610.0 0.0025245
10630.0 0.0025287
10650.0 0.0025327
10670.0 0.0025365
10690.0 0.0025402
10710.0 0.0025439
10730.0 0.0025474
10750.0 0.0025506
10770.0 0.002554
10790.0 0.0025571
10810.0 0.00256
10830.0 0.0025626
10850.0 0.0025651
10870.0 0.0025665
10890.0 0.0025667
10910.0 0.0025649
10930.0 0.0025596
10950.0 0.0025485
10970.0 0.0025304
10990.0 0.0025048
11010.0 0.0025476
11030.0 0.0024957
11050.0 0.0024359
11070.0 0.0023673
11090.0 0.0022882
11110.0 0.0022098
11130.0 0.0021316
11150.0 0.0020518
11170.0 0.0019747
11190.0 0.0019051
11210.0 0.0018388
11230.0 0.0017766
11250.0 0.0017228
11270.0 0.0016759
11290.0 0.0016333
11310.0 0.0015967
11330.0 0.0015667
11350.0 0.0015397
11370.0 0.001515
11390.0 0.0014927
11410.0 0.0014712
11430.0 0.001448
11450.0 0.001424
11470.0 0.0013988
11490.0 0.0013708
11510.0 0.0013395
11530.0 0.0013073
11550.0 0.0012734
11570.0 0.0012368
11590.0 0.0011994
11610.0 0.0011629
11630.0 0.0011251
11650.0 0.0010872
11670.0 0.0010521
11690.0 0.0010184
11710.0 0.00098537
11730.0 0.00095455
11750.0 0.00092667
11770.0 0.00089953
11790.0 0.00087377
11810.0 0.00085026
11830.0 0.00082798
11850.0 0.00080563
11870.0 0.00078465
11890.0 0.00076477
11910.0 0.00074457
11930.0 0.00072423
11950.0 0.00070459
11970.0 0.00068468
11990.0 0.00066386
12010.0 0.00064346
12030.0 0.00062353
12050.0 0.00060325
12070.0 0.00058304
12090.0 0.0005647
12110.0 0.00054713
12130.0 0.00053052
12150.0 0.000516
12170.0 0.0005038
12190.0 0.00049337
12210.0 0.00048581
12230.0 0.00048129
12250.0 0.00047965
12270.0 0.00048122
12290.0 0.00048581
12310.0 0.00049296
12330.0 0.0005032
12350.0 0.00051588
12370.0 0.00052998
12390.0 0.00054573
12410.0 0.00056348
12430.0 0.00058059
12450.0 0.00059735
12470.0 0.00061412
12490.0 0.00062975
12510.0 0.00064321
12530.0 0.00065546
12550.0 0.00066604
12570.0 0.0006741
12590.0 0.00068
12610.0 0.00068406
12630.0 0.00068591
12650.0 0.00068564
12670.0 0.00068368
12690.0 0.00068003
12710.0 0.00067496
12730.0 0.00066871
12750.0 0.00066108
12770.0 0.00065258
12790.0 0.00064349
12810.0 0.00063357
12830.0 0.00062277
12850.0 0.00061181
12870.0 0.00060036
12890.0 0.00058796
12910.0 0.00057509
12930.0 0.00056196
12950.0 0.00054772
12970.0 0.00053248
12990.0 0.00051725
13010.0 0.00050145
13030.0 0.00048471
13050.0 0.00046792
13070.0 0.00045166
13090.0 0.00043497
13110.0 0.0004186
13130.0 0.00040347
13150.0 0.00038928
13170.0 0.00037572
13190.0 0.00036409
13210.0 0.00035434
13230.0 0.00034599
13250.0 0.00033938
13270.0 0.00033467
13290.0 0.00033149
13310.0 0.00032977
13330.0 0.00032942
13350.0 0.00033009
13370.0 0.00033164
13390.0 0.00033382
13410.0 0.0003361
13430.0 0.00033849
13450.0 0.0003408
13470.0 0.00034271
13490.0 0.00034412
13510.0 0.00034515
13530.0 0.0003456
13550.0 0.00034553
13570.0 0.00034505
13590.0 0.00034424
13610.0 0.00034322
13630.0 0.00034209
13650.0 0.00034093
13670.0 0.00033984
13690.0 0.00033887
13710.0 0.00033803
13730.0 0.00033735
13750.0 0.00033679
13770.0 0.0003363
13790.0 0.00033582
13810.0 0.00033527
13830.0 0.00033457
13850.0 0.00033366
13870.0 0.00033244
13890.0 0.0003309
13910.0 0.00032901
13930.0 0.0003267
13950.0 0.00032405
13970.0 0.00032123
13990.0 0.00031816
14010.0 0.00031493
14030.0 0.00031179
14050.0 0.00030875
14070.0 0.00030575
14090.0 0.00030307
14110.0 0.00030073
14130.0 0.00029866
14150.0 0.0002969
14170.0 0.00029551
14190.0 0.00029442
14210.0 0.00029362
14230.0 0.00029312
14250.0 0.0002929
14270.0 0.00029299
14290.0 0.00029345
14310.0 0.00029419
14330.0 0.00029528
14350.0 0.00029679
14370.0 0.00029862
14390.0 0.0003007
14410.0 0.00030319
14430.0 0.00030598
14450.0 0.0003089
14470.0 0.00031203
14490.0 0.00031554
14510.0 0.0003191
14530.0 0.00032276
14550.0 0.00032681
14570.0 0.00033122
14590.0 0.00033583
14610.0 0.00034101
14630.0 0.00034704
14650.0 0.00035356
14670.0 0.00036069
14690.0 0.00036888
14710.0 0.00037804
14730.0 0.0003874
14750.0 0.00039765
14770.0 0.00040877
14790.0 0.00042001
14810.0 0.00043121
14830.0 0.00044318
14850.0 0.00045474
14870.0 0.00046542
14890.0 0.00047561
14910.0 0.00048513
14930.0 0.00049318
14950.0 0.00049981
14970.0 0.00050534
14990.0 0.00050932
15010.0 0.00051185
15030.0 0.00051324
15050.0 0.00051364
15070.0 0.00051324
15090.0 0.00051237
15110.0 0.00051114
15130.0 0.00050973
15150.0 0.00050829
15170.0 0.00050674
15190.0 0.00050517
15210.0 0.00050364
15230.0 0.00050212
15250.0 0.00050055
15270.0 0.00049901
15290.0 0.00049754
15310.0 0.00049604
15330.0 0.00049452
15350.0 0.00049306
15370.0 0.00049162
15390.0 0.0004901
15410.0 0.00048863
15430.0 0.00048721
15450.0 0.00048575
15470.0 0.00048427
15490.0 0.00048287
15510.0 0.00048147
15530.0 0.00048002
15550.0 0.00047861
15570.0 0.00047724
15590.0 0.00047582
15610.0 0.00047438
15630.0 0.00047301
15650.0 0.00047164
15670.0 0.00047023
15690.0 0.00046885
15710.0 0.00046752
15730.0 0.00046613
15750.0 0.00046474
15770.0 0.00046341
15790.0 0.00046206
15810.0 0.00046065
15830.0 0.0004593
15850.0 0.00045799
15870.0 0.00045662
15890.0 0.00045526
15910.0 0.00045395
15930.0 0.00045262
15950.0 0.00045123
15970.0 0.0004499
15990.0 0.00044859
16010.0 0.00044723
16030.0 0.00044585
16050.0 0.00044456
16070.0 0.00044323
16090.0 0.00044187
16110.0 0.00044055
16130.0 0.00043925
16150.0 0.00043786
16170.0 0.00043651
16190.0 0.0004352
16210.0 0.00043386
16230.0 0.00043249
16250.0 0.00043116
16270.0 0.00042986
16290.0 0.00042848
16310.0 0.00042713
16330.0 0.00042581
16350.0 0.00042446
16370.0 0.00042304
16390.0 0.00042172
16410.0 0.00042039
16430.0 0.000419
16450.0 0.00041763
16470.0 0.00041632
16490.0 0.00041493
16510.0 0.00041353
16530.0 0.00041217
16550.0 0.00041082
16570.0 0.0004094
16590.0 0.00040799
16610.0 0.00040665
16630.0 0.00040525
16650.0 0.00040383
16670.0 0.00040246
16690.0 0.00040109
16710.0 0.00039962
16730.0 0.00039821
16750.0 0.00039683
16770.0 0.00039539
16790.0 0.00039393
16810.0 0.00039254
16830.0 0.00039113
16850.0 0.00038966
16870.0 0.00038822
16890.0 0.00038682
16910.0 0.00038534
16930.0 0.00038384
16950.0 0.00038241
16970.0 0.00038096
16990.0 0.00037946
17010.0 0.00037799
17030.0 0.00037656
17050.0 0.00037505
17070.0 0.00037354
17090.0 0.00037208
17110.0 0.00037059
17130.0 0.00036903
17150.0 0.00036753
17170.0 0.00036606
17190.0 0.00036453
17210.0 0.00036299
17230.0 0.00036151
17250.0 0.00035998
17270.0 0.0003584
17290.0 0.00035687
17310.0 0.00035536
17330.0 0.00035378
17350.0 0.00035219
17370.0 0.00035069
17390.0 0.00034913
17410.0 0.00034754
17430.0 0.00034598
17450.0 0.00034445
17470.0 0.00034282
17490.0 0.00034122
17510.0 0.00033967
17530.0 0.00033807
17550.0 0.00033644
17570.0 0.00033487
17590.0 0.0003333
17610.0 0.00033166
17630.0 0.00033005
17650.0 0.00032847
17670.0 0.00032685
17690.0 0.00032516
17710.0 0.00032357
17730.0 0.00032197
17750.0 0.00032031
17770.0 0.00031867
17790.0 0.00031709
17810.0 0.00031543
17830.0 0.00031375
17850.0 0.00031213
17870.0 0.0003105
17890.0 0.00030881
17910.0 0.00030714
17930.0 0.00030554
17950.0 0.00030387
17970.0 0.00030219
17990.0 0.00030056
18010.0 0.00029892
18030.0 0.00029719
18050.0 0.00029552
18070.0 0.00029389
18090.0 0.0002922
18110.0 0.00029049
18130.0 0.00028886
18150.0 0.0002872
18170.0 0.00028549
18190.0 0.00028382
18210.0 0.00028217
18230.0 0.00028046
18250.0 0.00027874
18270.0 0.00027709
18290.0 0.00027542
18310.0 0.0002737
18330.0 0.00027203
18350.0 0.00027039
18370.0 0.00026867
18390.0 0.00026697
18410.0 0.00026531
18430.0 0.00026363
18450.0 0.00026189
18470.0 0.00026022
18490.0 0.00025857
18510.0 0.00025686
18530.0 0.00025516
18550.0 0.00025352
18570.0 0.00025184
18590.0 0.00025011
18610.0 0.00024844
18630.0 0.00024678
18650.0 0.00024507
18670.0 0.00024336
18690.0 0.00024173
18710.0 0.00024006
18730.0 0.00023835
18750.0 0.00023669
18770.0 0.00023506
18790.0 0.00023333
18810.0 0.00023164
18830.0 0.00023001
18850.0 0.00022834
18870.0 0.00022664
18890.0 0.000225
18910.0 0.00022337
18930.0 0.00022167
18950.0 0.00022001
18970.0 0.00021838
18990.0 0.00021672
19010.0 0.00021501
19030.0 0.00021339
19050.0 0.00021177
19070.0 0.0002101
19090.0 0.00020845
19110.0 0.00020686
19130.0 0.0002052
19150.0 0.00020353
19170.0 0.00020192
19190.0 0.00020031
19210.0 0.00019864
19230.0 0.000197
19250.0 0.00019543
19270.0 0.0001938
19290.0 0.00019216
19310.0 0.00019058
19330.0 0.00018899
19350.0 0.00018733
19370.0 0.00018573
19390.0 0.00018416
19410.0 0.00018255
19430.0 0.00018093
19450.0 0.00017937
19470.0 0.0001778
19490.0 0.00017619
19510.0 0.00017461
19530.0 0.00017307
19550.0 0.00017147
19570.0 0.00016986
19590.0 0.00016833
19610.0 0.00016677
19630.0 0.00016519
19650.0 0.00016364
19670.0 0.00016213
19690.0 0.00016055
19710.0 0.00015899
19730.0 0.00015748
19750.0 0.00015594
19770.0 0.00015436
19790.0 0.00015284
19810.0 0.00015135
19830.0 0.0001498
19850.0 0.00014825
19870.0 0.00014674
19890.0 0.00014514
19910.0 0.00014343
19930.0 0.00014165
19950.0 0.0001397
19970.0 0.00013742
19990.0 0.00013483
20010.0 0.00013205
20030.0 0.00012887
20050.0 0.00012537
20070.0 0.00012182
20090.0 0.00011826
20110.0 0.00011454
20130.0 0.00011109
20150.0 0.00010796
20170.0 0.000105
20190.0 0.0001023
20210.0 9.9993e-05
20230.0 9.7967e-05
20250.0 9.6157e-05
20270.0 9.4671e-05
20290.0 9.3477e-05
20310.0 9.25e-05
20330.0 9.175e-05
20350.0 9.1267e-05
20370.0 9.098e-05
20390.0 9.0896e-05
20410.0 9.1015e-05
20430.0 9.1309e-05
20450.0 9.1821e-05
20470.0 9.2536e-05
20490.0 9.3414e-05
20510.0 9.4484e-05
20530.0 9.5792e-05
20550.0 9.7252e-05
20570.0 9.8812e-05
20590.0 0.00010059
20610.0 0.00010249
20630.0 0.00010442
20650.0 0.00010644
20670.0 0.00010859
20690.0 0.00011065
20710.0 0.00011263
20730.0 0.00011461
20750.0 0.00011652
20770.0 0.00011824
20790.0 0.0001199
20810.0 0.00012151
20830.0 0.00012299
20850.0 0.00012438
20870.0 0.00012579
20890.0 0.00012719
20910.0 0.00012852
20930.0 0.0001299
20950.0 0.00013136
20970.0 0.00013281
20990.0 0.00013427
21010.0 0.00013581
21030.0 0.00013732
21050.0 0.00013874
21070.0 0.0001401
21090.0 0.0001414
21110.0 0.00014248
21130.0 0.00014338
21150.0 0.00014412
21170.0 0.00014463
21190.0 0.00014492
21210.0 0.000145
21230.0 0.00014486
21250.0 0.0001445
21270.0 0.00014396
21290.0 0.00014321
21310.0 0.0001423
21330.0 0.00014128
21350.0 0.0001401
21370.0 0.00013879
21390.0 0.00013742
21410.0 0.000136
21430.0 0.00013444
21450.0 0.00013289
21470.0 0.00013137
21490.0 0.00012982
21510.0 0.00012827
21530.0 0.00012683
21550.0 0.00012544
21570.0 0.00012409
21590.0 0.00012287
21610.0 0.00012179
21630.0 0.00012081
21650.0 0.00011996
21670.0 0.00011933
21690.0 0.00011885
21710.0 0.00011855
21730.0 0.00011845
21750.0 0.00011852
21770.0 0.0001188
21790.0 0.00011929
21810.0 0.00011994
21830.0 0.00012079
21850.0 0.00012185
21870.0 0.00012305
21890.0 0.00012436
21910.0 0.00012586
21930.0 0.0001275
21950.0 0.00012918
21970.0 0.00013098
21990.0 0.00013295
22010.0 0.00013488
22030.0 0.00013681
22050.0 0.00013882
22070.0 0.00014082
22090.0 0.00014269
22110.0 0.00014456
22130.0 0.0001464
22150.0 0.00014807
22170.0 0.00014959
22190.0 0.00015104
22210.0 0.00015229
22230.0 0.00015328
22250.0 0.00015409
22270.0 0.00015468
22290.0 0.00015499
22310.0 0.00015505
22330.0 0.00015483
22350.0 0.00015432
22370.0 0.00015354
22390.0 0.00015246
22410.0 0.00015105
22430.0 0.00014943
22450.0 0.00014757
22470.0 0.00014539
22490.0 0.000143
22510.0 0.0001405
22530.0 0.00013772
22550.0 0.00013471
22570.0 0.0001317
22590.0 0.0001286
22610.0 0.0001253
22630.0 0.000122
22650.0 0.00011881
22670.0 0.00011551
22690.0 0.00011219
22710.0 0.00010903
22730.0 0.00010595
22750.0 0.00010278
22770.0 9.9854e-05
22790.0 9.7132e-05
22810.0 9.4475e-05
22830.0 9.196e-05
22850.0 8.973e-05
22870.0 8.7665e-05
22890.0 8.5741e-05
22910.0 8.4101e-05
22930.0 8.2728e-05
22950.0 8.1564e-05
22970.0 8.0657e-05
22990.0 8.0075e-05
23010.0 7.9746e-05
23030.0 7.9694e-05
