#lamb flux
1010.0 6.1303e-07
1030.0 7.5258e-07
1050.0 8.9928e-07
1070.0 1.0466e-06
1090.0 1.1924e-06
1110.0 1.3106e-06
1130.0 1.3944e-06
1150.0 1.4492e-06
1170.0 1.4706e-06
1190.0 1.4466e-06
1210.0 1.3941e-06
1230.0 1.3209e-06
1250.0 1.2293e-06
1270.0 1.1317e-06
1290.0 1.0484e-06
1310.0 9.8797e-07
1330.0 9.6263e-07
1350.0 9.8959e-07
1370.0 1.0816e-06
1390.0 1.2442e-06
1410.0 1.4821e-06
1430.0 1.8029e-06
1450.0 2.2026e-06
1470.0 2.6724e-06
1490.0 3.2088e-06
1510.0 3.8101e-06
1530.0 4.45e-06
1550.0 5.1209e-06
1570.0 5.8193e-06
1590.0 6.531e-06
1610.0 7.2357e-06
1630.0 7.9417e-06
1650.0 8.6434e-06
1670.0 9.3205e-06
1690.0 9.9737e-06
1710.0 1.0615e-05
1730.0 1.1235e-05
1750.0 1.1813e-05
1770.0 1.2375e-05
1790.0 1.2919e-05
1810.0 1.343e-05
1830.0 1.3914e-05
1850.0 1.4308e-05
1870.0 1.4602e-05
1890.0 1.4892e-05
1910.0 1.5196e-05
1930.0 1.5514e-05
1950.0 1.5833e-05
1970.0 1.6154e-05
1990.0 1.6488e-05
2010.0 1.6818e-05
2030.0 1.7136e-05
2050.0 1.7464e-05
2070.0 1.7816e-05
2090.0 1.8158e-05
2110.0 1.8503e-05
2130.0 1.8864e-05
2150.0 1.9224e-05
2170.0 1.9575e-05
2190.0 1.9942e-05
2210.0 2.0251e-05
2230.0 2.047e-05
2250.0 2.0683e-05
2270.0 2.0908e-05
2290.0 2.1121e-05
2310.0 2.132e-05
2330.0 2.1529e-05
2350.0 2.1741e-05
2370.0 2.1941e-05
2390.0 2.2147e-05
2410.0 2.2372e-05
2430.0 2.2595e-05
2450.0 2.283e-05
2470.0 2.311e-05
2490.0 2.3463e-05
2510.0 2.3897e-05
2530.0 2.4496e-05
2550.0 2.5365e-05
2570.0 2.6559e-05
2590.0 2.8155e-05
2610.0 3.0444e-05
2630.0 3.3468e-05
2650.0 3.7141e-05
2670.0 4.1641e-05
2690.0 4.7041e-05
2710.0 5.2908e-05
2730.0 5.904e-05
2750.0 6.5636e-05
2770.0 7.2171e-05
2790.0 7.8274e-05
2810.0 8.405e-05
2830.0 8.9511e-05
2850.0 9.4208e-05
2870.0 9.8464e-05
2890.0 0.00010251
2910.0 0.00010637
2930.0 0.00011013
2950.0 0.00011402
2970.0 0.0001181
2990.0 0.0001223
3010.0 0.00012671
3030.0 0.0001314
3050.0 0.00013631
3070.0 0.00014134
3090.0 0.00014664
3110.0 0.00015224
3130.0 0.00015824
3150.0 0.00016552
3170.0 0.00017447
3190.0 0.00018598
3210.0 0.00020081
3230.0 0.00022007
3250.0 0.00024328
3270.0 0.00026362
3290.0 0.00029877
3310.0 0.00037655
3330.0 0.00040162
3350.0 0.00041344
3370.0 0.00042469
3390.0 0.00043617
3410.0 0.00044802
3430.0 0.00046014
3450.0 0.00047231
3470.0 0.00048418
3490.0 0.00049596
3510.0 0.0005081
3530.0 0.00050515
3550.0 0.00049088
3570.0 0.00049574
3590.0 0.0005208
3610.0 0.00056528
3630.0 0.00057559
3650.0 0.00055029
3670.0 0.0005085
3690.0 0.00048765
3710.0 0.00049779
3730.0 0.00051418
3750.0 0.00052253
3770.0 0.00054015
3790.0 0.00055992
3810.0 0.000549
3830.0 0.00051212
3850.0 0.00048123
3870.0 0.00046691
3890.0 0.00045892
3910.0 0.00044652
3930.0 0.00044118
3950.0 0.00045275
3970.0 0.00046633
3990.0 0.00047151
4010.0 0.00045243
4030.0 0.00042782
4050.0 0.00041259
4070.0 0.00039968
4090.0 0.00038832
4110.0 0.00037295
4130.0 0.00035014
4150.0 0.00032788
4170.0 0.00031472
4190.0 0.00029232
4210.0 0.00026497
4230.0 0.00023701
4250.0 0.00021099
4270.0 0.00019221
4290.0 0.00017688
4310.0 0.00016907
4330.0 0.00016889
4350.0 0.0001676
4370.0 0.00016924
4390.0 0.00017418
4410.0 0.0001777
4430.0 0.00017015
4450.0 0.00015503
4470.0 0.00014247
4490.0 0.00013501
4510.0 0.00013062
4530.0 0.00012856
4550.0 0.00012694
4570.0 0.00012655
4590.0 0.00012825
4610.0 0.00013342
4630.0 0.00013653
4650.0 0.00013856
4670.0 0.00013516
4690.0 0.00012772
4710.0 0.00011999
4730.0 0.00011547
4750.0 0.0001126
4770.0 0.00011262
4790.0 0.00011222
4810.0 0.00010978
4830.0 0.00010939
4850.0 0.00011306
4870.0 0.00011401
4890.0 0.00011186
4910.0 0.00010981
4930.0 0.0001037
4950.0 9.4088e-05
4970.0 8.8028e-05
4990.0 8.3058e-05
5010.0 8.1866e-05
5030.0 8.4658e-05
5050.0 8.6912e-05
5070.0 9.0122e-05
5090.0 9.5591e-05
5110.0 9.7124e-05
5130.0 9.7927e-05
5150.0 9.9871e-05
5170.0 0.00010044
5190.0 0.00010311
5210.0 0.00010371
5230.0 0.00010256
5250.0 0.0001036
5270.0 0.0001052
5290.0 0.00010556
5310.0 0.00010472
5330.0 0.0001028
5350.0 0.00010111
5370.0 0.0001001
5390.0 9.894e-05
5410.0 9.7777e-05
5430.0 9.7943e-05
5450.0 9.9135e-05
5470.0 0.00010097
5490.0 0.00010298
5510.0 0.00010619
5530.0 0.00010744
5550.0 0.00010934
5570.0 0.000109
5590.0 0.00010593
5610.0 0.00010509
5630.0 0.0001062
5650.0 0.0001048
5670.0 0.00010245
5690.0 9.9038e-05
5710.0 9.9335e-05
5730.0 0.00010009
5750.0 9.5703e-05
5770.0 9.0896e-05
5790.0 8.2649e-05
5810.0 7.1448e-05
5830.0 7.7641e-05
5850.0 8.7259e-05
5870.0 8.9714e-05
5890.0 9.0252e-05
5910.0 9.0371e-05
5930.0 9.0408e-05
5950.0 8.861e-05
5970.0 8.7483e-05
5990.0 8.586e-05
6010.0 8.3356e-05
6030.0 8.0275e-05
6050.0 7.9071e-05
6070.0 7.9248e-05
6090.0 7.7678e-05
6110.0 7.4833e-05
6130.0 7.2496e-05
6150.0 6.945e-05
6170.0 6.6317e-05
6190.0 6.416e-05
6210.0 6.1735e-05
6230.0 6.0542e-05
6250.0 5.9263e-05
6270.0 5.8015e-05
6290.0 5.72e-05
6310.0 5.6363e-05
6330.0 5.4999e-05
6350.0 5.3249e-05
6370.0 5.203e-05
6390.0 5.1472e-05
6410.0 4.98e-05
6430.0 4.8644e-05
6450.0 4.7399e-05
6470.0 4.6198e-05
6490.0 4.537e-05
6510.0 4.5011e-05
6530.0 4.3717e-05
6550.0 4.2735e-05
6570.0 4.2317e-05
6590.0 4.1965e-05
6610.0 4.1658e-05
6630.0 4.0158e-05
6650.0 3.9222e-05
6670.0 3.895e-05
6690.0 3.8407e-05
6710.0 3.7578e-05
6730.0 3.7337e-05
6750.0 3.7627e-05
6770.0 4.0251e-05
6790.0 4.6191e-05
6810.0 4.3612e-05
6830.0 3.7437e-05
6850.0 3.6195e-05
6870.0 3.5628e-05
6890.0 3.5673e-05
6910.0 3.5771e-05
6930.0 3.5963e-05
6950.0 3.5653e-05
6970.0 3.4763e-05
6990.0 3.4447e-05
7010.0 3.4999e-05
7030.0 3.4987e-05
7050.0 3.4462e-05
7070.0 3.4596e-05
7090.0 3.5264e-05
7110.0 3.6034e-05
7130.0 3.6164e-05
7150.0 3.62e-05
7170.0 3.6404e-05
7190.0 3.6952e-05
7210.0 3.7151e-05
7230.0 3.7162e-05
7250.0 3.7707e-05
7270.0 3.8009e-05
7290.0 3.8436e-05
7310.0 3.9487e-05
7330.0 3.9257e-05
7350.0 3.8498e-05
7370.0 3.7663e-05
7390.0 3.7188e-05
7410.0 3.7915e-05
7430.0 3.8303e-05
7450.0 3.8575e-05
7470.0 3.8778e-05
7490.0 3.846e-05
7510.0 3.8312e-05
7530.0 3.8557e-05
7550.0 4.056e-05
7570.0 4.0389e-05
7590.0 3.8159e-05
7610.0 3.7343e-05
7630.0 3.9817e-05
7650.0 4.0339e-05
7670.0 4.1287e-05
7690.0 4.2969e-05
7710.0 4.4449e-05
7730.0 4.4715e-05
7750.0 4.7213e-05
7770.0 4.568e-05
7790.0 4.4297e-05
7810.0 4.7397e-05
7830.0 4.8875e-05
7850.0 5.0688e-05
7870.0 5.1223e-05
7890.0 5.1927e-05
7910.0 5.1522e-05
7930.0 5.2036e-05
7950.0 5.424e-05
7970.0 5.4334e-05
7990.0 5.0547e-05
8010.0 0.00028896
8030.0 0.00027458
8050.0 0.00026924
8070.0 0.00026568
8090.0 0.00026562
8110.0 0.00025167
8130.0 0.00026751
8150.0 0.0002893
8170.0 0.00030329
8190.0 0.00032496
8210.0 0.0003038
8230.0 0.00030053
8250.0 0.00029465
8270.0 0.00030776
8290.0 0.00031001
8310.0 0.00029062
8330.0 0.00026808
8350.0 0.00027938
8370.0 0.0002896
8390.0 0.00028016
8410.0 0.00027693
8430.0 0.00026618
8450.0 0.00025042
8470.0 0.00027573
8490.0 0.00027664
8510.0 0.00025456
8530.0 0.00026549
8550.0 0.0002637
8570.0 0.00023496
8590.0 0.00024233
8610.0 0.00023716
8630.0 0.0002556
8650.0 0.00025783
8670.0 0.00026521
8690.0 0.00025798
8710.0 0.0002589
8730.0 0.00024241
8750.0 0.00023225
8770.0 0.00022765
8790.0 0.00025217
8810.0 0.0002262
8830.0 0.00021778
8850.0 0.00023719
8870.0 0.00022389
8890.0 0.0002
8910.0 0.00019908
8930.0 0.00021495
8950.0 0.00018838
8970.0 0.00017874
8990.0 0.00017428
9010.0 0.00016163
9030.0 0.0001589
9050.0 0.00015828
9070.0 0.00015777
9090.0 0.00015725
9110.0 0.00015675
9130.0 0.00015622
9150.0 0.00015568
9170.0 0.00015513
9190.0 0.00015458
9210.0 0.00015402
9230.0 0.00015347
9250.0 0.0001529
9270.0 0.00015233
9290.0 0.00015176
9310.0 0.00015137
9330.0 0.00015126
9350.0 0.00015115
9370.0 0.00015102
9390.0 0.00015088
9410.0 0.00015074
9430.0 0.00015059
9450.0 0.00015042
9470.0 0.00015034
9490.0 0.0001502
9510.0 0.00014996
9530.0 0.00014971
9550.0 0.00014949
9570.0 0.00014927
9590.0 0.00014903
9610.0 0.00014913
9630.0 0.00014926
9650.0 0.00014937
9670.0 0.00014944
9690.0 0.00014952
9710.0 0.00014959
9730.0 0.00014962
9750.0 0.00014965
9770.0 0.00014969
9790.0 0.00014969
9810.0 0.00014967
9830.0 0.00014966
9850.0 0.00014952
9870.0 0.00014924
9890.0 0.00014932
9910.0 0.00014934
9930.0 0.00014925
9950.0 0.00014917
9970.0 0.0001491
9990.0 0.00014901
10010.0 0.00014888
10030.0 0.00014875
10050.0 0.0001486
10070.0 0.00014843
10090.0 0.00014826
10110.0 0.00014808
10130.0 0.00014788
10150.0 0.00014768
10170.0 0.00014747
10190.0 0.00014725
10210.0 0.00014702
10230.0 0.00014678
10250.0 0.00014653
10270.0 0.00014628
10290.0 0.00014601
10310.0 0.00014574
10330.0 0.00014547
10350.0 0.00014519
10370.0 0.0001449
10390.0 0.0001446
10410.0 0.0001442
10430.0 0.00014376
10450.0 0.00014355
10470.0 0.00014329
10490.0 0.000143
10510.0 0.00014269
10530.0 0.00014237
10550.0 0.00014204
10570.0 0.0001417
10590.0 0.00014136
10610.0 0.00014101
10630.0 0.00014066
10650.0 0.00014031
10670.0 0.00013995
10690.0 0.00013959
10710.0 0.00013923
10730.0 0.00013886
10750.0 0.00013849
10770.0 0.00013813
10790.0 0.00013776
10810.0 0.00013739
10830.0 0.00013701
10850.0 0.00013664
10870.0 0.00013626
10890.0 0.00013586
10910.0 0.00013546
10930.0 0.00013503
10950.0 0.00013456
10970.0 0.00013404
10990.0 0.00013347
11010.0 1.3827e-05
11030.0 1.3725e-05
11050.0 1.3626e-05
11070.0 1.3527e-05
11090.0 1.3422e-05
11110.0 1.3322e-05
11130.0 1.3222e-05
11150.0 1.3118e-05
11170.0 1.3013e-05
11190.0 1.2912e-05
11210.0 1.2808e-05
11230.0 1.2702e-05
11250.0 1.2599e-05
11270.0 1.2499e-05
11290.0 1.2398e-05
11310.0 1.23e-05
11330.0 1.221e-05
11350.0 1.2121e-05
11370.0 1.2036e-05
11390.0 1.1957e-05
11410.0 1.1883e-05
11430.0 1.1809e-05
11450.0 1.174e-05
11470.0 1.1675e-05
11490.0 1.1612e-05
11510.0 1.1547e-05
11530.0 1.1486e-05
11550.0 1.1426e-05
11570.0 1.1362e-05
11590.0 1.1299e-05
11610.0 1.1236e-05
11630.0 1.117e-05
11650.0 1.11e-05
11670.0 1.1031e-05
11690.0 1.0962e-05
11710.0 1.0888e-05
11730.0 1.0814e-05
11750.0 1.0743e-05
11770.0 1.0668e-05
11790.0 1.0591e-05
11810.0 1.0518e-05
11830.0 1.0445e-05
11850.0 1.037e-05
11870.0 1.0298e-05
11890.0 1.023e-05
11910.0 1.0163e-05
11930.0 1.0097e-05
11950.0 1.0037e-05
11970.0 9.9794e-06
11990.0 9.9229e-06
12010.0 9.8714e-06
12030.0 9.8246e-06
12050.0 9.7799e-06
12070.0 9.7378e-06
12090.0 9.7017e-06
12110.0 9.6681e-06
12130.0 9.6363e-06
12150.0 9.6078e-06
12170.0 9.5822e-06
12190.0 9.5564e-06
12210.0 9.5318e-06
12230.0 9.5084e-06
12250.0 9.4842e-06
12270.0 9.4578e-06
12290.0 9.4302e-06
12310.0 9.401e-06
12330.0 9.3671e-06
12350.0 9.3296e-06
12370.0 9.2893e-06
12390.0 9.2444e-06
12410.0 9.1921e-06
12430.0 9.1382e-06
12450.0 9.0808e-06
12470.0 9.0174e-06
12490.0 8.9501e-06
12510.0 8.8826e-06
12530.0 8.8103e-06
12550.0 8.7336e-06
12570.0 8.6574e-06
12590.0 8.5807e-06
12610.0 8.4997e-06
12630.0 8.4183e-06
12650.0 8.3414e-06
12670.0 8.2628e-06
12690.0 8.1838e-06
12710.0 8.1089e-06
12730.0 8.0368e-06
12750.0 7.9631e-06
12770.0 7.8939e-06
12790.0 7.8299e-06
12810.0 7.7678e-06
12830.0 7.7077e-06
12850.0 7.6542e-06
12870.0 7.6048e-06
12890.0 7.5576e-06
12910.0 7.5154e-06
12930.0 7.4788e-06
12950.0 7.445e-06
12970.0 7.4153e-06
12990.0 7.3916e-06
13010.0 7.3721e-06
13030.0 7.3563e-06
13050.0 7.3448e-06
13070.0 7.3371e-06
13090.0 7.3322e-06
13110.0 7.3296e-06
13130.0 7.3287e-06
13150.0 7.3286e-06
13170.0 7.3281e-06
13190.0 7.3265e-06
13210.0 7.3229e-06
13230.0 7.3163e-06
13250.0 7.3061e-06
13270.0 7.2922e-06
13290.0 7.2739e-06
13310.0 7.25e-06
13330.0 7.2219e-06
13350.0 7.1898e-06
13370.0 7.1521e-06
13390.0 7.109e-06
13410.0 7.0644e-06
13430.0 7.0154e-06
13450.0 6.9615e-06
13470.0 6.9056e-06
13490.0 6.8486e-06
13510.0 6.7853e-06
13530.0 6.7204e-06
13550.0 6.656e-06
13570.0 6.5891e-06
13590.0 6.5187e-06
13610.0 6.4493e-06
13630.0 6.3808e-06
13650.0 6.3087e-06
13670.0 6.2365e-06
13690.0 6.1667e-06
13710.0 6.0959e-06
13730.0 6.0219e-06
13750.0 5.9529e-06
13770.0 5.8854e-06
13790.0 5.817e-06
13810.0 5.7505e-06
13830.0 5.6886e-06
13850.0 5.6264e-06
13870.0 5.5653e-06
13890.0 5.5083e-06
13910.0 5.4539e-06
13930.0 5.3995e-06
13950.0 5.3476e-06
13970.0 5.3004e-06
13990.0 5.2536e-06
14010.0 5.2081e-06
14030.0 5.1659e-06
14050.0 5.1258e-06
14070.0 5.0853e-06
14090.0 5.0478e-06
14110.0 5.013e-06
14130.0 4.979e-06
14150.0 4.946e-06
14170.0 4.9159e-06
14190.0 4.8872e-06
14210.0 4.8588e-06
14230.0 4.832e-06
14250.0 4.8068e-06
14270.0 4.7815e-06
14290.0 4.7566e-06
14310.0 4.7334e-06
14330.0 4.7105e-06
14350.0 4.6873e-06
14370.0 4.665e-06
14390.0 4.6436e-06
14410.0 4.6216e-06
14430.0 4.5998e-06
14450.0 4.5789e-06
14470.0 4.5581e-06
14490.0 4.5364e-06
14510.0 4.5156e-06
14530.0 4.4953e-06
14550.0 4.4744e-06
14570.0 4.4532e-06
14590.0 4.4328e-06
14610.0 4.4118e-06
14630.0 4.39e-06
14650.0 4.3685e-06
14670.0 4.3472e-06
14690.0 4.325e-06
14710.0 4.3022e-06
14730.0 4.2804e-06
14750.0 4.2579e-06
14770.0 4.2344e-06
14790.0 4.2112e-06
14810.0 4.1882e-06
14830.0 4.1633e-06
14850.0 4.1385e-06
14870.0 4.1142e-06
14890.0 4.0894e-06
14910.0 4.0641e-06
14930.0 4.04e-06
14950.0 4.0172e-06
14970.0 3.9948e-06
14990.0 3.9743e-06
15010.0 3.9562e-06
15030.0 3.9397e-06
15050.0 3.9243e-06
15070.0 3.9113e-06
15090.0 3.8992e-06
15110.0 3.8876e-06
15130.0 3.8764e-06
15150.0 3.866e-06
15170.0 3.8552e-06
15190.0 3.8444e-06
15210.0 3.834e-06
15230.0 3.8236e-06
15250.0 3.8129e-06
15270.0 3.8022e-06
15290.0 3.7921e-06
15310.0 3.7816e-06
15330.0 3.771e-06
15350.0 3.7608e-06
15370.0 3.7506e-06
15390.0 3.7399e-06
15410.0 3.7295e-06
15430.0 3.7194e-06
15450.0 3.709e-06
15470.0 3.6985e-06
15490.0 3.6884e-06
15510.0 3.6784e-06
15530.0 3.668e-06
15550.0 3.6578e-06
15570.0 3.6479e-06
15590.0 3.6376e-06
15610.0 3.6272e-06
15630.0 3.6173e-06
15650.0 3.6073e-06
15670.0 3.5971e-06
15690.0 3.587e-06
15710.0 3.5773e-06
15730.0 3.5672e-06
15750.0 3.5571e-06
15770.0 3.5474e-06
15790.0 3.5376e-06
15810.0 3.5273e-06
15830.0 3.5175e-06
15850.0 3.5079e-06
15870.0 3.498e-06
15890.0 3.4881e-06
15910.0 3.4786e-06
15930.0 3.4689e-06
15950.0 3.459e-06
15970.0 3.4493e-06
15990.0 3.4398e-06
16010.0 3.4301e-06
16030.0 3.4202e-06
16050.0 3.4109e-06
16070.0 3.4014e-06
16090.0 3.3917e-06
16110.0 3.3823e-06
16130.0 3.373e-06
16150.0 3.3632e-06
16170.0 3.3537e-06
16190.0 3.3444e-06
16210.0 3.335e-06
16230.0 3.3254e-06
16250.0 3.3162e-06
16270.0 3.3071e-06
16290.0 3.2976e-06
16310.0 3.2882e-06
16330.0 3.2791e-06
16350.0 3.2699e-06
16370.0 3.2602e-06
16390.0 3.2511e-06
16410.0 3.2421e-06
16430.0 3.2328e-06
16450.0 3.2235e-06
16470.0 3.2147e-06
16490.0 3.2055e-06
16510.0 3.1961e-06
16530.0 3.1871e-06
16550.0 3.1782e-06
16570.0 3.1689e-06
16590.0 3.1597e-06
16610.0 3.1509e-06
16630.0 3.1419e-06
16650.0 3.1327e-06
16670.0 3.1239e-06
16690.0 3.1151e-06
16710.0 3.1058e-06
16730.0 3.0968e-06
16750.0 3.088e-06
16770.0 3.079e-06
16790.0 3.0699e-06
16810.0 3.0612e-06
16830.0 3.0524e-06
16850.0 3.0433e-06
16870.0 3.0345e-06
16890.0 3.0258e-06
16910.0 3.0168e-06
16930.0 3.0077e-06
16950.0 2.999e-06
16970.0 2.9903e-06
16990.0 2.9813e-06
17010.0 2.9725e-06
17030.0 2.9639e-06
17050.0 2.955e-06
17070.0 2.946e-06
17090.0 2.9374e-06
17110.0 2.9287e-06
17130.0 2.9196e-06
17150.0 2.9108e-06
17170.0 2.9023e-06
17190.0 2.8934e-06
17210.0 2.8846e-06
17230.0 2.8761e-06
17250.0 2.8673e-06
17270.0 2.8583e-06
17290.0 2.8496e-06
17310.0 2.841e-06
17330.0 2.8321e-06
17350.0 2.8232e-06
17370.0 2.8147e-06
17390.0 2.806e-06
17410.0 2.7971e-06
17430.0 2.7885e-06
17450.0 2.78e-06
17470.0 2.7709e-06
17490.0 2.7621e-06
17510.0 2.7536e-06
17530.0 2.7448e-06
17550.0 2.7359e-06
17570.0 2.7273e-06
17590.0 2.7188e-06
17610.0 2.7098e-06
17630.0 2.701e-06
17650.0 2.6925e-06
17670.0 2.6837e-06
17690.0 2.6746e-06
17710.0 2.666e-06
17730.0 2.6574e-06
17750.0 2.6485e-06
17770.0 2.6397e-06
17790.0 2.6313e-06
17810.0 2.6224e-06
17830.0 2.6134e-06
17850.0 2.6048e-06
17870.0 2.5961e-06
17890.0 2.5871e-06
17910.0 2.5782e-06
17930.0 2.5697e-06
17950.0 2.5609e-06
17970.0 2.552e-06
17990.0 2.5434e-06
18010.0 2.5347e-06
18030.0 2.5255e-06
18050.0 2.5167e-06
18070.0 2.5081e-06
18090.0 2.4992e-06
18110.0 2.4901e-06
18130.0 2.4815e-06
18150.0 2.4728e-06
18170.0 2.4638e-06
18190.0 2.4549e-06
18210.0 2.4463e-06
18230.0 2.4373e-06
18250.0 2.4281e-06
18270.0 2.4195e-06
18290.0 2.4107e-06
18310.0 2.4016e-06
18330.0 2.3927e-06
18350.0 2.3841e-06
18370.0 2.375e-06
18390.0 2.366e-06
18410.0 2.3572e-06
18430.0 2.3483e-06
18450.0 2.3391e-06
18470.0 2.3302e-06
18490.0 2.3215e-06
18510.0 2.3124e-06
18530.0 2.3033e-06
18550.0 2.2946e-06
18570.0 2.2856e-06
18590.0 2.2764e-06
18610.0 2.2674e-06
18630.0 2.2586e-06
18650.0 2.2494e-06
18670.0 2.2402e-06
18690.0 2.2315e-06
18710.0 2.2225e-06
18730.0 2.2133e-06
18750.0 2.2043e-06
18770.0 2.1955e-06
18790.0 2.1861e-06
18810.0 2.1769e-06
18830.0 2.1681e-06
18850.0 2.159e-06
18870.0 2.1497e-06
18890.0 2.1407e-06
18910.0 2.1318e-06
18930.0 2.1225e-06
18950.0 2.1133e-06
18970.0 2.1044e-06
18990.0 2.0952e-06
19010.0 2.0857e-06
19030.0 2.0768e-06
19050.0 2.0677e-06
19070.0 2.0584e-06
19090.0 2.0492e-06
19110.0 2.0404e-06
19130.0 2.031e-06
19150.0 2.0216e-06
19170.0 2.0126e-06
19190.0 2.0034e-06
19210.0 1.994e-06
19230.0 1.9847e-06
19250.0 1.9757e-06
19270.0 1.9664e-06
19290.0 1.9571e-06
19310.0 1.948e-06
19330.0 1.9389e-06
19350.0 1.9292e-06
19370.0 1.92e-06
19390.0 1.9109e-06
19410.0 1.9015e-06
19430.0 1.892e-06
19450.0 1.883e-06
19470.0 1.8738e-06
19490.0 1.8643e-06
19510.0 1.855e-06
19530.0 1.8459e-06
19550.0 1.8364e-06
19570.0 1.8268e-06
19590.0 1.8177e-06
19610.0 1.8084e-06
19630.0 1.7989e-06
19650.0 1.7896e-06
19670.0 1.7805e-06
19690.0 1.7709e-06
19710.0 1.7614e-06
19730.0 1.7523e-06
19750.0 1.7429e-06
19770.0 1.7332e-06
19790.0 1.7239e-06
19810.0 1.7147e-06
19830.0 1.7052e-06
19850.0 1.6958e-06
19870.0 1.6867e-06
19890.0 1.6774e-06
19910.0 1.6681e-06
19930.0 1.6595e-06
19950.0 1.6513e-06
19970.0 1.6436e-06
19990.0 1.6367e-06
20010.0 1.631e-06
20030.0 1.6261e-06
20050.0 1.6221e-06
20070.0 1.6189e-06
20090.0 1.6164e-06
20110.0 1.6142e-06
20130.0 1.6124e-06
20150.0 1.6107e-06
20170.0 1.609e-06
20190.0 1.6072e-06
20210.0 1.6054e-06
20230.0 1.6036e-06
20250.0 1.6016e-06
20270.0 1.5994e-06
20290.0 1.5972e-06
20310.0 1.5949e-06
20330.0 1.5922e-06
20350.0 1.5897e-06
20370.0 1.5869e-06
20390.0 1.584e-06
20410.0 1.581e-06
20430.0 1.578e-06
20450.0 1.5748e-06
20470.0 1.5715e-06
20490.0 1.5683e-06
20510.0 1.5651e-06
20530.0 1.5617e-06
20550.0 1.5585e-06
20570.0 1.5555e-06
20590.0 1.5524e-06
20610.0 1.5494e-06
20630.0 1.5465e-06
20650.0 1.5437e-06
20670.0 1.5408e-06
20690.0 1.538e-06
20710.0 1.5353e-06
20730.0 1.5324e-06
20750.0 1.5294e-06
20770.0 1.5264e-06
20790.0 1.5232e-06
20810.0 1.5197e-06
20830.0 1.516e-06
20850.0 1.5122e-06
20870.0 1.5079e-06
20890.0 1.5033e-06
20910.0 1.4987e-06
20930.0 1.4938e-06
20950.0 1.4885e-06
20970.0 1.4832e-06
20990.0 1.4778e-06
21010.0 1.4721e-06
21030.0 1.4663e-06
21050.0 1.4607e-06
21070.0 1.455e-06
21090.0 1.4491e-06
21110.0 1.4436e-06
21130.0 1.4382e-06
21150.0 1.4326e-06
21170.0 1.4272e-06
21190.0 1.422e-06
21210.0 1.4167e-06
21230.0 1.4113e-06
21250.0 1.4061e-06
21270.0 1.401e-06
21290.0 1.3955e-06
21310.0 1.3901e-06
21330.0 1.3848e-06
21350.0 1.3792e-06
21370.0 1.3734e-06
21390.0 1.367e-06
21410.0 1.3605e-06
21430.0 1.3534e-06
21450.0 1.3464e-06
21470.0 1.3394e-06
21490.0 1.3321e-06
21510.0 1.3245e-06
21530.0 1.3172e-06
21550.0 1.3096e-06
21570.0 1.3017e-06
21590.0 1.2938e-06
21610.0 1.2861e-06
21630.0 1.2782e-06
21650.0 1.2699e-06
21670.0 1.2622e-06
21690.0 1.2544e-06
21710.0 1.2464e-06
21730.0 1.2385e-06
21750.0 1.2309e-06
21770.0 1.2229e-06
21790.0 1.2149e-06
21810.0 1.2072e-06
21830.0 1.1995e-06
21850.0 1.1914e-06
21870.0 1.1836e-06
21890.0 1.1761e-06
21910.0 1.1682e-06
21930.0 1.1604e-06
21950.0 1.1528e-06
21970.0 1.1452e-06
21990.0 1.1374e-06
22010.0 1.13e-06
22030.0 1.1229e-06
22050.0 1.1157e-06
22070.0 1.1088e-06
22090.0 1.1028e-06
22110.0 1.0969e-06
22130.0 1.0911e-06
22150.0 1.0857e-06
22170.0 1.0807e-06
22190.0 1.0756e-06
22210.0 1.0709e-06
22230.0 1.0667e-06
22250.0 1.0625e-06
22270.0 1.0585e-06
22290.0 1.0548e-06
22310.0 1.0512e-06
22330.0 1.0476e-06
22350.0 1.0442e-06
22370.0 1.0409e-06
22390.0 1.0375e-06
22410.0 1.0341e-06
22430.0 1.0308e-06
22450.0 1.0276e-06
22470.0 1.0242e-06
22490.0 1.0208e-06
22510.0 1.0174e-06
22530.0 1.0139e-06
22550.0 1.0103e-06
22570.0 1.0069e-06
22590.0 1.0034e-06
22610.0 9.9985e-07
22630.0 9.9636e-07
22650.0 9.9307e-07
