#lamb flux
1010.0 5.0159e-05
1030.0 6.216e-05
1050.0 7.5273e-05
1070.0 8.9139e-05
1090.0 0.00010381
1110.0 0.00011728
1130.0 0.00012945
1150.0 0.00014501
1170.0 0.00016076
1190.0 0.0001752
1210.0 0.00018791
1230.0 0.00020068
1250.0 0.00021282
1270.0 0.00022444
1290.0 0.0002371
1310.0 0.00025018
1330.0 0.00026333
1350.0 0.00027763
1370.0 0.0002936
1390.0 0.00031056
1410.0 0.00032852
1430.0 0.00034866
1450.0 0.0003703
1470.0 0.00039278
1490.0 0.00041668
1510.0 0.00043903
1530.0 0.00045966
1550.0 0.00048386
1570.0 0.00052702
1590.0 0.00057087
1610.0 0.000614
1630.0 0.00065743
1650.0 0.00070087
1670.0 0.0007428
1690.0 0.00078344
1710.0 0.0008238
1730.0 0.00086314
1750.0 0.00089986
1770.0 0.00093602
1790.0 0.00097149
1810.0 0.001005
1830.0 0.0010371
1850.0 0.0010694
1870.0 0.0010999
1890.0 0.0011287
1910.0 0.0011573
1930.0 0.0011857
1950.0 0.0012126
1970.0 0.0012385
1990.0 0.0012646
2010.0 0.0012895
2030.0 0.0013128
2050.0 0.0013361
2070.0 0.0013599
2090.0 0.0013819
2110.0 0.0014035
2130.0 0.0014253
2150.0 0.0014464
2170.0 0.0014661
2190.0 0.0014864
2210.0 0.0015065
2230.0 0.0015252
2250.0 0.0015436
2270.0 0.0015629
2290.0 0.0015814
2310.0 0.0015988
2330.0 0.001617
2350.0 0.0016353
2370.0 0.0016526
2390.0 0.0016701
2410.0 0.0016888
2430.0 0.0017071
2450.0 0.0017259
2470.0 0.0017475
2490.0 0.001774
2510.0 0.0018059
2530.0 0.0018492
2550.0 0.0019116
2570.0 0.0019973
2590.0 0.0021117
2610.0 0.0022762
2630.0 0.0024938
2650.0 0.0027577
2670.0 0.0030804
2690.0 0.0034666
2710.0 0.0038832
2730.0 0.0043138
2750.0 0.0047721
2770.0 0.0052175
2790.0 0.0056217
2810.0 0.0059918
2830.0 0.006328
2850.0 0.0065979
2870.0 0.0068253
2890.0 0.0070268
2910.0 0.0072047
2930.0 0.0073639
2950.0 0.0075212
2970.0 0.0076789
2990.0 0.0078331
3010.0 0.0079877
3030.0 0.0081478
3050.0 0.0083087
3070.0 0.008463
3090.0 0.0086204
3110.0 0.0087823
3130.0 0.0089523
3150.0 0.0091769
3170.0 0.0094769
3190.0 0.0098945
3210.0 0.010461
3230.0 0.011225
3250.0 0.012147
3270.0 0.012878
3290.0 0.014279
3310.0 0.017628
3330.0 0.018405
3350.0 0.018547
3370.0 0.018654
3390.0 0.018764
3410.0 0.018888
3430.0 0.019023
3450.0 0.019163
3470.0 0.019293
3490.0 0.019429
3510.0 0.019606
3530.0 0.019301
3550.0 0.018554
3570.0 0.018342
3590.0 0.018967
3610.0 0.020348
3630.0 0.020423
3650.0 0.019349
3670.0 0.017831
3690.0 0.017122
3710.0 0.017509
3730.0 0.018088
3750.0 0.01841
3770.0 0.019103
3790.0 0.019917
3810.0 0.019633
3830.0 0.018495
3850.0 0.017611
3870.0 0.017332
3890.0 0.017254
3910.0 0.01704
3930.0 0.017143
3950.0 0.017934
3970.0 0.01886
3990.0 0.019516
4010.0 0.019166
4030.0 0.018587
4050.0 0.018407
4070.0 0.018325
4090.0 0.018308
4110.0 0.018093
4130.0 0.017493
4150.0 0.016876
4170.0 0.016693
4190.0 0.015985
4210.0 0.014934
4230.0 0.013766
4250.0 0.01262
4270.0 0.011826
4290.0 0.011206
4310.0 0.011016
4330.0 0.011307
4350.0 0.011559
4370.0 0.011974
4390.0 0.012658
4410.0 0.013237
4430.0 0.012992
4450.0 0.01207
4470.0 0.011273
4490.0 0.010868
4510.0 0.010668
4530.0 0.010637
4550.0 0.010618
4570.0 0.010693
4590.0 0.010934
4610.0 0.011411
4630.0 0.011712
4650.0 0.011897
4670.0 0.011626
4690.0 0.010964
4710.0 0.010271
4730.0 0.0098272
4750.0 0.0095235
4770.0 0.0095713
4790.0 0.009452
4810.0 0.0091668
4830.0 0.009225
4850.0 0.0093098
4870.0 0.0094345
4890.0 0.0090298
4910.0 0.0086029
4930.0 0.0079639
4950.0 0.0072348
4970.0 0.0066273
4990.0 0.0061242
5010.0 0.0059945
5030.0 0.0061091
5050.0 0.0060556
5070.0 0.006168
5090.0 0.0064132
5110.0 0.0063765
5130.0 0.0063173
5150.0 0.0062949
5170.0 0.0062821
5190.0 0.0063601
5210.0 0.0062317
5230.0 0.0060914
5250.0 0.0059993
5270.0 0.0059167
5290.0 0.0058525
5310.0 0.0057755
5330.0 0.0055869
5350.0 0.0054897
5370.0 0.0053668
5390.0 0.0052247
5410.0 0.0051361
5430.0 0.0050613
5450.0 0.0051545
5470.0 0.0052311
5490.0 0.0052596
5510.0 0.0054164
5530.0 0.0054803
5550.0 0.0055843
5570.0 0.0055818
5590.0 0.0054471
5610.0 0.0054324
5630.0 0.0055257
5650.0 0.0054955
5670.0 0.0054215
5690.0 0.005296
5710.0 0.005371
5730.0 0.005481
5750.0 0.0053129
5770.0 0.0051198
5790.0 0.0047342
5810.0 0.0041676
5830.0 0.0046034
5850.0 0.0052554
5870.0 0.005499
5890.0 0.0056386
5910.0 0.005767
5930.0 0.005885
5950.0 0.0058937
5970.0 0.0059448
5990.0 0.005968
6010.0 0.0059192
6030.0 0.0058316
6050.0 0.0058705
6070.0 0.0060011
6090.0 0.0060221
6110.0 0.0059366
6130.0 0.0058705
6150.0 0.0057496
6170.0 0.0056148
6190.0 0.0055164
6210.0 0.005422
6230.0 0.0054346
6250.0 0.0054226
6270.0 0.0054086
6290.0 0.0054455
6310.0 0.0054812
6330.0 0.0054447
6350.0 0.0053543
6370.0 0.0053218
6390.0 0.0053154
6410.0 0.0052247
6430.0 0.0051568
6450.0 0.0050929
6470.0 0.0050277
6490.0 0.0049929
6510.0 0.0049708
6530.0 0.0048742
6550.0 0.0047974
6570.0 0.0047622
6590.0 0.004762
6610.0 0.0047468
6630.0 0.0045945
6650.0 0.0044816
6670.0 0.0044442
6690.0 0.0043754
6710.0 0.0042687
6730.0 0.0042251
6750.0 0.0042433
6770.0 0.0044953
6790.0 0.0050716
6810.0 0.0047608
6830.0 0.0041086
6850.0 0.0039269
6870.0 0.0038321
6890.0 0.0037977
6910.0 0.0037675
6930.0 0.0037395
6950.0 0.0036739
6970.0 0.0035364
6990.0 0.003458
7010.0 0.0034626
7030.0 0.0034196
7050.0 0.0033183
7070.0 0.0032577
7090.0 0.0032485
7110.0 0.0032769
7130.0 0.0032234
7150.0 0.0031746
7170.0 0.003136
7190.0 0.0031366
7210.0 0.0030909
7230.0 0.0030465
7250.0 0.0030314
7270.0 0.0029987
7290.0 0.0029787
7310.0 0.0029917
7330.0 0.0029147
7350.0 0.002801
7370.0 0.0026931
7390.0 0.0026145
7410.0 0.0026021
7430.0 0.0025788
7450.0 0.0025457
7470.0 0.0025142
7490.0 0.0024461
7510.0 0.002386
7530.0 0.0023577
7550.0 0.0024351
7570.0 0.0023935
7590.0 0.0022001
7610.0 0.0021174
7630.0 0.0022149
7650.0 0.0022056
7670.0 0.0022157
7690.0 0.0023028
7710.0 0.0023248
7730.0 0.0022828
7750.0 0.0023909
7770.0 0.002259
7790.0 0.0021568
7810.0 0.0022744
7830.0 0.0023107
7850.0 0.0023648
7870.0 0.0023558
7890.0 0.0023582
7910.0 0.0023101
7930.0 0.0023167
7950.0 0.0024133
7970.0 0.0023704
7990.0 0.0021641
8010.0 0.0028911
8030.0 0.0028342
8050.0 0.0027877
8070.0 0.0027032
8090.0 0.002428
8110.0 0.0024053
8130.0 0.0026702
8150.0 0.0028155
8170.0 0.0028851
8190.0 0.0029975
8210.0 0.0029
8230.0 0.0029016
8250.0 0.0028925
8270.0 0.0028671
8290.0 0.0028191
8310.0 0.0026836
8330.0 0.0026412
8350.0 0.0027146
8370.0 0.0027425
8390.0 0.0026864
8410.0 0.002654
8430.0 0.0025717
8450.0 0.0025322
8470.0 0.0026944
8490.0 0.0027125
8510.0 0.0025589
8530.0 0.0025125
8550.0 0.0024833
8570.0 0.0023448
8590.0 0.0023515
8610.0 0.0023807
8630.0 0.002441
8650.0 0.0024425
8670.0 0.0024414
8690.0 0.0023968
8710.0 0.0023168
8730.0 0.0022588
8750.0 0.0022174
8770.0 0.0022156
8790.0 0.0022663
8810.0 0.0021624
8830.0 0.002147
8850.0 0.0022299
8870.0 0.002116
8890.0 0.0019815
8910.0 0.0019427
8930.0 0.0019219
8950.0 0.0018112
8970.0 0.0017373
8990.0 0.0017003
9010.0 0.0016106
9030.0 0.0015877
9050.0 0.0015794
9070.0 0.0015718
9090.0 0.0015641
9110.0 0.0015563
9130.0 0.0015484
9150.0 0.0015406
9170.0 0.0015327
9190.0 0.0015247
9210.0 0.0015167
9230.0 0.0015086
9250.0 0.0015004
9270.0 0.0014923
9290.0 0.001484
9310.0 0.0014764
9330.0 0.0014695
9350.0 0.0014626
9370.0 0.0014557
9390.0 0.0014487
9410.0 0.0014417
9430.0 0.0014347
9450.0 0.0014276
9470.0 0.0014213
9490.0 0.0014145
9510.0 0.001407
9530.0 0.0013995
9550.0 0.0013922
9570.0 0.001385
9590.0 0.0013777
9610.0 0.0013713
9630.0 0.001365
9650.0 0.0013587
9670.0 0.0013523
9690.0 0.001346
9710.0 0.0013396
9730.0 0.0013332
9750.0 0.0013268
9770.0 0.0013206
9790.0 0.0013142
9810.0 0.0013078
9830.0 0.0013015
9850.0 0.0012946
9870.0 0.0012871
9890.0 0.0012816
9910.0 0.0012758
9930.0 0.001269
9950.0 0.0012628
9970.0 0.001257
9990.0 0.0012511
10010.0 0.0012451
10030.0 0.0012391
10050.0 0.001233
10070.0 0.001227
10090.0 0.001221
10110.0 0.001215
10130.0 0.001209
10150.0 0.0012031
10170.0 0.0011972
10190.0 0.0011913
10210.0 0.0011855
10230.0 0.0011798
10250.0 0.001174
10270.0 0.0011683
10290.0 0.0011627
10310.0 0.0011571
10330.0 0.0011515
10350.0 0.001146
10370.0 0.0011406
10390.0 0.0011351
10410.0 0.0011289
10430.0 0.0011225
10450.0 0.0011181
10470.0 0.0011133
10490.0 0.0011084
10510.0 0.0011035
10530.0 0.0010984
10550.0 0.0010934
10570.0 0.0010886
10590.0 0.0010836
10610.0 0.0010787
10630.0 0.0010739
10650.0 0.0010692
10670.0 0.0010644
10690.0 0.0010597
10710.0 0.0010552
10730.0 0.0010506
10750.0 0.0010459
10770.0 0.0010415
10790.0 0.0010371
10810.0 0.0010327
10830.0 0.0010284
10850.0 0.0010242
10870.0 0.0010199
10890.0 0.0010156
10910.0 0.0010114
10930.0 0.0010071
10950.0 0.0010027
10970.0 0.00099818
10990.0 0.00099362
11010.0 0.00095544
11030.0 0.00095056
11050.0 0.00094578
11070.0 0.00094086
11090.0 0.0009355
11110.0 0.00093032
11130.0 0.00092511
11150.0 0.00091957
11170.0 0.00091387
11190.0 0.00090836
11210.0 0.0009026
11230.0 0.00089661
11250.0 0.00089081
11270.0 0.00088516
11290.0 0.00087934
11310.0 0.00087366
11330.0 0.00086853
11350.0 0.00086347
11370.0 0.00085855
11390.0 0.00085407
11410.0 0.0008499
11430.0 0.00084569
11450.0 0.00084178
11470.0 0.00083816
11490.0 0.00083456
11510.0 0.00083088
11530.0 0.00082741
11550.0 0.00082394
11570.0 0.00082024
11590.0 0.00081649
11610.0 0.00081276
11630.0 0.00080874
11650.0 0.00080445
11670.0 0.00080024
11690.0 0.00079589
11710.0 0.00079124
11730.0 0.00078654
11750.0 0.00078195
11770.0 0.00077711
11790.0 0.00077214
11810.0 0.00076735
11830.0 0.00076259
11850.0 0.00075759
11870.0 0.00075285
11890.0 0.00074839
11910.0 0.00074391
11930.0 0.00073956
11950.0 0.00073558
11970.0 0.00073178
11990.0 0.00072803
12010.0 0.00072464
12030.0 0.00072158
12050.0 0.00071866
12070.0 0.00071593
12090.0 0.00071363
12110.0 0.0007115
12130.0 0.0007095
12150.0 0.00070773
12170.0 0.00070616
12190.0 0.00070459
12210.0 0.00070309
12230.0 0.00070167
12250.0 0.00070019
12270.0 0.00069855
12290.0 0.0006968
12310.0 0.00069493
12330.0 0.00069271
12350.0 0.00069021
12370.0 0.00068751
12390.0 0.00068444
12410.0 0.00068083
12430.0 0.00067708
12450.0 0.00067307
12470.0 0.0006686
12490.0 0.00066383
12510.0 0.00065903
12530.0 0.00065386
12550.0 0.00064835
12570.0 0.00064287
12590.0 0.00063734
12610.0 0.00063147
12630.0 0.00062556
12650.0 0.00061997
12670.0 0.00061425
12690.0 0.00060847
12710.0 0.000603
12730.0 0.00059772
12750.0 0.0005923
12770.0 0.00058722
12790.0 0.0005825
12810.0 0.00057792
12830.0 0.00057348
12850.0 0.00056953
12870.0 0.00056587
12890.0 0.00056237
12910.0 0.00055924
12930.0 0.00055652
12950.0 0.00055401
12970.0 0.0005518
12990.0 0.00055003
13010.0 0.00054858
13030.0 0.00054741
13050.0 0.00054656
13070.0 0.000546
13090.0 0.00054564
13110.0 0.00054547
13130.0 0.00054543
13150.0 0.00054544
13170.0 0.00054545
13190.0 0.00054536
13210.0 0.00054515
13230.0 0.00054471
13250.0 0.00054401
13270.0 0.00054304
13290.0 0.00054175
13310.0 0.00054004
13330.0 0.00053803
13350.0 0.00053572
13370.0 0.00053299
13390.0 0.00052987
13410.0 0.00052664
13430.0 0.00052307
13450.0 0.00051913
13470.0 0.00051504
13490.0 0.00051086
13510.0 0.00050622
13530.0 0.00050145
13550.0 0.00049671
13570.0 0.00049178
13590.0 0.00048659
13610.0 0.00048147
13630.0 0.00047642
13650.0 0.00047109
13670.0 0.00046576
13690.0 0.00046059
13710.0 0.00045535
13730.0 0.00044987
13750.0 0.00044475
13770.0 0.00043974
13790.0 0.00043466
13810.0 0.00042972
13830.0 0.0004251
13850.0 0.00042047
13870.0 0.00041591
13890.0 0.00041165
13910.0 0.00040758
13930.0 0.00040351
13950.0 0.00039962
13970.0 0.00039608
13990.0 0.00039257
14010.0 0.00038915
14030.0 0.00038598
14050.0 0.00038297
14070.0 0.00037993
14090.0 0.00037711
14110.0 0.0003745
14130.0 0.00037195
14150.0 0.00036947
14170.0 0.00036721
14190.0 0.00036506
14210.0 0.00036293
14230.0 0.00036092
14250.0 0.00035904
14270.0 0.00035714
14290.0 0.00035527
14310.0 0.00035353
14330.0 0.00035182
14350.0 0.00035009
14370.0 0.00034841
14390.0 0.00034682
14410.0 0.00034518
14430.0 0.00034355
14450.0 0.00034199
14470.0 0.00034044
14490.0 0.00033883
14510.0 0.00033729
14530.0 0.00033578
14550.0 0.00033423
14570.0 0.00033266
14590.0 0.00033114
14610.0 0.00032959
14630.0 0.00032797
14650.0 0.00032638
14670.0 0.0003248
14690.0 0.00032316
14710.0 0.00032147
14730.0 0.00031985
14750.0 0.00031818
14770.0 0.00031644
14790.0 0.00031472
14810.0 0.00031301
14830.0 0.00031116
14850.0 0.00030932
14870.0 0.00030751
14890.0 0.00030567
14910.0 0.00030378
14930.0 0.00030199
14950.0 0.0003003
14970.0 0.00029863
14990.0 0.00029711
15010.0 0.00029576
15030.0 0.00029454
15050.0 0.0002934
15070.0 0.00029243
15090.0 0.00029154
15110.0 0.00029068
15130.0 0.00028986
15150.0 0.00028908
15170.0 0.00028829
15190.0 0.00028749
15210.0 0.00028672
15230.0 0.00028595
15250.0 0.00028516
15270.0 0.00028437
15290.0 0.00028362
15310.0 0.00028285
15330.0 0.00028206
15350.0 0.0002813
15370.0 0.00028055
15390.0 0.00027976
15410.0 0.00027899
15430.0 0.00027823
15450.0 0.00027747
15470.0 0.00027668
15490.0 0.00027594
15510.0 0.00027519
15530.0 0.00027442
15550.0 0.00027366
15570.0 0.00027292
15590.0 0.00027215
15610.0 0.00027138
15630.0 0.00027064
15650.0 0.0002699
15670.0 0.00026913
15690.0 0.00026839
15710.0 0.00026766
15730.0 0.00026691
15750.0 0.00026615
15770.0 0.00026542
15790.0 0.00026469
15810.0 0.00026393
15830.0 0.00026319
15850.0 0.00026247
15870.0 0.00026173
15890.0 0.00026099
15910.0 0.00026028
15930.0 0.00025955
15950.0 0.0002588
15970.0 0.00025808
15990.0 0.00025736
16010.0 0.00025663
16030.0 0.00025589
16050.0 0.00025519
16070.0 0.00025447
16090.0 0.00025374
16110.0 0.00025303
16130.0 0.00025233
16150.0 0.0002516
16170.0 0.00025087
16190.0 0.00025018
16210.0 0.00024947
16230.0 0.00024874
16250.0 0.00024804
16270.0 0.00024735
16290.0 0.00024663
16310.0 0.00024592
16330.0 0.00024524
16350.0 0.00024454
16370.0 0.00024381
16390.0 0.00024312
16410.0 0.00024243
16430.0 0.00024173
16450.0 0.00024103
16470.0 0.00024035
16490.0 0.00023965
16510.0 0.00023895
16530.0 0.00023826
16550.0 0.00023758
16570.0 0.00023687
16590.0 0.00023618
16610.0 0.00023551
16630.0 0.00023482
16650.0 0.00023412
16670.0 0.00023345
16690.0 0.00023278
16710.0 0.00023207
16730.0 0.00023139
16750.0 0.00023072
16770.0 0.00023004
16790.0 0.00022934
16810.0 0.00022868
16830.0 0.00022801
16850.0 0.00022732
16870.0 0.00022664
16890.0 0.00022598
16910.0 0.00022529
16930.0 0.0002246
16950.0 0.00022394
16970.0 0.00022327
16990.0 0.00022258
17010.0 0.00022191
17030.0 0.00022126
17050.0 0.00022058
17070.0 0.0002199
17090.0 0.00021924
17110.0 0.00021858
17130.0 0.00021788
17150.0 0.00021721
17170.0 0.00021656
17190.0 0.00021589
17210.0 0.00021521
17230.0 0.00021456
17250.0 0.0002139
17270.0 0.00021321
17290.0 0.00021255
17310.0 0.00021189
17330.0 0.00021121
17350.0 0.00021053
17370.0 0.00020989
17390.0 0.00020922
17410.0 0.00020855
17430.0 0.00020789
17450.0 0.00020724
17470.0 0.00020655
17490.0 0.00020588
17510.0 0.00020523
17530.0 0.00020456
17550.0 0.00020388
17570.0 0.00020323
17590.0 0.00020258
17610.0 0.0002019
17630.0 0.00020123
17650.0 0.00020058
17670.0 0.00019992
17690.0 0.00019922
17710.0 0.00019857
17730.0 0.00019792
17750.0 0.00019724
17770.0 0.00019657
17790.0 0.00019593
17810.0 0.00019526
17830.0 0.00019458
17850.0 0.00019392
17870.0 0.00019327
17890.0 0.00019258
17910.0 0.00019191
17930.0 0.00019127
17950.0 0.0001906
17970.0 0.00018992
17990.0 0.00018927
18010.0 0.00018861
18030.0 0.00018792
18050.0 0.00018725
18070.0 0.0001866
18090.0 0.00018593
18110.0 0.00018524
18130.0 0.00018459
18150.0 0.00018393
18170.0 0.00018325
18190.0 0.00018259
18210.0 0.00018193
18230.0 0.00018125
18250.0 0.00018056
18270.0 0.00017991
18290.0 0.00017925
18310.0 0.00017856
18330.0 0.00017789
18350.0 0.00017724
18370.0 0.00017656
18390.0 0.00017588
18410.0 0.00017522
18430.0 0.00017455
18450.0 0.00017385
18470.0 0.00017319
18490.0 0.00017253
18510.0 0.00017185
18530.0 0.00017117
18550.0 0.00017052
18570.0 0.00016984
18590.0 0.00016914
18610.0 0.00016847
18630.0 0.00016781
18650.0 0.00016712
18670.0 0.00016643
18690.0 0.00016578
18710.0 0.0001651
18730.0 0.00016441
18750.0 0.00016374
18770.0 0.00016308
18790.0 0.00016238
18810.0 0.00016169
18830.0 0.00016103
18850.0 0.00016035
18870.0 0.00015965
18890.0 0.00015898
18910.0 0.00015832
18930.0 0.00015762
18950.0 0.00015694
18970.0 0.00015627
18990.0 0.00015559
19010.0 0.00015487
19030.0 0.00015421
19050.0 0.00015353
19070.0 0.00015284
19090.0 0.00015215
19110.0 0.00015149
19130.0 0.00015079
19150.0 0.00015009
19170.0 0.00014942
19190.0 0.00014874
19210.0 0.00014803
19230.0 0.00014734
19250.0 0.00014668
19270.0 0.00014598
19290.0 0.00014529
19310.0 0.00014461
19330.0 0.00014393
19350.0 0.00014322
19370.0 0.00014253
19390.0 0.00014185
19410.0 0.00014115
19430.0 0.00014045
19450.0 0.00013978
19470.0 0.00013909
19490.0 0.00013839
19510.0 0.0001377
19530.0 0.00013702
19550.0 0.00013631
19570.0 0.0001356
19590.0 0.00013493
19610.0 0.00013424
19630.0 0.00013353
19650.0 0.00013284
19670.0 0.00013216
19690.0 0.00013145
19710.0 0.00013075
19730.0 0.00013007
19750.0 0.00012937
19770.0 0.00012865
19790.0 0.00012796
19810.0 0.00012728
19830.0 0.00012658
19850.0 0.00012588
19870.0 0.00012521
19890.0 0.00012452
19910.0 0.00012383
19930.0 0.00012319
19950.0 0.00012258
19970.0 0.00012201
19990.0 0.00012149
20010.0 0.00012108
20030.0 0.00012071
20050.0 0.00012041
20070.0 0.00012018
20090.0 0.00011999
20110.0 0.00011983
20130.0 0.00011969
20150.0 0.00011957
20170.0 0.00011945
20190.0 0.00011932
20210.0 0.0001192
20230.0 0.00011906
20250.0 0.00011892
20270.0 0.00011877
20290.0 0.00011861
20310.0 0.00011844
20330.0 0.00011825
20350.0 0.00011806
20370.0 0.00011787
20390.0 0.00011766
20410.0 0.00011744
20430.0 0.00011722
20450.0 0.00011699
20470.0 0.00011675
20490.0 0.00011652
20510.0 0.00011628
20530.0 0.00011604
20550.0 0.00011581
20570.0 0.00011559
20590.0 0.00011536
20610.0 0.00011514
20630.0 0.00011493
20650.0 0.00011473
20670.0 0.00011452
20690.0 0.00011432
20710.0 0.00011412
20730.0 0.00011391
20750.0 0.00011369
20770.0 0.00011347
20790.0 0.00011324
20810.0 0.00011298
20830.0 0.00011271
20850.0 0.00011243
20870.0 0.00011212
20890.0 0.00011178
20910.0 0.00011144
20930.0 0.00011108
20950.0 0.00011069
20970.0 0.0001103
20990.0 0.0001099
21010.0 0.00010947
21030.0 0.00010904
21050.0 0.00010863
21070.0 0.0001082
21090.0 0.00010777
21110.0 0.00010735
21130.0 0.00010695
21150.0 0.00010654
21170.0 0.00010613
21190.0 0.00010575
21210.0 0.00010535
21230.0 0.00010495
21250.0 0.00010456
21270.0 0.00010417
21290.0 0.00010377
21310.0 0.00010336
21330.0 0.00010296
21350.0 0.00010254
21370.0 0.0001021
21390.0 0.00010167
21410.0 0.00010123
21430.0 0.00010075
21450.0 0.00010027
21470.0 9.98e-05
21490.0 9.9303e-05
21510.0 9.8789e-05
21530.0 9.829e-05
21550.0 9.778e-05
21570.0 9.7243e-05
21590.0 9.6715e-05
21610.0 9.6197e-05
21630.0 9.5661e-05
21650.0 9.5107e-05
21670.0 9.4592e-05
21690.0 9.407e-05
21710.0 9.3534e-05
21730.0 9.3012e-05
21750.0 9.251e-05
21770.0 9.1978e-05
21790.0 9.1452e-05
21810.0 9.0947e-05
21830.0 9.0439e-05
21850.0 8.9913e-05
21870.0 8.9403e-05
21890.0 8.8912e-05
21910.0 8.8401e-05
21930.0 8.7893e-05
21950.0 8.7407e-05
21970.0 8.692e-05
21990.0 8.6414e-05
22010.0 8.5943e-05
22030.0 8.5491e-05
22050.0 8.5035e-05
22070.0 8.46e-05
22090.0 8.4214e-05
22110.0 8.3835e-05
22130.0 8.3464e-05
22150.0 8.3127e-05
22170.0 8.2814e-05
22190.0 8.2504e-05
22210.0 8.2216e-05
22230.0 8.1964e-05
22250.0 8.1719e-05
22270.0 8.1484e-05
22290.0 8.1271e-05
22310.0 8.1072e-05
22330.0 8.0868e-05
22350.0 8.0676e-05
22370.0 8.0497e-05
22390.0 8.0315e-05
22410.0 8.0126e-05
22430.0 7.9951e-05
22450.0 7.9775e-05
22470.0 7.9589e-05
22490.0 7.9403e-05
22510.0 7.9225e-05
22530.0 7.9035e-05
22550.0 7.8837e-05
22570.0 7.8652e-05
22590.0 7.8468e-05
22610.0 7.8277e-05
22630.0 7.8092e-05
22650.0 7.7925e-05
22670.0 7.7753e-05
22690.0 7.7588e-05
22710.0 7.744e-05
22730.0 7.7305e-05
22750.0 7.7168e-05
22770.0 7.7055e-05
22790.0 7.6962e-05
22810.0 7.6878e-05
22830.0 7.6807e-05
22850.0 7.676e-05
22870.0 7.6725e-05
22890.0 7.67e-05
22910.0 7.6693e-05
22930.0 7.6702e-05
22950.0 7.672e-05
22970.0 7.6747e-05
22990.0 7.6792e-05
23010.0 7.6844e-05
23030.0 7.6905e-05
23050.0 7.6978e-05
23070.0 7.7063e-05
23090.0 7.7156e-05
23110.0 7.7196e-05
23130.0 7.7245e-05
23150.0 7.7308e-05
23170.0 7.7387e-05
