#lamb flux
1010.0 7.839e-06
1030.0 8.7177e-06
1050.0 9.5671e-06
1070.0 1.0526e-05
1090.0 1.1664e-05
1110.0 1.2827e-05
1130.0 1.3997e-05
1150.0 1.5225e-05
1170.0 1.6503e-05
1190.0 1.7735e-05
1210.0 1.9009e-05
1230.0 2.0359e-05
1250.0 2.1714e-05
1270.0 2.3083e-05
1290.0 2.4575e-05
1310.0 2.6123e-05
1330.0 2.7675e-05
1350.0 2.9294e-05
1370.0 3.1004e-05
1390.0 3.2722e-05
1410.0 3.4431e-05
1430.0 3.6222e-05
1450.0 3.8026e-05
1470.0 3.9783e-05
1490.0 4.1545e-05
1510.0 4.3368e-05
1530.0 4.5084e-05
1550.0 4.6741e-05
1570.0 4.8402e-05
1590.0 5.001e-05
1610.0 5.1487e-05
1630.0 5.2923e-05
1650.0 5.4323e-05
1670.0 5.5596e-05
1690.0 5.6769e-05
1710.0 5.7915e-05
1730.0 5.8987e-05
1750.0 5.9894e-05
1770.0 6.0767e-05
1790.0 6.1601e-05
1810.0 6.2331e-05
1830.0 6.2992e-05
1850.0 6.3697e-05
1870.0 6.4344e-05
1890.0 6.4939e-05
1910.0 6.5566e-05
1930.0 6.6242e-05
1950.0 6.6888e-05
1970.0 6.7561e-05
1990.0 6.8327e-05
2010.0 6.9123e-05
2030.0 6.9925e-05
2050.0 7.0813e-05
2070.0 7.1772e-05
2090.0 7.2693e-05
2110.0 7.3631e-05
2130.0 7.461e-05
2150.0 7.5558e-05
2170.0 7.6429e-05
2190.0 7.7301e-05
2210.0 7.8124e-05
2230.0 7.8828e-05
2250.0 7.9443e-05
2270.0 8.0014e-05
2290.0 8.0443e-05
2310.0 8.0715e-05
2330.0 8.0906e-05
2350.0 8.0987e-05
2370.0 8.09e-05
2390.0 8.0701e-05
2410.0 8.0421e-05
2430.0 7.9972e-05
2450.0 7.936e-05
2470.0 7.8626e-05
2490.0 7.776e-05
2510.0 7.6765e-05
2530.0 7.5829e-05
2550.0 7.5232e-05
2570.0 7.5307e-05
2590.0 7.6435e-05
2610.0 7.9467e-05
2630.0 8.4665e-05
2650.0 9.1661e-05
2670.0 0.00010051
2690.0 0.00011073
2710.0 0.00012048
2730.0 0.00012867
2750.0 0.00013494
2770.0 0.00013779
2790.0 0.00013678
2810.0 0.0001321
2830.0 0.00012357
2850.0 0.00011229
2870.0 9.8928e-05
2890.0 8.3561e-05
2910.0 6.704e-05
2930.0 5.0338e-05
2950.0 3.2648e-05
2970.0 1.4238e-05
2990.0 5.4799e-06
3010.0 1.0238e-05
3030.0 1.0238e-05
3050.0 1.0238e-05
3070.0 1.0238e-05
3090.0 1.0238e-05
3110.0 1.0238e-05
3130.0 1.0238e-05
3150.0 1.0238e-05
3170.0 1.0238e-05
3190.0 1.0238e-05
3210.0 6.6617e-05
3230.0 0.00057974
3250.0 0.0009289
3270.0 0.00083739
3290.0 0.00069945
3310.0 0.00052792
3330.0 0.00050093
3350.0 0.00054636
3370.0 0.0006169
3390.0 0.00069275
3410.0 0.00077397
3430.0 0.0008826
3450.0 0.00098603
3470.0 0.0010925
3490.0 0.0011153
3510.0 0.00095823
3530.0 0.00087984
3550.0 0.0010362
3570.0 0.0012012
3590.0 0.0013223
3610.0 0.0013259
3630.0 0.0015417
3650.0 0.0016257
3670.0 0.0016964
3690.0 0.0017957
3710.0 0.0018074
3730.0 0.0018689
3750.0 0.001859
3770.0 0.0018508
3790.0 0.001782
3810.0 0.0016742
3830.0 0.0015848
3850.0 0.00099316
3870.0 0.001049
3890.0 0.0012012
3910.0 0.0015802
3930.0 0.0020458
3950.0 0.0022165
3970.0 0.0023781
3990.0 0.0027582
4010.0 0.0025984
4030.0 0.0022988
4050.0 0.0016461
4070.0 0.0014474
4090.0 0.0019385
4110.0 0.0020439
4130.0 0.0022251
4150.0 0.0021721
4170.0 0.0020552
4190.0 0.0018821
4210.0 0.0023154
4230.0 0.0024785
4250.0 0.0026875
4270.0 0.0026044
4290.0 0.0025228
4310.0 0.0026448
4330.0 0.0030683
4350.0 0.0033206
4370.0 0.0033548
4390.0 0.0031033
4410.0 0.0028256
4430.0 0.0022096
4450.0 0.0017742
4470.0 0.001849
4490.0 0.0021293
4510.0 0.0022429
4530.0 0.0022451
4550.0 0.0022555
4570.0 0.003166
4590.0 0.0047202
4610.0 0.0055746
4630.0 0.0057277
4650.0 0.0062895
4670.0 0.007362
4690.0 0.007877
4710.0 0.0066597
4730.0 0.0050956
4750.0 0.0039536
4770.0 0.0033459
4790.0 0.0030135
4810.0 0.0028517
4830.0 0.0031577
4850.0 0.0037914
4870.0 0.0042008
4890.0 0.0043577
4910.0 0.0041963
4930.0 0.0046014
4950.0 0.0055411
4970.0 0.0063167
4990.0 0.0064775
5010.0 0.0059278
5030.0 0.0049042
5050.0 0.0038232
5070.0 0.0031018
5090.0 0.0028321
5110.0 0.0028089
5130.0 0.0028568
5150.0 0.0028256
5170.0 0.002636
5190.0 0.0024763
5210.0 0.0024774
5230.0 0.0028434
5250.0 0.0034711
5270.0 0.0041836
5290.0 0.0047405
5310.0 0.0051378
5330.0 0.0057577
5350.0 0.0064109
5370.0 0.0065847
5390.0 0.0060147
5410.0 0.0054205
5430.0 0.0054141
5450.0 0.0063632
5470.0 0.007817
5490.0 0.0090464
5510.0 0.0096299
5530.0 0.0095884
5550.0 0.0092753
5570.0 0.0090256
5590.0 0.0087587
5610.0 0.0086527
5630.0 0.008728
5650.0 0.0088556
5670.0 0.0086777
5690.0 0.0078852
5710.0 0.0068101
5730.0 0.0062135
5750.0 0.0060806
5770.0 0.0063219
5790.0 0.0066001
5810.0 0.006871
5830.0 0.0070286
5850.0 0.0068287
5870.0 0.0065837
5890.0 0.006578
5910.0 0.0069075
5930.0 0.0072025
5950.0 0.0068658
5970.0 0.0061151
5990.0 0.0050939
6010.0 0.0041853
6030.0 0.0039146
6050.0 0.0042594
6070.0 0.0045024
6090.0 0.0042375
6110.0 0.0037613
6130.0 0.0038762
6150.0 0.0044929
6170.0 0.0051042
6190.0 0.0055283
6210.0 0.0056247
6230.0 0.0055503
6250.0 0.0050556
6270.0 0.0042086
6290.0 0.0034745
6310.0 0.0031123
6330.0 0.0030664
6350.0 0.0031192
6370.0 0.0032018
6390.0 0.0036598
6410.0 0.0045597
6430.0 0.0055136
6450.0 0.0060655
6470.0 0.0062326
6490.0 0.0062393
6510.0 0.0063432
6530.0 0.0064846
6550.0 0.0064893
6570.0 0.0067223
6590.0 0.0069118
6610.0 0.0069991
6630.0 0.0068083
6650.0 0.0063142
6670.0 0.005767
6690.0 0.0053134
6710.0 0.00506
6730.0 0.0049409
6750.0 0.0049619
6770.0 0.0050968
6790.0 0.005282
6810.0 0.0053993
6830.0 0.0053044
6850.0 0.0050295
6870.0 0.0047134
6890.0 0.0046052
6910.0 0.0045198
6930.0 0.0046754
6950.0 0.004907
6970.0 0.0050309
6990.0 0.0051017
7010.0 0.004942
7030.0 0.0045398
7050.0 0.004028
7070.0 0.0036436
7090.0 0.0034778
7110.0 0.0034651
7130.0 0.0033275
7150.0 0.0029514
7170.0 0.0028213
7190.0 0.0031242
7210.0 0.0036395
7230.0 0.0041621
7250.0 0.0043674
7270.0 0.0042891
7290.0 0.0039723
7310.0 0.003692
7330.0 0.0035795
7350.0 0.0036036
7370.0 0.0036658
7390.0 0.0038489
7410.0 0.0042747
7430.0 0.0049017
7450.0 0.0054755
7470.0 0.0057201
7490.0 0.005528
7510.0 0.0051053
7530.0 0.0045288
7550.0 0.0041378
7570.0 0.0037193
7590.0 0.0035011
7610.0 0.0035403
7630.0 0.0037583
7650.0 0.0040973
7670.0 0.0044606
7690.0 0.0047277
7710.0 0.0049739
7730.0 0.0052095
7750.0 0.0053958
7770.0 0.0053352
7790.0 0.0053433
7810.0 0.0053708
7830.0 0.0052599
7850.0 0.0050495
7870.0 0.0048858
7890.0 0.0049086
7910.0 0.0048017
7930.0 0.0046892
7950.0 0.0044334
7970.0 0.0042666
7990.0 0.0040801
8010.0 0.0040462
8030.0 0.004052
8050.0 0.0040469
8070.0 0.0039752
8090.0 0.0039237
8110.0 0.0037819
8130.0 0.0037605
8150.0 0.0037003
8170.0 0.003593
8190.0 0.0034918
8210.0 0.0034397
8230.0 0.0033429
8250.0 0.0032771
8270.0 0.002987
8290.0 0.0024575
8310.0 0.0018709
8330.0 0.00147
8350.0 0.0013804
8370.0 0.0016229
8390.0 0.0019407
8410.0 0.0020762
8430.0 0.0021159
8450.0 0.0022233
8470.0 0.002384
8490.0 0.0026587
8510.0 0.0030115
8530.0 0.0034158
8550.0 0.0037698
8570.0 0.0040458
8590.0 0.0042495
8610.0 0.0043499
8630.0 0.0043241
8650.0 0.0042539
8670.0 0.0042394
8690.0 0.0044478
8710.0 0.004734
8730.0 0.0049029
8750.0 0.0048676
8770.0 0.0049195
8790.0 0.0048916
8810.0 0.0045936
8830.0 0.0042904
8850.0 0.0039023
8870.0 0.0035921
8890.0 0.0034893
8910.0 0.0034701
8930.0 0.0032609
8950.0 0.0030199
8970.0 0.0029138
8990.0 0.0028875
9010.0 0.0027813
9030.0 0.00272
9050.0 0.0026957
9070.0 0.0026845
9090.0 0.0026748
9110.0 0.0026655
9130.0 0.0026561
9150.0 0.002647
9170.0 0.002637
9190.0 0.0026299
9210.0 0.0026312
9230.0 0.0026179
9250.0 0.0026067
9270.0 0.0025968
9290.0 0.0025877
9310.0 0.0025789
9330.0 0.0025704
9350.0 0.0025625
9370.0 0.0025547
9390.0 0.0025468
9410.0 0.0025392
9430.0 0.0025313
9450.0 0.0025199
9470.0 0.0025098
9490.0 0.002506
9510.0 0.0025005
9530.0 0.0024944
9550.0 0.0024881
9570.0 0.0024816
9590.0 0.0024749
9610.0 0.0024682
9630.0 0.0024616
9650.0 0.0024549
9670.0 0.0024483
9690.0 0.0024418
9710.0 0.0024353
9730.0 0.0024288
9750.0 0.0024223
9770.0 0.0024159
9790.0 0.0024095
9810.0 0.0024031
9830.0 0.0023967
9850.0 0.0023903
9870.0 0.0023839
9890.0 0.0023774
9910.0 0.0023709
9930.0 0.0023642
9950.0 0.0023412
9970.0 0.0023395
9990.0 0.0023368
10010.0 0.0023336
10030.0 0.0023289
10050.0 0.002323
10070.0 0.002317
10090.0 0.0023109
10110.0 0.0023035
10130.0 0.002296
10150.0 0.0022892
10170.0 0.0022819
10190.0 0.0022737
10210.0 0.0022663
10230.0 0.002259
10250.0 0.0022508
10270.0 0.0022426
10290.0 0.0022349
10310.0 0.0022264
10330.0 0.0022171
10350.0 0.0022086
10370.0 0.0022
10390.0 0.0021904
10410.0 0.0021808
10430.0 0.0021719
10450.0 0.0021621
10470.0 0.0021517
10490.0 0.0021417
10510.0 0.0021317
10530.0 0.0021202
10550.0 0.002109
10570.0 0.0020984
10590.0 0.0020868
10610.0 0.0020747
10630.0 0.0020631
10650.0 0.0020512
10670.0 0.0020381
10690.0 0.0020252
10710.0 0.0020126
10730.0 0.001999
10750.0 0.0019845
10770.0 0.0019711
10790.0 0.0019571
10810.0 0.0019421
10830.0 0.0019272
10850.0 0.0019128
10870.0 0.0018967
10890.0 0.0018802
10910.0 0.0018643
10930.0 0.0018476
10950.0 0.0018295
10970.0 0.0018114
10990.0 0.0017935
11010.0 0.0019226
11030.0 0.0019015
11050.0 0.001881
11070.0 0.00186
11090.0 0.0018375
11110.0 0.0018166
11130.0 0.0017965
11150.0 0.0017757
11170.0 0.0017552
11190.0 0.0017361
11210.0 0.0017166
11230.0 0.0016966
11250.0 0.0016775
11270.0 0.0016588
11290.0 0.0016394
11310.0 0.00162
11330.0 0.001602
11350.0 0.0015834
11370.0 0.0015642
11390.0 0.0015454
11410.0 0.0015265
11430.0 0.0015059
11450.0 0.0014849
11470.0 0.0014636
11490.0 0.0014408
11510.0 0.001416
11530.0 0.0013911
11550.0 0.0013653
11570.0 0.0013374
11590.0 0.0013087
11610.0 0.0012802
11630.0 0.0012501
11650.0 0.0012189
11670.0 0.0011889
11690.0 0.0011591
11710.0 0.0011286
11730.0 0.001099
11750.0 0.0010711
11770.0 0.0010429
11790.0 0.0010152
11810.0 0.00098926
11830.0 0.00096417
11850.0 0.00093872
11870.0 0.00091486
11890.0 0.00089249
11910.0 0.00087023
11930.0 0.00084849
11950.0 0.00082826
11970.0 0.00080855
11990.0 0.00078885
12010.0 0.00077041
12030.0 0.0007531
12050.0 0.00073619
12070.0 0.00071994
12090.0 0.00070554
12110.0 0.000692
12130.0 0.00067935
12150.0 0.0006682
12170.0 0.00065859
12190.0 0.00064998
12210.0 0.00064299
12230.0 0.00063765
12250.0 0.00063376
12270.0 0.00063141
12290.0 0.00063057
12310.0 0.00063103
12330.0 0.00063299
12350.0 0.00063626
12370.0 0.00064045
12390.0 0.00064575
12410.0 0.0006525
12430.0 0.00065954
12450.0 0.00066708
12470.0 0.00067549
12490.0 0.00068423
12510.0 0.00069259
12530.0 0.00070128
12550.0 0.00071004
12570.0 0.00071796
12590.0 0.00072511
12610.0 0.00073181
12630.0 0.00073733
12650.0 0.00074109
12670.0 0.00074366
12690.0 0.00074471
12710.0 0.00074394
12730.0 0.00074152
12750.0 0.00073741
12770.0 0.00073161
12790.0 0.0007244
12810.0 0.00071578
12830.0 0.0007058
12850.0 0.00069519
12870.0 0.00068395
12890.0 0.00067193
12910.0 0.00065977
12930.0 0.00064783
12950.0 0.00063566
12970.0 0.00062354
12990.0 0.00061218
13010.0 0.00060117
13030.0 0.00059031
13050.0 0.00058
13070.0 0.00057032
13090.0 0.00056071
13110.0 0.00055136
13130.0 0.00054249
13150.0 0.00053383
13170.0 0.00052505
13190.0 0.00051666
13210.0 0.00050862
13230.0 0.00050057
13250.0 0.00049268
13270.0 0.00048526
13290.0 0.00047806
13310.0 0.00047105
13330.0 0.00046462
13350.0 0.00045877
13370.0 0.00045336
13390.0 0.00044851
13410.0 0.00044444
13430.0 0.00044089
13450.0 0.00043784
13470.0 0.00043527
13490.0 0.00043306
13510.0 0.00043104
13530.0 0.0004291
13550.0 0.00042712
13570.0 0.00042495
13590.0 0.00042244
13610.0 0.00041959
13630.0 0.00041638
13650.0 0.00041265
13670.0 0.00040851
13690.0 0.00040412
13710.0 0.0003994
13730.0 0.0003943
13750.0 0.00038934
13770.0 0.00038444
13790.0 0.00037953
13810.0 0.00037485
13830.0 0.00037059
13850.0 0.00036653
13870.0 0.00036277
13890.0 0.00035945
13910.0 0.00035648
13930.0 0.00035374
13950.0 0.00035128
13970.0 0.00034911
13990.0 0.00034704
14010.0 0.00034503
14030.0 0.00034311
14050.0 0.00034117
14070.0 0.00033906
14090.0 0.00033687
14110.0 0.00033457
14130.0 0.00033205
14150.0 0.00032927
14170.0 0.00032643
14190.0 0.00032344
14210.0 0.00032021
14230.0 0.00031694
14250.0 0.00031374
14270.0 0.00031045
14290.0 0.00030721
14310.0 0.00030428
14330.0 0.00030155
14350.0 0.00029902
14370.0 0.00029686
14390.0 0.00029509
14410.0 0.00029359
14430.0 0.00029243
14450.0 0.00029162
14470.0 0.00029109
14490.0 0.0002908
14510.0 0.00029075
14530.0 0.00029089
14550.0 0.00029119
14570.0 0.00029166
14590.0 0.00029229
14610.0 0.00029311
14630.0 0.00029418
14650.0 0.0002955
14670.0 0.00029709
14690.0 0.00029907
14710.0 0.00030149
14730.0 0.00030418
14750.0 0.00030735
14770.0 0.00031108
14790.0 0.0003152
14810.0 0.00031971
14830.0 0.00032503
14850.0 0.00033085
14870.0 0.000337
14890.0 0.00034372
14910.0 0.000351
14930.0 0.00035822
14950.0 0.00036523
14970.0 0.00037214
14990.0 0.00037829
15010.0 0.00038342
15030.0 0.00038766
15050.0 0.00039104
15070.0 0.00039345
15090.0 0.00039528
15110.0 0.00039672
15130.0 0.00039789
15150.0 0.00039892
15170.0 0.0003999
15190.0 0.00040087
15210.0 0.00040184
15230.0 0.00040282
15250.0 0.00040382
15270.0 0.00040484
15290.0 0.00040588
15310.0 0.00040694
15330.0 0.00040802
15350.0 0.00040912
15370.0 0.00041023
15390.0 0.00041136
15410.0 0.00041251
15430.0 0.00041368
15450.0 0.00041486
15470.0 0.00041606
15490.0 0.00041727
15510.0 0.00041851
15530.0 0.00041975
15550.0 0.00042101
15570.0 0.00042229
15590.0 0.00042357
15610.0 0.00042487
15630.0 0.00042619
15650.0 0.00042752
15670.0 0.00042885
15690.0 0.0004302
15710.0 0.00043157
15730.0 0.00043294
15750.0 0.00043432
15770.0 0.00043571
15790.0 0.00043712
15810.0 0.00043852
15830.0 0.00043994
15850.0 0.00044137
15870.0 0.00044281
15890.0 0.00044425
15910.0 0.0004457
15930.0 0.00044715
15950.0 0.0004486
15970.0 0.00045007
15990.0 0.00045154
16010.0 0.00045301
16030.0 0.00045448
16050.0 0.00045596
16070.0 0.00045744
16090.0 0.00045891
16110.0 0.00046039
16130.0 0.00046188
16150.0 0.00046336
16170.0 0.00046483
16190.0 0.00046631
16210.0 0.00046779
16230.0 0.00046926
16250.0 0.00047073
16270.0 0.0004722
16290.0 0.00047366
16310.0 0.00047511
16330.0 0.00047657
16350.0 0.00047801
16370.0 0.00047944
16390.0 0.00048087
16410.0 0.0004823
16430.0 0.00048371
16450.0 0.00048511
16470.0 0.00048651
16490.0 0.00048789
16510.0 0.00048925
16530.0 0.00049061
16550.0 0.00049196
16570.0 0.00049329
16590.0 0.0004946
16610.0 0.00049591
16630.0 0.00049719
16650.0 0.00049846
16670.0 0.00049972
16690.0 0.00050096
16710.0 0.00050217
16730.0 0.00050337
16750.0 0.00050456
16770.0 0.00050572
16790.0 0.00050686
16810.0 0.00050798
16830.0 0.00050908
16850.0 0.00051016
16870.0 0.00051121
16890.0 0.00051225
16910.0 0.00051325
16930.0 0.00051423
16950.0 0.00051519
16970.0 0.00051612
16990.0 0.00051703
17010.0 0.00051791
17030.0 0.00051876
17050.0 0.00051959
17070.0 0.00052038
17090.0 0.00052115
17110.0 0.00052189
17130.0 0.0005226
17150.0 0.00052328
17170.0 0.00052393
17190.0 0.00052455
17210.0 0.00052513
17230.0 0.00052569
17250.0 0.00052621
17270.0 0.0005267
17290.0 0.00052716
17310.0 0.00052758
17330.0 0.00052797
17350.0 0.00052833
17370.0 0.00052865
17390.0 0.00052894
17410.0 0.00052919
17430.0 0.00052941
17450.0 0.0005296
17470.0 0.00052974
17490.0 0.00052986
17510.0 0.00052994
17530.0 0.00052998
17550.0 0.00052998
17570.0 0.00052995
17590.0 0.00052988
17610.0 0.00052978
17630.0 0.00052963
17650.0 0.00052946
17670.0 0.00052925
17690.0 0.00052899
17710.0 0.0005287
17730.0 0.00052838
17750.0 0.00052802
17770.0 0.00052762
17790.0 0.00052719
17810.0 0.00052672
17830.0 0.00052621
17850.0 0.00052566
17870.0 0.00052509
17890.0 0.00052447
17910.0 0.00052381
17930.0 0.00052313
17950.0 0.0005224
17970.0 0.00052164
17990.0 0.00052085
18010.0 0.00052002
18030.0 0.00051915
18050.0 0.00051825
18070.0 0.00051732
18090.0 0.00051636
18110.0 0.00051535
18130.0 0.00051432
18150.0 0.00051326
18170.0 0.00051216
18190.0 0.00051102
18210.0 0.00050986
18230.0 0.00050867
18250.0 0.00050744
18270.0 0.00050618
18290.0 0.0005049
18310.0 0.00050358
18330.0 0.00050223
18350.0 0.00050086
18370.0 0.00049945
18390.0 0.00049802
18410.0 0.00049656
18430.0 0.00049507
18450.0 0.00049356
18470.0 0.00049202
18490.0 0.00049045
18510.0 0.00048886
18530.0 0.00048725
18550.0 0.00048561
18570.0 0.00048395
18590.0 0.00048226
18610.0 0.00048055
18630.0 0.00047882
18650.0 0.00047707
18670.0 0.00047529
18690.0 0.0004735
18710.0 0.00047169
18730.0 0.00046986
18750.0 0.00046801
18770.0 0.00046614
18790.0 0.00046425
18810.0 0.00046235
18830.0 0.00046043
18850.0 0.0004585
18870.0 0.00045654
18890.0 0.00045458
18910.0 0.00045261
18930.0 0.00045061
18950.0 0.0004486
18970.0 0.00044659
18990.0 0.00044456
19010.0 0.00044251
19030.0 0.00044046
19050.0 0.0004384
19070.0 0.00043633
19090.0 0.00043425
19110.0 0.00043216
19130.0 0.00043006
19150.0 0.00042796
19170.0 0.00042585
19190.0 0.00042373
19210.0 0.0004216
19230.0 0.00041947
19250.0 0.00041734
19270.0 0.0004152
19290.0 0.00041306
19310.0 0.00041091
19330.0 0.00040877
19350.0 0.00040661
19370.0 0.00040446
19390.0 0.0004023
19410.0 0.00040015
19430.0 0.00039799
19450.0 0.00039583
19470.0 0.00039368
19490.0 0.00039152
19510.0 0.00038936
19530.0 0.00038721
19550.0 0.00038506
19570.0 0.00038291
19590.0 0.00038076
19610.0 0.00037862
19630.0 0.00037648
19650.0 0.00037434
19670.0 0.00037221
19690.0 0.00037008
19710.0 0.00036796
19730.0 0.00036584
19750.0 0.00036373
19770.0 0.00036162
19790.0 0.00035952
19810.0 0.00035742
19830.0 0.00035533
19850.0 0.00035322
19870.0 0.00035109
19890.0 0.00034889
19910.0 0.00034657
19930.0 0.00034404
19950.0 0.00034122
19970.0 0.00033793
19990.0 0.00033407
20010.0 0.00032973
20030.0 0.0003247
20050.0 0.00031903
20070.0 0.00031302
20090.0 0.00030673
20110.0 0.00029994
20130.0 0.00029323
20150.0 0.00028671
20170.0 0.00028016
20190.0 0.00027369
20210.0 0.00026761
20230.0 0.00026173
20250.0 0.00025591
20270.0 0.00025042
20290.0 0.00024529
20310.0 0.0002403
20330.0 0.00023546
20350.0 0.0002311
20370.0 0.00022694
20390.0 0.00022293
20410.0 0.00021921
20430.0 0.00021578
20450.0 0.00021246
20470.0 0.00020936
20490.0 0.00020653
20510.0 0.00020388
20530.0 0.00020137
20550.0 0.00019909
20570.0 0.00019701
20590.0 0.00019506
20610.0 0.00019326
20630.0 0.00019163
20650.0 0.00019012
20670.0 0.00018872
20690.0 0.00018744
20710.0 0.00018625
20730.0 0.00018514
20750.0 0.0001841
20770.0 0.0001831
20790.0 0.00018214
20810.0 0.0001812
20830.0 0.00018027
20850.0 0.00017934
20870.0 0.0001784
20890.0 0.00017743
20910.0 0.00017642
20930.0 0.00017538
20950.0 0.00017428
20970.0 0.00017314
20990.0 0.00017195
21010.0 0.00017068
21030.0 0.00016935
21050.0 0.00016798
21070.0 0.00016655
21090.0 0.00016504
21110.0 0.0001635
21130.0 0.00016193
21150.0 0.0001603
21170.0 0.00015863
21190.0 0.00015697
21210.0 0.00015525
21230.0 0.00015349
21250.0 0.00015175
21270.0 0.00015002
21290.0 0.00014826
21310.0 0.00014651
21330.0 0.00014482
21350.0 0.00014311
21370.0 0.00014142
21390.0 0.0001398
21410.0 0.00013823
21430.0 0.00013665
21450.0 0.00013517
21470.0 0.00013377
21490.0 0.00013243
21510.0 0.00013115
21530.0 0.00012998
21550.0 0.00012888
21570.0 0.00012786
21590.0 0.00012695
21610.0 0.00012612
21630.0 0.00012539
21650.0 0.00012474
21670.0 0.00012418
21690.0 0.00012369
21710.0 0.00012328
21730.0 0.00012294
21750.0 0.00012265
21770.0 0.00012243
21790.0 0.00012225
21810.0 0.00012209
21830.0 0.00012196
21850.0 0.00012187
21870.0 0.00012176
21890.0 0.00012164
21910.0 0.00012153
21930.0 0.0001214
21950.0 0.00012123
21970.0 0.00012105
21990.0 0.00012084
22010.0 0.00012059
22030.0 0.0001203
22050.0 0.00011998
22070.0 0.00011962
22090.0 0.00011922
22110.0 0.0001188
22130.0 0.00011835
22150.0 0.00011786
22170.0 0.00011736
22190.0 0.00011683
22210.0 0.00011627
22230.0 0.00011571
22250.0 0.00011512
22270.0 0.0001145
22290.0 0.00011387
22310.0 0.00011322
22330.0 0.00011253
22350.0 0.00011181
22370.0 0.00011106
22390.0 0.00011026
22410.0 0.00010939
22430.0 0.00010848
22450.0 0.00010753
22470.0 0.00010648
22490.0 0.00010538
22510.0 0.00010424
22530.0 0.000103
22550.0 0.00010167
22570.0 0.00010032
22590.0 9.8921e-05
22610.0 9.7439e-05
22630.0 9.5934e-05
22650.0 9.4456e-05
22670.0 9.292e-05
22690.0 9.137e-05
22710.0 8.9874e-05
22730.0 8.8403e-05
22750.0 8.69e-05
22770.0 8.549e-05
22790.0 8.4163e-05
22810.0 8.2864e-05
22830.0 8.1622e-05
22850.0 8.049e-05
22870.0 7.9417e-05
22890.0 7.8386e-05
22910.0 7.7448e-05
22930.0 7.6589e-05
22950.0 7.5773e-05
22970.0 7.5004e-05
22990.0 7.4321e-05
23010.0 7.367e-05
23030.0 7.3045e-05
23050.0 7.2459e-05
23070.0 7.1905e-05
