#lamb flux
1010.0 0.00010266
1030.0 0.00011052
1050.0 0.0001238
1070.0 0.00013874
1090.0 0.00015461
1110.0 0.00017106
1130.0 0.00018772
1150.0 0.00020522
1170.0 0.00022322
1190.0 0.00024005
1210.0 0.00025676
1230.0 0.00027353
1250.0 0.00028956
1270.0 0.00030433
1290.0 0.00031921
1310.0 0.0003332
1330.0 0.00034566
1350.0 0.00035757
1370.0 0.00036942
1390.0 0.00038045
1410.0 0.00039084
1430.0 0.000402
1450.0 0.00041346
1470.0 0.00042496
1490.0 0.00043742
1510.0 0.00045172
1530.0 0.00046639
1550.0 0.00048223
1570.0 0.00050009
1590.0 0.00051959
1610.0 0.00054022
1630.0 0.00056351
1650.0 0.00058906
1670.0 0.00061593
1690.0 0.00064437
1710.0 0.00067512
1730.0 0.00070751
1750.0 0.00074014
1770.0 0.00077427
1790.0 0.00080946
1810.0 0.00084436
1830.0 0.00087878
1850.0 0.00091372
1870.0 0.00094705
1890.0 0.00097807
1910.0 0.0010073
1930.0 0.0010345
1950.0 0.0010577
1970.0 0.0010772
1990.0 0.0010938
2010.0 0.0011061
2030.0 0.0011138
2050.0 0.0011182
2070.0 0.0011192
2090.0 0.0011155
2110.0 0.0011086
2130.0 0.0010993
2150.0 0.0010872
2170.0 0.0010725
2190.0 0.001057
2210.0 0.0010406
2230.0 0.0010233
2250.0 0.0010059
2270.0 0.00098971
2290.0 0.00097391
2310.0 0.00095881
2330.0 0.00094567
2350.0 0.00093443
2370.0 0.00092471
2390.0 0.00091743
2410.0 0.00091335
2430.0 0.0009118
2450.0 0.0009132
2470.0 0.00091869
2490.0 0.00092867
2510.0 0.00094244
2530.0 0.00096284
2550.0 0.00099384
2570.0 0.0010389
2590.0 0.0011031
2610.0 0.0012018
2630.0 0.0013391
2650.0 0.0015102
2670.0 0.0017194
2690.0 0.0019619
2710.0 0.0022082
2730.0 0.0024421
2750.0 0.0026639
2770.0 0.0028523
2790.0 0.003003
2810.0 0.0031271
2830.0 0.0032331
2850.0 0.0033246
2870.0 0.0034138
2890.0 0.0035082
2910.0 0.0036103
2930.0 0.0037207
2950.0 0.0038431
2970.0 0.0039781
2990.0 0.0041232
3010.0 0.0052703
3030.0 0.0054786
3050.0 0.0056992
3070.0 0.0059235
3090.0 0.0061511
3110.0 0.0063691
3130.0 0.0065612
3150.0 0.0067252
3170.0 0.0068258
3190.0 0.0072773
3210.0 0.0090873
3230.0 0.011964
3250.0 0.013301
3270.0 0.01225
3290.0 0.010477
3310.0 0.009542
3330.0 0.0091705
3350.0 0.0091576
3370.0 0.009251
3390.0 0.0093976
3410.0 0.0094992
3430.0 0.0092421
3450.0 0.0091794
3470.0 0.00919
3490.0 0.010155
3510.0 0.012797
3530.0 0.01542
3550.0 0.017884
3570.0 0.020617
3590.0 0.022138
3610.0 0.022201
3630.0 0.021974
3650.0 0.022676
3670.0 0.025301
3690.0 0.029604
3710.0 0.033914
3730.0 0.037195
3750.0 0.039936
3770.0 0.039718
3790.0 0.037227
3810.0 0.034382
3830.0 0.031136
3850.0 0.029184
3870.0 0.029363
3890.0 0.032433
3910.0 0.036785
3930.0 0.041383
3950.0 0.046368
3970.0 0.049501
3990.0 0.048807
4010.0 0.046047
4030.0 0.040813
4050.0 0.035794
4070.0 0.033205
4090.0 0.032855
4110.0 0.034226
4130.0 0.034758
4150.0 0.034939
4170.0 0.035624
4190.0 0.037154
4210.0 0.0372
4230.0 0.037513
4250.0 0.038096
4270.0 0.039236
4290.0 0.040624
4310.0 0.042053
4330.0 0.041829
4350.0 0.040062
4370.0 0.037427
4390.0 0.033903
4410.0 0.029857
4430.0 0.027204
4450.0 0.026372
4470.0 0.027031
4490.0 0.028964
4510.0 0.032849
4530.0 0.040066
4550.0 0.051035
4570.0 0.06059
4590.0 0.069262
4610.0 0.079797
4630.0 0.087208
4650.0 0.08658
4670.0 0.079929
4690.0 0.070835
4710.0 0.061967
4730.0 0.054055
4750.0 0.047132
4770.0 0.042418
4790.0 0.042596
4810.0 0.045117
4830.0 0.046908
4850.0 0.047751
4870.0 0.050189
4890.0 0.053068
4910.0 0.055766
4930.0 0.058786
4950.0 0.060971
4970.0 0.060134
4990.0 0.055908
5010.0 0.049945
5030.0 0.043876
5050.0 0.039433
5070.0 0.036614
5090.0 0.034916
5110.0 0.034576
5130.0 0.034635
5150.0 0.034869
5170.0 0.036435
5190.0 0.039532
5210.0 0.043986
5230.0 0.048322
5250.0 0.052774
5270.0 0.057493
5290.0 0.061545
5310.0 0.06406
5330.0 0.065023
5350.0 0.064328
5370.0 0.063087
5390.0 0.062958
5410.0 0.064637
5430.0 0.067808
5450.0 0.071944
5470.0 0.075456
5490.0 0.076544
5510.0 0.075599
5530.0 0.073762
5550.0 0.07145
5570.0 0.06858
5590.0 0.065726
5610.0 0.062928
5630.0 0.059792
5650.0 0.055697
5670.0 0.051055
5690.0 0.047178
5710.0 0.044316
5730.0 0.041594
5750.0 0.039888
5770.0 0.039402
5790.0 0.039219
5810.0 0.038474
5830.0 0.037665
5850.0 0.036693
5870.0 0.035029
5890.0 0.033552
5910.0 0.032144
5930.0 0.029604
5950.0 0.026359
5970.0 0.023294
5990.0 0.020835
6010.0 0.019343
6030.0 0.018662
6050.0 0.018733
6070.0 0.019528
6090.0 0.020073
6110.0 0.020127
6130.0 0.020134
6150.0 0.020339
6170.0 0.020619
6190.0 0.0207
6210.0 0.020333
6230.0 0.019223
6250.0 0.017712
6270.0 0.0163
6290.0 0.015223
6310.0 0.015202
6330.0 0.016277
6350.0 0.017699
6370.0 0.018882
6390.0 0.020246
6410.0 0.022027
6430.0 0.023405
6450.0 0.024207
6470.0 0.024861
6490.0 0.025467
6510.0 0.025814
6530.0 0.025962
6550.0 0.026227
6570.0 0.026126
6590.0 0.025567
6610.0 0.024796
6630.0 0.02383
6650.0 0.022541
6670.0 0.021172
6690.0 0.020201
6710.0 0.019542
6730.0 0.018825
6750.0 0.018371
6770.0 0.018516
6790.0 0.018734
6810.0 0.018569
6830.0 0.018217
6850.0 0.018052
6870.0 0.017887
6890.0 0.017527
6910.0 0.017467
6930.0 0.017491
6950.0 0.017316
6970.0 0.017067
6990.0 0.016722
7010.0 0.01626
7030.0 0.015537
7050.0 0.01444
7070.0 0.013455
7090.0 0.013321
7110.0 0.013743
7130.0 0.013934
7150.0 0.013883
7170.0 0.014148
7190.0 0.01477
7210.0 0.015234
7230.0 0.015602
7250.0 0.015959
7270.0 0.015744
7290.0 0.015274
7310.0 0.01509
7330.0 0.015429
7350.0 0.016021
7370.0 0.016416
7390.0 0.016852
7410.0 0.017509
7430.0 0.017983
7450.0 0.018154
7470.0 0.018043
7490.0 0.017243
7510.0 0.016454
7530.0 0.016403
7550.0 0.016235
7570.0 0.016045
7590.0 0.016158
7610.0 0.01638
7630.0 0.016834
7650.0 0.017888
7670.0 0.019251
7690.0 0.020571
7710.0 0.021586
7730.0 0.022515
7750.0 0.023408
7770.0 0.024216
7790.0 0.024993
7810.0 0.025388
7830.0 0.024957
7850.0 0.024289
7870.0 0.023756
7890.0 0.023423
7910.0 0.023482
7930.0 0.023268
7950.0 0.022899
7970.0 0.022406
7990.0 0.022143
8010.0 0.021007
8030.0 0.021123
8050.0 0.021188
8070.0 0.021077
8090.0 0.021006
8110.0 0.021013
8130.0 0.021201
8150.0 0.021227
8170.0 0.021102
8190.0 0.02063
8210.0 0.01979
8230.0 0.019026
8250.0 0.018775
8270.0 0.018052
8290.0 0.016421
8310.0 0.014677
8330.0 0.01353
8350.0 0.013155
8370.0 0.01395
8390.0 0.015405
8410.0 0.016545
8430.0 0.017559
8450.0 0.018982
8470.0 0.02042
8490.0 0.022112
8510.0 0.023912
8530.0 0.025722
8550.0 0.027189
8570.0 0.028315
8590.0 0.029215
8610.0 0.029965
8630.0 0.030162
8650.0 0.029767
8670.0 0.029964
8690.0 0.031354
8710.0 0.033166
8730.0 0.033956
8750.0 0.033692
8770.0 0.033973
8790.0 0.034112
8810.0 0.033126
8830.0 0.030833
8850.0 0.027942
8870.0 0.025819
8890.0 0.025147
8910.0 0.024488
8930.0 0.02293
8950.0 0.02144
8970.0 0.020953
8990.0 0.021217
9010.0 0.021133
9030.0 0.020853
9050.0 0.020674
9070.0 0.020563
9090.0 0.020462
9110.0 0.020364
9130.0 0.020266
9150.0 0.02017
9170.0 0.020073
9190.0 0.019984
9210.0 0.019908
9230.0 0.019807
9250.0 0.019711
9270.0 0.019618
9290.0 0.019527
9310.0 0.019438
9330.0 0.01935
9350.0 0.019264
9370.0 0.019179
9390.0 0.019095
9410.0 0.019011
9430.0 0.018925
9450.0 0.018819
9470.0 0.018721
9490.0 0.018663
9510.0 0.018595
9530.0 0.018525
9550.0 0.018451
9570.0 0.018376
9590.0 0.018302
9610.0 0.018228
9630.0 0.018153
9650.0 0.018079
9670.0 0.018008
9690.0 0.017935
9710.0 0.017862
9730.0 0.017792
9750.0 0.017721
9770.0 0.017649
9790.0 0.017579
9810.0 0.01751
9830.0 0.017439
9850.0 0.017368
9870.0 0.0173
9890.0 0.017232
9910.0 0.017162
9930.0 0.017094
9950.0 0.016997
9970.0 0.016935
9990.0 0.016872
10010.0 0.016808
10030.0 0.016742
10050.0 0.016675
10070.0 0.016608
10090.0 0.016541
10110.0 0.016465
10130.0 0.016364
10150.0 0.016299
10170.0 0.016239
10190.0 0.01617
10210.0 0.016104
10230.0 0.016037
10250.0 0.015962
10270.0 0.015887
10290.0 0.015815
10310.0 0.015738
10330.0 0.015656
10350.0 0.01558
10370.0 0.015503
10390.0 0.01542
10410.0 0.015337
10430.0 0.015259
10450.0 0.015175
10470.0 0.015087
10490.0 0.015003
10510.0 0.014918
10530.0 0.014824
10550.0 0.014733
10570.0 0.014645
10590.0 0.014552
10610.0 0.014455
10630.0 0.014362
10650.0 0.014267
10670.0 0.014164
10690.0 0.014064
10710.0 0.013965
10730.0 0.01386
10750.0 0.013749
10770.0 0.013646
10790.0 0.01354
10810.0 0.013427
10830.0 0.013315
10850.0 0.013207
10870.0 0.013088
10890.0 0.012967
10910.0 0.012851
10930.0 0.012732
10950.0 0.012606
10970.0 0.012482
10990.0 0.012363
11010.0 0.012554
11030.0 0.012421
11050.0 0.012295
11070.0 0.01217
11090.0 0.012039
11110.0 0.011919
11130.0 0.011804
11150.0 0.011687
11170.0 0.011573
11190.0 0.011468
11210.0 0.011364
11230.0 0.011261
11250.0 0.011166
11270.0 0.011076
11290.0 0.010987
11310.0 0.010901
11330.0 0.010825
11350.0 0.010749
11370.0 0.010674
11390.0 0.010602
11410.0 0.010532
11430.0 0.010456
11450.0 0.010379
11470.0 0.0103
11490.0 0.010215
11510.0 0.010122
11530.0 0.010026
11550.0 0.009924
11570.0 0.0098114
11590.0 0.0096929
11610.0 0.009572
11630.0 0.0094407
11650.0 0.0093003
11670.0 0.0091609
11690.0 0.0090171
11710.0 0.0088642
11730.0 0.0087088
11750.0 0.0085557
11770.0 0.0083936
11790.0 0.008226
11810.0 0.0080604
11830.0 0.0078925
11850.0 0.0077137
11870.0 0.0075381
11890.0 0.007367
11910.0 0.007191
11930.0 0.0070142
11950.0 0.0068461
11970.0 0.0066799
11990.0 0.0065119
12010.0 0.0063536
12030.0 0.0062047
12050.0 0.0060588
12070.0 0.0059182
12090.0 0.0057934
12110.0 0.0056754
12130.0 0.0055637
12150.0 0.0054639
12170.0 0.0053759
12190.0 0.0052941
12210.0 0.0052242
12230.0 0.005167
12250.0 0.00512
12270.0 0.0050836
12290.0 0.0050586
12310.0 0.0050436
12330.0 0.0050381
12350.0 0.0050416
12370.0 0.0050517
12390.0 0.0050684
12410.0 0.0050925
12430.0 0.0051184
12450.0 0.0051462
12470.0 0.0051774
12490.0 0.0052091
12510.0 0.0052383
12530.0 0.0052679
12550.0 0.0052968
12570.0 0.0053214
12590.0 0.0053421
12610.0 0.0053602
12630.0 0.0053729
12650.0 0.005378
12670.0 0.0053775
12690.0 0.0053698
12710.0 0.0053539
12730.0 0.0053302
12750.0 0.0052979
12770.0 0.0052572
12790.0 0.0052095
12810.0 0.0051541
12830.0 0.0050911
12850.0 0.0050247
12870.0 0.0049547
12890.0 0.0048798
12910.0 0.0048038
12930.0 0.0047291
12950.0 0.0046524
12970.0 0.0045758
12990.0 0.0045037
13010.0 0.0044337
13030.0 0.0043644
13050.0 0.0042987
13070.0 0.0042374
13090.0 0.0041769
13110.0 0.0041186
13130.0 0.0040642
13150.0 0.0040121
13170.0 0.0039605
13190.0 0.0039125
13210.0 0.0038677
13230.0 0.0038239
13250.0 0.003782
13270.0 0.0037431
13290.0 0.0037055
13310.0 0.0036686
13330.0 0.0036338
13350.0 0.0036005
13370.0 0.0035675
13390.0 0.0035346
13410.0 0.0035035
13430.0 0.0034721
13450.0 0.0034401
13470.0 0.0034085
13490.0 0.0033772
13510.0 0.0033442
13530.0 0.003311
13550.0 0.0032783
13570.0 0.0032448
13590.0 0.0032103
13610.0 0.0031762
13630.0 0.0031427
13650.0 0.0031079
13670.0 0.0030734
13690.0 0.0030399
13710.0 0.0030063
13730.0 0.0029716
13750.0 0.0029389
13770.0 0.0029069
13790.0 0.0028744
13810.0 0.0028427
13830.0 0.0028126
13850.0 0.0027824
13870.0 0.0027524
13890.0 0.0027242
13910.0 0.0026971
13930.0 0.0026701
13950.0 0.0026444
13970.0 0.002621
13990.0 0.002598
14010.0 0.0025759
14030.0 0.0025555
14050.0 0.0025361
14070.0 0.0025167
14090.0 0.0024986
14110.0 0.0024815
14130.0 0.0024647
14150.0 0.0024481
14170.0 0.0024327
14190.0 0.0024178
14210.0 0.0024029
14230.0 0.0023888
14250.0 0.0023756
14270.0 0.0023626
14290.0 0.00235
14310.0 0.0023387
14330.0 0.0023281
14350.0 0.0023177
14370.0 0.0023081
14390.0 0.0022995
14410.0 0.0022909
14430.0 0.0022828
14450.0 0.0022753
14470.0 0.0022681
14490.0 0.0022607
14510.0 0.0022538
14530.0 0.0022471
14550.0 0.0022403
14570.0 0.0022333
14590.0 0.0022267
14610.0 0.00222
14630.0 0.0022132
14650.0 0.002207
14670.0 0.0022016
14690.0 0.0021971
14710.0 0.0021942
14730.0 0.0021938
14750.0 0.0021961
14770.0 0.0022022
14790.0 0.0022126
14810.0 0.0022276
14830.0 0.0022492
14850.0 0.0022768
14870.0 0.0023096
14890.0 0.0023485
14910.0 0.0023933
14930.0 0.0024399
14950.0 0.0024865
14970.0 0.0025334
14990.0 0.002576
15010.0 0.0026119
15030.0 0.0026421
15050.0 0.0026664
15070.0 0.002684
15090.0 0.0026976
15110.0 0.0027085
15130.0 0.0027176
15150.0 0.0027257
15170.0 0.0027335
15190.0 0.0027412
15210.0 0.002749
15230.0 0.0027568
15250.0 0.0027649
15270.0 0.002773
15290.0 0.0027814
15310.0 0.0027899
15330.0 0.0027986
15350.0 0.0028074
15370.0 0.0028164
15390.0 0.0028256
15410.0 0.0028349
15430.0 0.0028444
15450.0 0.002854
15470.0 0.0028637
15490.0 0.0028736
15510.0 0.0028837
15530.0 0.0028938
15550.0 0.0029041
15570.0 0.0029146
15590.0 0.0029252
15610.0 0.0029359
15630.0 0.0029467
15650.0 0.0029577
15670.0 0.0029688
15690.0 0.00298
15710.0 0.0029913
15730.0 0.0030028
15750.0 0.0030143
15770.0 0.003026
15790.0 0.0030378
15810.0 0.0030496
15830.0 0.0030616
15850.0 0.0030736
15870.0 0.0030858
15890.0 0.003098
15910.0 0.0031103
15930.0 0.0031227
15950.0 0.0031352
15970.0 0.0031478
15990.0 0.0031604
16010.0 0.0031731
16030.0 0.0031858
16050.0 0.0031986
16070.0 0.0032115
16090.0 0.0032244
16110.0 0.0032373
16130.0 0.0032503
16150.0 0.0032634
16170.0 0.0032764
16190.0 0.0032895
16210.0 0.0033026
16230.0 0.0033158
16250.0 0.0033289
16270.0 0.0033421
16290.0 0.0033553
16310.0 0.0033684
16330.0 0.0033816
16350.0 0.0033948
16370.0 0.0034079
16390.0 0.003421
16410.0 0.0034341
16430.0 0.0034472
16450.0 0.0034602
16470.0 0.0034733
16490.0 0.0034862
16510.0 0.0034991
16530.0 0.003512
16550.0 0.0035248
16570.0 0.0035375
16590.0 0.0035502
16610.0 0.0035628
16630.0 0.0035754
16650.0 0.0035878
16670.0 0.0036002
16690.0 0.0036124
16710.0 0.0036246
16730.0 0.0036367
16750.0 0.0036486
16770.0 0.0036605
16790.0 0.0036722
16810.0 0.0036838
16830.0 0.0036953
16850.0 0.0037066
16870.0 0.0037178
16890.0 0.0037289
16910.0 0.0037398
16930.0 0.0037506
16950.0 0.0037612
16970.0 0.0037717
16990.0 0.0037819
17010.0 0.003792
17030.0 0.003802
17050.0 0.0038117
17070.0 0.0038213
17090.0 0.0038307
17110.0 0.0038399
17130.0 0.0038489
17150.0 0.0038577
17170.0 0.0038663
17190.0 0.0038746
17210.0 0.0038828
17230.0 0.0038908
17250.0 0.0038985
17270.0 0.003906
17290.0 0.0039133
17310.0 0.0039203
17330.0 0.0039271
17350.0 0.0039337
17370.0 0.00394
17390.0 0.0039461
17410.0 0.0039519
17430.0 0.0039575
17450.0 0.0039628
17470.0 0.0039679
17490.0 0.0039727
17510.0 0.0039773
17530.0 0.0039816
17550.0 0.0039856
17570.0 0.0039893
17590.0 0.0039928
17610.0 0.003996
17630.0 0.0039989
17650.0 0.0040016
17670.0 0.004004
17690.0 0.0040061
17710.0 0.0040079
17730.0 0.0040094
17750.0 0.0040107
17770.0 0.0040117
17790.0 0.0040124
17810.0 0.0040128
17830.0 0.0040129
17850.0 0.0040127
17870.0 0.0040122
17890.0 0.0040115
17910.0 0.0040104
17930.0 0.0040091
17950.0 0.0040075
17970.0 0.0040056
17990.0 0.0040034
18010.0 0.004001
18030.0 0.0039982
18050.0 0.0039952
18070.0 0.0039919
18090.0 0.0039882
18110.0 0.0039843
18130.0 0.0039802
18150.0 0.0039757
18170.0 0.003971
18190.0 0.003966
18210.0 0.0039607
18230.0 0.0039551
18250.0 0.0039493
18270.0 0.0039432
18290.0 0.0039368
18310.0 0.0039302
18330.0 0.0039233
18350.0 0.0039161
18370.0 0.0039087
18390.0 0.003901
18410.0 0.003893
18430.0 0.0038848
18450.0 0.0038764
18470.0 0.0038677
18490.0 0.0038587
18510.0 0.0038496
18530.0 0.0038401
18550.0 0.0038305
18570.0 0.0038206
18590.0 0.0038105
18610.0 0.0038001
18630.0 0.0037896
18650.0 0.0037788
18670.0 0.0037677
18690.0 0.0037565
18710.0 0.0037451
18730.0 0.0037334
18750.0 0.0037216
18770.0 0.0037096
18790.0 0.0036973
18810.0 0.0036849
18830.0 0.0036723
18850.0 0.0036595
18870.0 0.0036465
18890.0 0.0036333
18910.0 0.00362
18930.0 0.0036064
18950.0 0.0035928
18970.0 0.0035789
18990.0 0.0035649
19010.0 0.0035508
19030.0 0.0035365
19050.0 0.003522
19070.0 0.0035074
19090.0 0.0034927
19110.0 0.0034778
19130.0 0.0034628
19150.0 0.0034477
19170.0 0.0034324
19190.0 0.003417
19210.0 0.0034015
19230.0 0.0033859
19250.0 0.0033702
19270.0 0.0033544
19290.0 0.0033385
19310.0 0.0033225
19330.0 0.0033064
19350.0 0.0032902
19370.0 0.0032739
19390.0 0.0032575
19410.0 0.0032411
19430.0 0.0032246
19450.0 0.003208
19470.0 0.0031913
19490.0 0.0031746
19510.0 0.0031578
19530.0 0.003141
19550.0 0.0031241
19570.0 0.0031071
19590.0 0.0030902
19610.0 0.0030731
19630.0 0.0030561
19650.0 0.003039
19670.0 0.0030218
19690.0 0.0030047
19710.0 0.0029875
19730.0 0.0029702
19750.0 0.002953
19770.0 0.0029357
19790.0 0.0029185
19810.0 0.0029012
19830.0 0.0028838
19850.0 0.0028663
19870.0 0.0028486
19890.0 0.0028303
19910.0 0.0028111
19930.0 0.0027903
19950.0 0.0027673
19970.0 0.0027408
19990.0 0.0027101
20010.0 0.0026758
20030.0 0.0026366
20050.0 0.0025926
20070.0 0.0025462
20090.0 0.0024977
20110.0 0.0024455
20130.0 0.0023938
20150.0 0.0023434
20170.0 0.0022926
20190.0 0.0022421
20210.0 0.0021942
20230.0 0.0021476
20250.0 0.0021011
20270.0 0.0020571
20290.0 0.0020156
20310.0 0.0019751
20330.0 0.0019358
20350.0 0.0019003
20370.0 0.0018665
20390.0 0.0018342
20410.0 0.0018043
20430.0 0.001777
20450.0 0.001751
20470.0 0.001727
20490.0 0.0017053
20510.0 0.0016853
20530.0 0.0016667
20550.0 0.0016498
20570.0 0.0016345
20590.0 0.0016202
20610.0 0.0016069
20630.0 0.0015947
20650.0 0.0015831
20670.0 0.0015721
20690.0 0.0015615
20710.0 0.0015511
20730.0 0.0015408
20750.0 0.0015305
20770.0 0.00152
20790.0 0.0015092
20810.0 0.001498
20830.0 0.0014863
20850.0 0.0014741
20870.0 0.0014613
20890.0 0.0014478
20910.0 0.0014339
20930.0 0.0014193
20950.0 0.0014041
20970.0 0.0013885
20990.0 0.0013726
21010.0 0.0013559
21030.0 0.001339
21050.0 0.0013221
21070.0 0.0013049
21090.0 0.0012873
21110.0 0.00127
21130.0 0.0012528
21150.0 0.0012354
21170.0 0.0012183
21190.0 0.0012016
21210.0 0.0011849
21230.0 0.0011682
21250.0 0.0011522
21270.0 0.0011365
21290.0 0.0011209
21310.0 0.0011058
21330.0 0.0010914
21350.0 0.0010771
21370.0 0.0010633
21390.0 0.0010501
21410.0 0.0010374
21430.0 0.0010249
21450.0 0.0010131
21470.0 0.0010019
21490.0 0.00099116
21510.0 0.00098087
21530.0 0.00097121
21550.0 0.00096199
21570.0 0.00095312
21590.0 0.00094474
21610.0 0.00093676
21630.0 0.00092908
21650.0 0.00092167
21670.0 0.00091459
21690.0 0.00090769
21710.0 0.00090095
21730.0 0.00089437
21750.0 0.0008879
21770.0 0.0008815
21790.0 0.00087517
21810.0 0.0008689
21830.0 0.00086267
21850.0 0.00085646
21870.0 0.00085028
21890.0 0.00084414
21910.0 0.00083801
21930.0 0.00083189
21950.0 0.00082579
21970.0 0.00081969
21990.0 0.00081354
22010.0 0.00080739
22030.0 0.00080121
22050.0 0.00079495
22070.0 0.00078861
22090.0 0.00078223
22110.0 0.00077572
22130.0 0.00076904
22150.0 0.00076228
22170.0 0.00075542
22190.0 0.00074831
22210.0 0.00074104
22230.0 0.00073375
22250.0 0.00072624
22270.0 0.00071852
22290.0 0.00071075
22310.0 0.00070288
22330.0 0.00069469
22350.0 0.00068641
22370.0 0.00067811
22390.0 0.00066959
22410.0 0.00066078
22430.0 0.00065207
22450.0 0.00064326
22470.0 0.00063415
22490.0 0.000625
22510.0 0.00061594
22530.0 0.00060658
22550.0 0.00059706
22570.0 0.00058776
22590.0 0.00057847
22610.0 0.00056901
22630.0 0.0005597
22650.0 0.00055075
22670.0 0.00054172
22690.0 0.0005328
22710.0 0.0005243
22730.0 0.00051605
22750.0 0.00050777
22770.0 0.00049999
22790.0 0.00049266
22810.0 0.00048551
22830.0 0.00047866
22850.0 0.00047231
22870.0 0.00046623
22890.0 0.00046034
22910.0 0.00045486
22930.0 0.00044972
22950.0 0.00044476
22970.0 0.00043999
22990.0 0.0004356
23010.0 0.00043137
23030.0 0.00042724
23050.0 0.00042333
23070.0 0.00041959
23090.0 0.00041586
23110.0 0.00041226
23130.0 0.00040881
23150.0 0.00040541
23170.0 0.00040204
23190.0 0.00039878
23210.0 0.00039561
23230.0 0.00039243
23250.0 0.00038931
23270.0 0.00038627
23290.0 0.00038325
23310.0 0.00038019
23330.0 0.00037724
23350.0 0.00037434
23370.0 0.00037142
23390.0 0.00036855
23410.0 0.00036578
23430.0 0.00036302
23450.0 0.00036031
23470.0 0.00035773
23490.0 0.00035526
23510.0 0.00035283
23530.0 0.00035054
23550.0 0.00034845
23570.0 0.00034648
23590.0 0.00034468
23610.0 0.0003431
23630.0 0.00034172
23650.0 0.00034056
23670.0 0.00033966
23690.0 0.00033903
23710.0 0.00033869
23730.0 0.0003387
23750.0 0.00033901
23770.0 0.00033966
23790.0 0.00034077
23810.0 0.00034226
23830.0 0.00034409
23850.0 0.00034647
23870.0 0.00034936
23890.0 0.00035251
23910.0 0.00035605
23930.0 0.00036009
23950.0 0.00036433
23970.0 0.00036858
23990.0 0.00037317
24010.0 0.00037784
24030.0 0.0003823
24050.0 0.00038665
24070.0 0.00039111
