#lamb flux
1010.0 1.0694e-08
1030.0 1.1828e-08
1050.0 1.3132e-08
1070.0 1.4599e-08
1090.0 1.6267e-08
1110.0 1.7977e-08
1130.0 1.9698e-08
1150.0 2.15e-08
1170.0 2.336e-08
1190.0 2.5123e-08
1210.0 2.6911e-08
1230.0 2.8758e-08
1250.0 3.0567e-08
1270.0 3.2324e-08
1290.0 3.4181e-08
1310.0 3.6036e-08
1330.0 3.7816e-08
1350.0 3.9615e-08
1370.0 4.1473e-08
1390.0 4.3284e-08
1410.0 4.5042e-08
1430.0 4.6879e-08
1450.0 4.8717e-08
1470.0 5.0493e-08
1490.0 5.2288e-08
1510.0 5.4184e-08
1530.0 5.5981e-08
1550.0 5.7754e-08
1570.0 5.9589e-08
1590.0 6.1426e-08
1610.0 6.3182e-08
1630.0 6.4992e-08
1650.0 6.6851e-08
1670.0 6.865e-08
1690.0 7.0427e-08
1710.0 7.2274e-08
1730.0 7.4133e-08
1750.0 7.5883e-08
1770.0 7.7686e-08
1790.0 7.9527e-08
1810.0 8.1312e-08
1830.0 8.3068e-08
1850.0 8.4934e-08
1870.0 8.6756e-08
1890.0 8.8519e-08
1910.0 9.0321e-08
1930.0 9.217e-08
1950.0 9.3939e-08
1970.0 9.569e-08
1990.0 9.7512e-08
2010.0 9.9308e-08
2030.0 1.0104e-07
2050.0 1.0284e-07
2070.0 1.0468e-07
2090.0 1.0642e-07
2110.0 1.0816e-07
2130.0 1.0996e-07
2150.0 1.1172e-07
2170.0 1.1341e-07
2190.0 1.1517e-07
2210.0 1.1695e-07
2230.0 1.1865e-07
2250.0 1.2035e-07
2270.0 1.2213e-07
2290.0 1.2385e-07
2310.0 1.2551e-07
2330.0 1.2724e-07
2350.0 1.2901e-07
2370.0 1.3077e-07
2390.0 1.3269e-07
2410.0 1.3495e-07
2430.0 1.3755e-07
2450.0 1.4067e-07
2470.0 1.4466e-07
2490.0 1.4968e-07
2510.0 1.554e-07
2530.0 1.6227e-07
2550.0 1.7088e-07
2570.0 1.8159e-07
2590.0 1.9553e-07
2610.0 2.1639e-07
2630.0 2.4617e-07
2650.0 2.8511e-07
2670.0 3.3546e-07
2690.0 3.9733e-07
2710.0 4.6337e-07
2730.0 5.2863e-07
2750.0 5.929e-07
2770.0 6.4881e-07
2790.0 6.9321e-07
2810.0 7.2845e-07
2830.0 7.5597e-07
2850.0 7.7476e-07
2870.0 7.8856e-07
2890.0 7.9948e-07
2910.0 8.0819e-07
2930.0 8.1531e-07
2950.0 8.2211e-07
2970.0 8.2876e-07
2990.0 8.3499e-07
3010.0 2.3601e-05
3030.0 2.3778e-05
3050.0 2.3948e-05
3070.0 2.4094e-05
3090.0 2.422e-05
3110.0 2.4298e-05
3130.0 2.4295e-05
3150.0 2.4187e-05
3170.0 2.3928e-05
3190.0 2.3521e-05
3210.0 2.3005e-05
3230.0 2.2415e-05
3250.0 2.1832e-05
3270.0 2.1406e-05
3290.0 2.1169e-05
3310.0 2.1208e-05
3330.0 2.1515e-05
3350.0 2.2049e-05
3370.0 2.2812e-05
3390.0 2.3774e-05
3410.0 2.4821e-05
3430.0 2.5996e-05
3450.0 2.7348e-05
3470.0 2.8826e-05
3490.0 3.0391e-05
3510.0 3.2161e-05
3530.0 3.4056e-05
3550.0 3.5975e-05
3570.0 3.7976e-05
3590.0 4.0153e-05
3610.0 4.2395e-05
3630.0 4.4631e-05
3650.0 4.6951e-05
3670.0 4.9069e-05
3690.0 5.0652e-05
3710.0 5.1559e-05
3730.0 5.1589e-05
3750.0 5.0871e-05
3770.0 5.0589e-05
3790.0 5.0288e-05
3810.0 4.9052e-05
3830.0 5.0571e-05
3850.0 5.6544e-05
3870.0 5.9823e-05
3890.0 5.955e-05
3910.0 5.9804e-05
3930.0 6.1378e-05
3950.0 6.2347e-05
3970.0 5.6804e-05
3990.0 4.8877e-05
4010.0 0.00014649
4030.0 0.0001775
4050.0 0.00020349
4070.0 0.00017656
4090.0 0.00015991
4110.0 0.00014111
4130.0 0.00012987
4150.0 0.00013815
4170.0 0.00013608
4190.0 0.00014505
4210.0 0.00014372
4230.0 0.00015202
4250.0 0.00017984
4270.0 0.00018196
4290.0 0.00016767
4310.0 0.00017422
4330.0 0.00018532
4350.0 0.00020779
4370.0 0.00023647
4390.0 0.0002219
4410.0 0.00016395
4430.0 0.00013879
4450.0 0.00012753
4470.0 9.7887e-05
4490.0 0.00010563
4510.0 0.00015956
4530.0 0.00018402
4550.0 0.00018562
4570.0 0.00020887
4590.0 0.00023792
4610.0 0.0003209
4630.0 0.00041678
4650.0 0.00045199
4670.0 0.00041858
4690.0 0.0003994
4710.0 0.0004222
4730.0 0.00039844
4750.0 0.00029788
4770.0 0.00021851
4790.0 0.00020404
4810.0 0.00019449
4830.0 0.00017805
4850.0 0.00019538
4870.0 0.00025811
4890.0 0.00030439
4910.0 0.00026706
4930.0 0.00023631
4950.0 0.00025962
4970.0 0.00033295
4990.0 0.00045123
5010.0 0.00051908
5030.0 0.00045771
5050.0 0.00030967
5070.0 0.00020409
5090.0 0.00016456
5110.0 0.00016924
5130.0 0.00019533
5150.0 0.00021162
5170.0 0.00020845
5190.0 0.00019478
5210.0 0.00020359
5230.0 0.00021402
5250.0 0.00023065
5270.0 0.00024886
5290.0 0.00027579
5310.0 0.00032101
5330.0 0.00035524
5350.0 0.00035297
5370.0 0.00037076
5390.0 0.00042546
5410.0 0.00042508
5430.0 0.00037592
5450.0 0.00034538
5470.0 0.00036674
5490.0 0.00044805
5510.0 0.00056022
5530.0 0.00064255
5550.0 0.00062103
5570.0 0.00056456
5590.0 0.00049089
5610.0 0.00045272
5630.0 0.00043899
5650.0 0.0004181
5670.0 0.00039618
5690.0 0.00035419
5710.0 0.00034534
5730.0 0.00031811
5750.0 0.00022429
5770.0 0.00017498
5790.0 0.00019829
5810.0 0.00022391
5830.0 0.00027476
5850.0 0.00032708
5870.0 0.00036289
5890.0 0.00036904
5910.0 0.00036206
5930.0 0.00034464
5950.0 0.00035118
5970.0 0.00040031
5990.0 0.00037639
6010.0 0.00031553
6030.0 0.00026658
6050.0 0.00023216
6070.0 0.00023089
6090.0 0.00025036
6110.0 0.00027994
6130.0 0.00028423
6150.0 0.00024455
6170.0 0.00021513
6190.0 0.0002421
6210.0 0.00032005
6230.0 0.00042
6250.0 0.00045492
6270.0 0.00039754
6290.0 0.00033447
6310.0 0.00026111
6330.0 0.00020006
6350.0 0.00017845
6370.0 0.00018766
6390.0 0.00021694
6410.0 0.0002675
6430.0 0.00031237
6450.0 0.00035743
6470.0 0.00040926
6490.0 0.00049436
6510.0 0.00055276
6530.0 0.0005423
6550.0 0.00049038
6570.0 0.00041629
6590.0 0.00037538
6610.0 0.00032367
6630.0 0.00029323
6650.0 0.00027719
6670.0 0.00026929
6690.0 0.00024331
6710.0 0.00022118
6730.0 0.00015931
6750.0 0.00015794
6770.0 0.00017167
6790.0 0.00019732
6810.0 0.00018055
6830.0 0.00018592
6850.0 0.00017389
6870.0 0.00015885
6890.0 0.00015252
6910.0 0.00016253
6930.0 0.00015223
6950.0 0.00015662
6970.0 0.00016474
6990.0 0.00018699
7010.0 0.00018859
7030.0 0.00019158
7050.0 0.0001827
7070.0 0.00017408
7090.0 0.00017459
7110.0 0.00017964
7130.0 0.00019332
7150.0 0.00020533
7170.0 0.00022656
7190.0 0.00024906
7210.0 0.00024473
7230.0 0.00025159
7250.0 0.00027037
7270.0 0.00029464
7290.0 0.0003497
7310.0 0.00037946
7330.0 0.00036678
7350.0 0.00033173
7370.0 0.00028864
7390.0 0.00028001
7410.0 0.00029757
7430.0 0.00033071
7450.0 0.0003602
7470.0 0.0003569
7490.0 0.00032542
7510.0 0.00036862
7530.0 0.00036458
7550.0 0.00032769
7570.0 0.00025599
7590.0 0.00017598
7610.0 0.00015105
7630.0 0.00017162
7650.0 0.00020292
7670.0 0.00025254
7690.0 0.00027791
7710.0 0.00028961
7730.0 0.00030435
7750.0 0.00034166
7770.0 0.00034703
7790.0 0.00031877
7810.0 0.00029086
7830.0 0.00029994
7850.0 0.00029157
7870.0 0.00026732
7890.0 0.0002246
7910.0 0.00018257
7930.0 0.00017433
7950.0 0.00015882
7970.0 0.00014701
7990.0 0.00014617
8010.0 1.0826e-05
8030.0 1.0685e-05
8050.0 1.0541e-05
8070.0 1.0679e-05
8090.0 1.1475e-05
8110.0 1.1279e-05
8130.0 9.3038e-06
8150.0 9.0608e-06
8170.0 7.8046e-06
8190.0 7.3966e-06
8210.0 9.6052e-06
8230.0 1.0694e-05
8250.0 9.6385e-06
8270.0 8.389e-06
8290.0 8.1777e-06
8310.0 6.2939e-06
8330.0 4.2421e-06
8350.0 3.0106e-06
8370.0 1.8968e-06
8390.0 3.4673e-06
8410.0 4.0403e-06
8430.0 4.9803e-06
8450.0 5.8483e-06
8470.0 7.269e-06
8490.0 7.2178e-06
8510.0 7.0998e-06
8530.0 7.4096e-06
8550.0 9.997e-06
8570.0 1.1835e-05
8590.0 1.277e-05
8610.0 1.6131e-05
8630.0 1.9432e-05
8650.0 2.0328e-05
8670.0 2.1603e-05
8690.0 2.1724e-05
8710.0 1.9674e-05
8730.0 1.83e-05
8750.0 1.6153e-05
8770.0 1.5327e-05
8790.0 1.5058e-05
8810.0 1.4429e-05
8830.0 1.1538e-05
8850.0 8.4466e-06
8870.0 6.4675e-06
8890.0 6.323e-06
8910.0 7.2463e-06
8930.0 8.2421e-06
8950.0 8.4e-06
8970.0 8.4397e-06
8990.0 7.5272e-06
9010.0 7.8881e-05
9030.0 7.1476e-05
9050.0 7.1821e-05
9070.0 7.2388e-05
9090.0 7.2885e-05
9110.0 7.3499e-05
9130.0 7.3973e-05
9150.0 7.4341e-05
9170.0 7.4734e-05
9190.0 7.5153e-05
9210.0 7.5594e-05
9230.0 7.606e-05
9250.0 7.6533e-05
9270.0 7.7024e-05
9290.0 7.753e-05
9310.0 7.8039e-05
9330.0 7.8559e-05
9350.0 7.9097e-05
9370.0 7.9642e-05
9390.0 8.0192e-05
9410.0 8.0758e-05
9430.0 8.1341e-05
9450.0 8.1922e-05
9470.0 8.2515e-05
9490.0 8.3125e-05
9510.0 8.3743e-05
9530.0 8.4363e-05
9550.0 8.5005e-05
9570.0 8.5658e-05
9590.0 8.6313e-05
9610.0 8.6979e-05
9630.0 8.7663e-05
9650.0 8.8353e-05
9670.0 8.9044e-05
9690.0 8.9754e-05
9710.0 9.0475e-05
9730.0 9.1197e-05
9750.0 9.193e-05
9770.0 9.2685e-05
9790.0 9.3438e-05
9810.0 9.4195e-05
9830.0 9.4969e-05
9850.0 9.5752e-05
9870.0 9.6532e-05
9890.0 9.7325e-05
9910.0 9.8133e-05
9930.0 9.8941e-05
9950.0 9.9753e-05
9970.0 0.00010058
9990.0 0.00010142
10010.0 8.8003e-05
10030.0 8.8725e-05
10050.0 8.9462e-05
10070.0 9.0224e-05
10090.0 9.0943e-05
10110.0 9.168e-05
10130.0 9.2419e-05
10150.0 9.3156e-05
10170.0 9.3902e-05
10190.0 9.4661e-05
10210.0 9.541e-05
10230.0 9.6158e-05
10250.0 9.6918e-05
10270.0 9.7677e-05
10290.0 9.8427e-05
10310.0 9.9186e-05
10330.0 9.9953e-05
10350.0 0.00010071
10370.0 0.00010146
10390.0 0.00010222
10410.0 0.00010297
10430.0 0.00010372
10450.0 0.00010446
10470.0 0.00010522
10490.0 0.00010595
10510.0 0.00010669
10530.0 0.00010743
10550.0 0.00010816
10570.0 0.00010888
10590.0 0.0001096
10610.0 0.00011032
10630.0 0.00011103
10650.0 0.00011172
10670.0 0.00011243
10690.0 0.00011312
10710.0 0.00011379
10730.0 0.00011447
10750.0 0.00011515
10770.0 0.0001158
10790.0 0.00011645
10810.0 0.00011709
10830.0 0.00011772
10850.0 0.00011831
10870.0 0.00011888
10890.0 0.00011939
10910.0 0.00011978
10930.0 0.00012
10950.0 0.00011995
10970.0 0.00011954
10990.0 0.00011874
11010.0 0.00011741
11030.0 0.00011554
11050.0 0.00011327
11070.0 0.00011054
11090.0 0.00010727
11110.0 0.00010389
11130.0 0.00010036
11150.0 9.6561e-05
11170.0 9.2645e-05
11190.0 8.8846e-05
11210.0 8.4922e-05
11230.0 8.0899e-05
11250.0 7.7055e-05
11270.0 7.3364e-05
11290.0 6.9665e-05
11310.0 6.6162e-05
11330.0 6.3076e-05
11350.0 6.0161e-05
11370.0 5.7468e-05
11390.0 5.5137e-05
11410.0 5.3099e-05
11430.0 5.1205e-05
11450.0 4.9572e-05
11470.0 4.8161e-05
11490.0 4.6848e-05
11510.0 4.5583e-05
11530.0 4.4408e-05
11550.0 4.3242e-05
11570.0 4.1998e-05
11590.0 4.0709e-05
11610.0 3.9397e-05
11630.0 3.797e-05
11650.0 3.6441e-05
11670.0 3.4935e-05
11690.0 3.3407e-05
11710.0 3.1831e-05
11730.0 3.0304e-05
11750.0 2.8891e-05
11770.0 2.7505e-05
11790.0 2.6206e-05
11810.0 2.5063e-05
11830.0 2.404e-05
11850.0 2.3098e-05
11870.0 2.231e-05
11890.0 2.1655e-05
11910.0 2.108e-05
11930.0 2.0585e-05
11950.0 2.0173e-05
11970.0 1.9805e-05
11990.0 1.9457e-05
12010.0 1.9135e-05
12030.0 1.8825e-05
12050.0 1.8504e-05
12070.0 1.8171e-05
12090.0 1.7849e-05
12110.0 1.7523e-05
12130.0 1.7196e-05
12150.0 1.6895e-05
12170.0 1.6631e-05
12190.0 1.6404e-05
12210.0 1.6245e-05
12230.0 1.6168e-05
12250.0 1.618e-05
12270.0 1.6302e-05
12290.0 1.6533e-05
12310.0 1.6864e-05
12330.0 1.7327e-05
12350.0 1.7904e-05
12370.0 1.8562e-05
12390.0 1.9321e-05
12410.0 2.0209e-05
12430.0 2.1112e-05
12450.0 2.2047e-05
12470.0 2.3042e-05
12490.0 2.4041e-05
12510.0 2.4978e-05
12530.0 2.591e-05
12550.0 2.6809e-05
12570.0 2.7603e-05
12590.0 2.83e-05
12610.0 2.8921e-05
12630.0 2.9416e-05
12650.0 2.9758e-05
12670.0 2.9982e-05
12690.0 3.0072e-05
12710.0 3.0023e-05
12730.0 2.9848e-05
12750.0 2.9538e-05
12770.0 2.9112e-05
12790.0 2.8595e-05
12810.0 2.7978e-05
12830.0 2.7264e-05
12850.0 2.6518e-05
12870.0 2.5728e-05
12890.0 2.4874e-05
12910.0 2.4006e-05
12930.0 2.315e-05
12950.0 2.2257e-05
12970.0 2.1348e-05
12990.0 2.0488e-05
13010.0 1.9639e-05
13030.0 1.8781e-05
13050.0 1.7956e-05
13070.0 1.7183e-05
13090.0 1.6408e-05
13110.0 1.5658e-05
13130.0 1.4966e-05
13150.0 1.4311e-05
13170.0 1.367e-05
13190.0 1.3099e-05
13210.0 1.2597e-05
13230.0 1.2138e-05
13250.0 1.1743e-05
13270.0 1.1431e-05
13290.0 1.1188e-05
13310.0 1.1021e-05
13330.0 1.0945e-05
13350.0 1.0954e-05
13370.0 1.1052e-05
13390.0 1.1245e-05
13410.0 1.1506e-05
13430.0 1.1845e-05
13450.0 1.2264e-05
13470.0 1.2729e-05
13490.0 1.3221e-05
13510.0 1.3777e-05
13530.0 1.434e-05
13550.0 1.4878e-05
13570.0 1.541e-05
13590.0 1.5928e-05
13610.0 1.6388e-05
13630.0 1.6791e-05
13650.0 1.7158e-05
13670.0 1.7462e-05
13690.0 1.7698e-05
13710.0 1.788e-05
13730.0 1.8011e-05
13750.0 1.8076e-05
13770.0 1.8091e-05
13790.0 1.8058e-05
13810.0 1.7978e-05
13830.0 1.786e-05
13850.0 1.7701e-05
13870.0 1.7499e-05
13890.0 1.7269e-05
13910.0 1.701e-05
13930.0 1.671e-05
13950.0 1.6382e-05
13970.0 1.6047e-05
13990.0 1.5682e-05
14010.0 1.5293e-05
14030.0 1.4906e-05
14050.0 1.4516e-05
14070.0 1.4104e-05
14090.0 1.3709e-05
14110.0 1.3338e-05
14130.0 1.2979e-05
14150.0 1.264e-05
14170.0 1.2352e-05
14190.0 1.2102e-05
14210.0 1.189e-05
14230.0 1.1733e-05
14250.0 1.1632e-05
14270.0 1.1582e-05
14290.0 1.1593e-05
14310.0 1.1658e-05
14330.0 1.1774e-05
14350.0 1.1944e-05
14370.0 1.2157e-05
14390.0 1.2399e-05
14410.0 1.2683e-05
14430.0 1.2996e-05
14450.0 1.3315e-05
14470.0 1.3646e-05
14490.0 1.3998e-05
14510.0 1.4335e-05
14530.0 1.4655e-05
14550.0 1.4974e-05
14570.0 1.5281e-05
14590.0 1.556e-05
14610.0 1.5831e-05
14630.0 1.6098e-05
14650.0 1.6347e-05
14670.0 1.6587e-05
14690.0 1.6838e-05
14710.0 1.7102e-05
14730.0 1.7365e-05
14750.0 1.7658e-05
14770.0 1.7989e-05
14790.0 1.8348e-05
14810.0 1.8737e-05
14830.0 1.9198e-05
14850.0 1.9699e-05
14870.0 2.0222e-05
14890.0 2.0786e-05
14910.0 2.1385e-05
14930.0 2.1961e-05
14950.0 2.25e-05
14970.0 2.3009e-05
14990.0 2.3437e-05
15010.0 2.3763e-05
15030.0 2.4005e-05
15050.0 2.4166e-05
15070.0 2.4244e-05
15090.0 2.4271e-05
15110.0 2.4263e-05
15130.0 2.4233e-05
15150.0 2.4192e-05
15170.0 2.4143e-05
15190.0 2.4091e-05
15210.0 2.404e-05
15230.0 2.3989e-05
15250.0 2.3936e-05
15270.0 2.3884e-05
15290.0 2.3834e-05
15310.0 2.3783e-05
15330.0 2.3732e-05
15350.0 2.3682e-05
15370.0 2.3633e-05
15390.0 2.3581e-05
15410.0 2.3532e-05
15430.0 2.3483e-05
15450.0 2.3434e-05
15470.0 2.3384e-05
15490.0 2.3336e-05
15510.0 2.3289e-05
15530.0 2.3239e-05
15550.0 2.3191e-05
15570.0 2.3145e-05
15590.0 2.3096e-05
15610.0 2.3047e-05
15630.0 2.3001e-05
15650.0 2.2954e-05
15670.0 2.2906e-05
15690.0 2.2859e-05
15710.0 2.2814e-05
15730.0 2.2767e-05
15750.0 2.272e-05
15770.0 2.2674e-05
15790.0 2.2629e-05
15810.0 2.2581e-05
15830.0 2.2535e-05
15850.0 2.249e-05
15870.0 2.2444e-05
15890.0 2.2397e-05
15910.0 2.2353e-05
15930.0 2.2308e-05
15950.0 2.2261e-05
15970.0 2.2216e-05
15990.0 2.2171e-05
16010.0 2.2125e-05
16030.0 2.2078e-05
16050.0 2.2035e-05
16070.0 2.199e-05
16090.0 2.1944e-05
16110.0 2.1899e-05
16130.0 2.1856e-05
16150.0 2.1809e-05
16170.0 2.1763e-05
16190.0 2.1719e-05
16210.0 2.1674e-05
16230.0 2.1628e-05
16250.0 2.1583e-05
16270.0 2.1539e-05
16290.0 2.1493e-05
16310.0 2.1448e-05
16330.0 2.1404e-05
16350.0 2.1359e-05
16370.0 2.1311e-05
16390.0 2.1267e-05
16410.0 2.1222e-05
16430.0 2.1176e-05
16450.0 2.113e-05
16470.0 2.1087e-05
16490.0 2.1041e-05
16510.0 2.0994e-05
16530.0 2.0949e-05
16550.0 2.0904e-05
16570.0 2.0857e-05
16590.0 2.081e-05
16610.0 2.0766e-05
16630.0 2.072e-05
16650.0 2.0673e-05
16670.0 2.0628e-05
16690.0 2.0582e-05
16710.0 2.0534e-05
16730.0 2.0487e-05
16750.0 2.0442e-05
16770.0 2.0395e-05
16790.0 2.0347e-05
16810.0 2.0301e-05
16830.0 2.0255e-05
16850.0 2.0207e-05
16870.0 2.016e-05
16890.0 2.0114e-05
16910.0 2.0066e-05
16930.0 2.0017e-05
16950.0 1.997e-05
16970.0 1.9923e-05
16990.0 1.9874e-05
17010.0 1.9827e-05
17030.0 1.978e-05
17050.0 1.9731e-05
17070.0 1.9682e-05
17090.0 1.9635e-05
17110.0 1.9586e-05
17130.0 1.9536e-05
17150.0 1.9487e-05
17170.0 1.944e-05
17190.0 1.939e-05
17210.0 1.934e-05
17230.0 1.9293e-05
17250.0 1.9243e-05
17270.0 1.9192e-05
17290.0 1.9143e-05
17310.0 1.9094e-05
17330.0 1.9043e-05
17350.0 1.8992e-05
17370.0 1.8943e-05
17390.0 1.8893e-05
17410.0 1.8842e-05
17430.0 1.8792e-05
17450.0 1.8743e-05
17470.0 1.869e-05
17490.0 1.8638e-05
17510.0 1.8588e-05
17530.0 1.8537e-05
17550.0 1.8485e-05
17570.0 1.8434e-05
17590.0 1.8384e-05
17610.0 1.8331e-05
17630.0 1.8279e-05
17650.0 1.8228e-05
17670.0 1.8176e-05
17690.0 1.8122e-05
17710.0 1.8071e-05
17730.0 1.8019e-05
17750.0 1.7966e-05
17770.0 1.7913e-05
17790.0 1.7862e-05
17810.0 1.7808e-05
17830.0 1.7754e-05
17850.0 1.7702e-05
17870.0 1.765e-05
17890.0 1.7595e-05
17910.0 1.7541e-05
17930.0 1.7489e-05
17950.0 1.7435e-05
17970.0 1.7381e-05
17990.0 1.7328e-05
18010.0 1.7275e-05
18030.0 1.7219e-05
18050.0 1.7165e-05
18070.0 1.7112e-05
18090.0 1.7058e-05
18110.0 1.7002e-05
18130.0 1.6949e-05
18150.0 1.6895e-05
18170.0 1.684e-05
18190.0 1.6785e-05
18210.0 1.6732e-05
18230.0 1.6676e-05
18250.0 1.662e-05
18270.0 1.6566e-05
18290.0 1.6511e-05
18310.0 1.6455e-05
18330.0 1.64e-05
18350.0 1.6347e-05
18370.0 1.629e-05
18390.0 1.6234e-05
18410.0 1.618e-05
18430.0 1.6125e-05
18450.0 1.6067e-05
18470.0 1.6012e-05
18490.0 1.5958e-05
18510.0 1.5901e-05
18530.0 1.5845e-05
18550.0 1.5791e-05
18570.0 1.5735e-05
18590.0 1.5677e-05
18610.0 1.5622e-05
18630.0 1.5567e-05
18650.0 1.551e-05
18670.0 1.5453e-05
18690.0 1.5398e-05
18710.0 1.5342e-05
18730.0 1.5285e-05
18750.0 1.523e-05
18770.0 1.5175e-05
18790.0 1.5117e-05
18810.0 1.506e-05
18830.0 1.5005e-05
18850.0 1.4948e-05
18870.0 1.4891e-05
18890.0 1.4835e-05
18910.0 1.478e-05
18930.0 1.4722e-05
18950.0 1.4666e-05
18970.0 1.4611e-05
18990.0 1.4554e-05
19010.0 1.4495e-05
19030.0 1.444e-05
19050.0 1.4384e-05
19070.0 1.4327e-05
19090.0 1.427e-05
19110.0 1.4215e-05
19130.0 1.4158e-05
19150.0 1.41e-05
19170.0 1.4045e-05
19190.0 1.3989e-05
19210.0 1.3931e-05
19230.0 1.3874e-05
19250.0 1.3819e-05
19270.0 1.3762e-05
19290.0 1.3705e-05
19310.0 1.365e-05
19330.0 1.3594e-05
19350.0 1.3535e-05
19370.0 1.3479e-05
19390.0 1.3423e-05
19410.0 1.3366e-05
19430.0 1.3309e-05
19450.0 1.3254e-05
19470.0 1.3198e-05
19490.0 1.3141e-05
19510.0 1.3084e-05
19530.0 1.3029e-05
19550.0 1.2972e-05
19570.0 1.2914e-05
19590.0 1.2859e-05
19610.0 1.2803e-05
19630.0 1.2746e-05
19650.0 1.269e-05
19670.0 1.2636e-05
19690.0 1.2578e-05
19710.0 1.2522e-05
19730.0 1.2466e-05
19750.0 1.2411e-05
19770.0 1.2353e-05
19790.0 1.2297e-05
19810.0 1.2242e-05
19830.0 1.2185e-05
19850.0 1.2128e-05
19870.0 1.2072e-05
19890.0 1.2012e-05
19910.0 1.1945e-05
19930.0 1.1875e-05
19950.0 1.1793e-05
19970.0 1.1694e-05
19990.0 1.1573e-05
20010.0 1.0297e-05
20030.0 1.0148e-05
20050.0 9.9734e-06
20070.0 9.7845e-06
20090.0 9.5811e-06
20110.0 9.3512e-06
20130.0 9.1184e-06
20150.0 8.8877e-06
20170.0 8.6485e-06
20190.0 8.4059e-06
20210.0 8.1767e-06
20230.0 7.9532e-06
20250.0 7.7292e-06
20270.0 7.5214e-06
20290.0 7.3316e-06
20310.0 7.1512e-06
20330.0 6.9827e-06
20350.0 6.8428e-06
20370.0 6.7186e-06
20390.0 6.6097e-06
20410.0 6.5217e-06
20430.0 6.4539e-06
20450.0 6.4002e-06
20470.0 6.3642e-06
20490.0 6.3449e-06
20510.0 6.3393e-06
20530.0 6.3471e-06
20550.0 6.3667e-06
20570.0 6.3952e-06
20590.0 6.4338e-06
20610.0 6.4806e-06
20630.0 6.5321e-06
20650.0 6.5897e-06
20670.0 6.6555e-06
20690.0 6.7226e-06
20710.0 6.792e-06
20730.0 6.8669e-06
20750.0 6.945e-06
20770.0 7.0218e-06
20790.0 7.1025e-06
20810.0 7.1879e-06
20830.0 7.2729e-06
20850.0 7.3582e-06
20870.0 7.4495e-06
20890.0 7.5427e-06
20910.0 7.6326e-06
20930.0 7.7258e-06
20950.0 7.8224e-06
20970.0 7.9166e-06
20990.0 8.0095e-06
21010.0 8.1072e-06
21030.0 8.2028e-06
21050.0 8.294e-06
21070.0 8.385e-06
21090.0 8.4763e-06
21110.0 8.5595e-06
21130.0 8.6378e-06
21150.0 8.7136e-06
21170.0 8.7822e-06
21190.0 8.8412e-06
21210.0 8.8943e-06
21230.0 8.9385e-06
21250.0 8.97e-06
21270.0 8.9899e-06
21290.0 8.9974e-06
21310.0 8.9902e-06
21330.0 8.9691e-06
21350.0 8.9318e-06
21370.0 8.8771e-06
21390.0 8.8076e-06
21410.0 8.7225e-06
21430.0 8.6147e-06
21450.0 8.4937e-06
21470.0 8.3619e-06
21490.0 8.2128e-06
21510.0 8.0493e-06
21530.0 7.8832e-06
21550.0 7.7092e-06
21570.0 7.5236e-06
21590.0 7.3411e-06
21610.0 7.1647e-06
21630.0 6.9882e-06
21650.0 6.8157e-06
21670.0 6.6661e-06
21690.0 6.5282e-06
21710.0 6.404e-06
21730.0 6.3023e-06
21750.0 6.2239e-06
21770.0 6.1641e-06
21790.0 6.1297e-06
21810.0 6.1202e-06
21830.0 6.1337e-06
21850.0 6.1721e-06
21870.0 6.2319e-06
21890.0 6.3091e-06
21910.0 6.4082e-06
21930.0 6.5244e-06
21950.0 6.6503e-06
21970.0 6.7897e-06
21990.0 6.9462e-06
22010.0 7.1026e-06
22030.0 7.2615e-06
22050.0 7.4284e-06
22070.0 7.5961e-06
22090.0 7.755e-06
22110.0 7.9151e-06
22130.0 8.075e-06
22150.0 8.2243e-06
22170.0 8.3651e-06
22190.0 8.5046e-06
22210.0 8.6344e-06
22230.0 8.7487e-06
22250.0 8.8562e-06
22270.0 8.9553e-06
22290.0 9.04e-06
22310.0 9.1126e-06
22330.0 9.1766e-06
22350.0 9.2261e-06
22370.0 9.261e-06
22390.0 9.2828e-06
22410.0 9.2897e-06
22430.0 9.2809e-06
22450.0 9.2569e-06
22470.0 9.2156e-06
22490.0 9.1576e-06
22510.0 9.0853e-06
22530.0 8.9927e-06
22550.0 8.8801e-06
22570.0 8.7553e-06
22590.0 8.6145e-06
22610.0 8.4525e-06
