#lamb flux
1010.0 1.6915e-11
1030.0 2.1281e-11
1050.0 2.6305e-11
1070.0 3.1966e-11
1090.0 3.8402e-11
1110.0 4.5012e-11
1130.0 5.1675e-11
1150.0 5.8664e-11
1170.0 6.5883e-11
1190.0 7.274e-11
1210.0 7.9699e-11
1230.0 8.6895e-11
1250.0 9.3951e-11
1270.0 1.0081e-10
1290.0 1.0804e-10
1310.0 1.1527e-10
1330.0 1.2219e-10
1350.0 1.2917e-10
1370.0 1.3637e-10
1390.0 1.4336e-10
1410.0 1.5012e-10
1430.0 1.5717e-10
1450.0 1.642e-10
1470.0 1.7096e-10
1490.0 1.7779e-10
1510.0 1.8499e-10
1530.0 1.9179e-10
1550.0 1.9849e-10
1570.0 2.0543e-10
1590.0 2.1237e-10
1610.0 2.1899e-10
1630.0 2.2583e-10
1650.0 2.3286e-10
1670.0 2.3967e-10
1690.0 2.464e-10
1710.0 2.5341e-10
1730.0 2.6047e-10
1750.0 2.6712e-10
1770.0 2.7399e-10
1790.0 2.8101e-10
1810.0 2.8782e-10
1830.0 2.9454e-10
1850.0 3.0172e-10
1870.0 3.0875e-10
1890.0 3.1557e-10
1910.0 3.2254e-10
1930.0 3.297e-10
1950.0 3.3656e-10
1970.0 3.4336e-10
1990.0 3.5044e-10
2010.0 3.5743e-10
2030.0 3.6421e-10
2050.0 3.7122e-10
2070.0 3.7843e-10
2090.0 3.8528e-10
2110.0 3.9214e-10
2130.0 3.9924e-10
2150.0 4.0625e-10
2170.0 4.1301e-10
2190.0 4.2006e-10
2210.0 4.2721e-10
2230.0 4.3416e-10
2250.0 4.4114e-10
2270.0 4.4847e-10
2290.0 4.5563e-10
2310.0 4.6258e-10
2330.0 4.6979e-10
2350.0 4.7711e-10
2370.0 4.8418e-10
2390.0 4.9135e-10
2410.0 4.9889e-10
2430.0 5.0634e-10
2450.0 5.1392e-10
2470.0 5.2232e-10
2490.0 5.3209e-10
2510.0 5.4335e-10
2530.0 5.5794e-10
2550.0 5.7812e-10
2570.0 6.0524e-10
2590.0 6.4111e-10
2610.0 6.9239e-10
2630.0 7.6039e-10
2650.0 8.4356e-10
2670.0 9.4627e-10
2690.0 1.0707e-09
2710.0 1.207e-09
2730.0 1.3504e-09
2750.0 1.5056e-09
2770.0 1.6597e-09
2790.0 1.803e-09
2810.0 1.9376e-09
2830.0 2.0636e-09
2850.0 2.1694e-09
2870.0 2.2631e-09
2890.0 2.3503e-09
2910.0 2.4317e-09
2930.0 2.5089e-09
2950.0 2.5883e-09
2970.0 2.6708e-09
2990.0 2.755e-09
3010.0 2.8427e-09
3030.0 2.9364e-09
3050.0 3.0345e-09
3070.0 3.1343e-09
3090.0 3.2401e-09
3110.0 3.3526e-09
3130.0 3.4734e-09
3150.0 3.6106e-09
3170.0 3.7856e-09
3190.0 4.0136e-09
3210.0 4.3121e-09
3230.0 4.7095e-09
3250.0 5.2148e-09
3270.0 5.696e-09
3290.0 6.4588e-09
3310.0 8.0198e-09
3330.0 8.5387e-09
3350.0 8.7939e-09
3370.0 9.0394e-09
3390.0 9.2889e-09
3410.0 9.5413e-09
3430.0 9.7954e-09
3450.0 1.0049e-08
3470.0 1.0299e-08
3490.0 1.054e-08
3510.0 1.0757e-08
3530.0 1.0661e-08
3550.0 1.0366e-08
3570.0 1.052e-08
3590.0 1.1185e-08
3610.0 1.2191e-08
3630.0 1.2594e-08
3650.0 1.2097e-08
3670.0 1.1109e-08
3690.0 1.0534e-08
3710.0 1.0666e-08
3730.0 1.1017e-08
3750.0 1.1206e-08
3770.0 1.1583e-08
3790.0 1.2005e-08
3810.0 1.1836e-08
3830.0 1.103e-08
3850.0 1.0309e-08
3870.0 9.9662e-09
3890.0 9.8531e-09
3910.0 9.6329e-09
3930.0 9.5215e-09
3950.0 9.7901e-09
3970.0 1.0104e-08
3990.0 1.0196e-08
4010.0 9.8216e-09
4030.0 9.2871e-09
4050.0 8.9434e-09
4070.0 8.6525e-09
4090.0 8.4173e-09
4110.0 8.1101e-09
4130.0 7.6253e-09
4150.0 7.1374e-09
4170.0 6.848e-09
4190.0 6.3859e-09
4210.0 5.781e-09
4230.0 5.1688e-09
4250.0 4.5874e-09
4270.0 4.1531e-09
4290.0 3.8324e-09
4310.0 3.6626e-09
4330.0 3.6565e-09
4350.0 3.6751e-09
4370.0 3.7102e-09
4390.0 3.8477e-09
4410.0 3.9427e-09
4430.0 3.8066e-09
4450.0 3.456e-09
4470.0 3.1494e-09
4490.0 2.983e-09
4510.0 2.8759e-09
4530.0 2.8223e-09
4550.0 2.7763e-09
4570.0 2.7645e-09
4590.0 2.8025e-09
4610.0 2.8882e-09
4630.0 2.9392e-09
4650.0 2.9643e-09
4670.0 2.8923e-09
4690.0 2.72e-09
4710.0 2.5485e-09
4730.0 2.4372e-09
4750.0 2.3689e-09
4770.0 2.3776e-09
4790.0 2.3683e-09
4810.0 2.3175e-09
4830.0 2.3223e-09
4850.0 2.3947e-09
4870.0 2.4186e-09
4890.0 2.3751e-09
4910.0 2.3199e-09
4930.0 2.1877e-09
4950.0 1.9973e-09
4970.0 1.8668e-09
4990.0 1.7597e-09
5010.0 1.7368e-09
5030.0 1.7953e-09
5050.0 1.8413e-09
5070.0 1.9101e-09
5090.0 2.0256e-09
5110.0 2.0564e-09
5130.0 2.0743e-09
5150.0 2.1126e-09
5170.0 2.1304e-09
5190.0 2.1863e-09
5210.0 2.1976e-09
5230.0 2.175e-09
5250.0 2.1925e-09
5270.0 2.223e-09
5290.0 2.229e-09
5310.0 2.2124e-09
5330.0 2.1703e-09
5350.0 2.1408e-09
5370.0 2.118e-09
5390.0 2.0899e-09
5410.0 2.0667e-09
5430.0 2.0659e-09
5450.0 2.0963e-09
5470.0 2.1353e-09
5490.0 2.1961e-09
5510.0 2.2625e-09
5530.0 2.2905e-09
5550.0 2.3245e-09
5570.0 2.3297e-09
5590.0 2.2817e-09
5610.0 2.2651e-09
5630.0 2.2821e-09
5650.0 2.2545e-09
5670.0 2.2046e-09
5690.0 2.1387e-09
5710.0 2.1329e-09
5730.0 2.1555e-09
5750.0 2.0637e-09
5770.0 1.9578e-09
5790.0 1.8001e-09
5810.0 1.5749e-09
5830.0 1.6975e-09
5850.0 1.8789e-09
5870.0 1.9194e-09
5890.0 1.9297e-09
5910.0 1.9456e-09
5930.0 1.9415e-09
5950.0 1.9094e-09
5970.0 1.8867e-09
5990.0 1.8596e-09
6010.0 1.8029e-09
6030.0 1.7412e-09
6050.0 1.714e-09
6070.0 1.7061e-09
6090.0 1.6803e-09
6110.0 1.6244e-09
6130.0 1.5691e-09
6150.0 1.5061e-09
6170.0 1.4433e-09
6190.0 1.3783e-09
6210.0 1.3297e-09
6230.0 1.3105e-09
6250.0 1.2827e-09
6270.0 1.2559e-09
6290.0 1.2463e-09
6310.0 1.2384e-09
6330.0 1.2112e-09
6350.0 1.1718e-09
6370.0 1.1495e-09
6390.0 1.1267e-09
6410.0 1.0953e-09
6430.0 1.0656e-09
6450.0 1.0422e-09
6470.0 1.0199e-09
6490.0 1.0044e-09
6510.0 9.8694e-10
6530.0 9.6191e-10
6550.0 9.4063e-10
6570.0 9.2603e-10
6590.0 9.246e-10
6610.0 9.188e-10
6630.0 8.8811e-10
6650.0 8.6294e-10
6670.0 8.5394e-10
6690.0 8.4049e-10
6710.0 8.2028e-10
6730.0 8.1301e-10
6750.0 8.1932e-10
6770.0 8.679e-10
6790.0 9.6959e-10
6810.0 9.208e-10
6830.0 8.0907e-10
6850.0 7.7704e-10
6870.0 7.6516e-10
6890.0 7.6523e-10
6910.0 7.6686e-10
6930.0 7.6858e-10
6950.0 7.6626e-10
6970.0 7.4681e-10
6990.0 7.4007e-10
7010.0 7.5107e-10
7030.0 7.5465e-10
7050.0 7.4371e-10
7070.0 7.3604e-10
7090.0 7.4068e-10
7110.0 7.5795e-10
7130.0 7.6042e-10
7150.0 7.6326e-10
7170.0 7.6733e-10
7190.0 7.7795e-10
7210.0 7.8642e-10
7230.0 7.95e-10
7250.0 8.0557e-10
7270.0 8.1316e-10
7290.0 8.2602e-10
7310.0 8.4114e-10
7330.0 8.3462e-10
7350.0 8.1708e-10
7370.0 8.0606e-10
7390.0 8.0422e-10
7410.0 8.0738e-10
7430.0 8.1746e-10
7450.0 8.2253e-10
7470.0 8.3429e-10
7490.0 8.2954e-10
7510.0 8.2043e-10
7530.0 8.3012e-10
7550.0 8.5561e-10
7570.0 8.5348e-10
7590.0 8.0945e-10
7610.0 8.0287e-10
7630.0 8.4825e-10
7650.0 8.6533e-10
7670.0 8.7096e-10
7690.0 9.0977e-10
7710.0 9.3916e-10
7730.0 9.4823e-10
7750.0 9.9763e-10
7770.0 9.722e-10
7790.0 9.4921e-10
7810.0 1.0055e-09
7830.0 1.0441e-09
7850.0 1.0701e-09
7870.0 1.0913e-09
7890.0 1.0996e-09
7910.0 1.0915e-09
7930.0 1.099e-09
7950.0 1.1486e-09
7970.0 1.1483e-09
7990.0 1.0696e-09
8010.0 1.0245e-09
8030.0 1.0451e-09
8050.0 1.0676e-09
8070.0 9.6563e-10
8090.0 6.31e-10
8110.0 6.5911e-10
8130.0 9.4193e-10
8150.0 1.0144e-09
8170.0 1.0547e-09
8190.0 1.0775e-09
8210.0 1.064e-09
8230.0 1.1538e-09
8250.0 1.179e-09
8270.0 1.1147e-09
8290.0 1.0706e-09
8310.0 1.0551e-09
8330.0 1.113e-09
8350.0 1.1657e-09
8370.0 1.1435e-09
8390.0 1.0905e-09
8410.0 1.0894e-09
8430.0 1.0207e-09
8450.0 1.0433e-09
8470.0 1.14e-09
8490.0 1.1435e-09
8510.0 1.0603e-09
8530.0 9.9351e-10
8550.0 9.5226e-10
8570.0 8.9759e-10
8590.0 9.2323e-10
8610.0 9.7982e-10
8630.0 1.006e-09
8650.0 1.0234e-09
8670.0 9.9519e-10
8690.0 9.7201e-10
8710.0 9.039e-10
8730.0 8.7151e-10
8750.0 9.0728e-10
8770.0 9.2156e-10
8790.0 9.1849e-10
8810.0 9.143e-10
8830.0 9.339e-10
8850.0 9.8058e-10
8870.0 9.1563e-10
8890.0 8.6371e-10
8910.0 8.5095e-10
8930.0 7.9963e-10
8950.0 7.7051e-10
8970.0 7.7025e-10
8990.0 7.373e-10
9010.0 6.9218e-10
9030.0 6.7646e-10
9050.0 6.7082e-10
9070.0 6.658e-10
9090.0 6.6073e-10
9110.0 6.5565e-10
9130.0 6.5053e-10
9150.0 6.454e-10
9170.0 6.4025e-10
9190.0 6.3509e-10
9210.0 6.2992e-10
9230.0 6.2475e-10
9250.0 6.1957e-10
9270.0 6.1441e-10
9290.0 6.0925e-10
9310.0 6.041e-10
9330.0 5.9897e-10
9350.0 5.9385e-10
9370.0 5.8876e-10
9390.0 5.8369e-10
9410.0 5.7864e-10
9430.0 5.7362e-10
9450.0 5.6863e-10
9470.0 5.6368e-10
9490.0 5.5876e-10
9510.0 5.5388e-10
9530.0 5.4904e-10
9550.0 5.4423e-10
9570.0 5.3947e-10
9590.0 5.3475e-10
9610.0 5.3007e-10
9630.0 5.2543e-10
9650.0 5.2084e-10
9670.0 5.1629e-10
9690.0 5.1179e-10
9710.0 5.0734e-10
9730.0 5.0294e-10
9750.0 4.9859e-10
9770.0 4.9428e-10
9790.0 4.9002e-10
9810.0 4.8581e-10
9830.0 4.8166e-10
9850.0 4.7755e-10
9870.0 4.7349e-10
9890.0 4.6948e-10
9910.0 4.6552e-10
9930.0 4.616e-10
9950.0 4.5774e-10
9970.0 4.5392e-10
9990.0 4.5016e-10
10010.0 4.4644e-10
10030.0 4.4277e-10
10050.0 4.3914e-10
10070.0 4.3557e-10
10090.0 4.3204e-10
10110.0 4.2855e-10
10130.0 4.2511e-10
10150.0 4.2172e-10
10170.0 4.1837e-10
10190.0 4.1506e-10
10210.0 4.118e-10
10230.0 4.0858e-10
10250.0 4.054e-10
10270.0 4.0226e-10
10290.0 3.9917e-10
10310.0 3.9611e-10
10330.0 3.9309e-10
10350.0 3.9012e-10
10370.0 3.8718e-10
10390.0 3.8423e-10
10410.0 3.8077e-10
10430.0 3.7716e-10
10450.0 3.7503e-10
10470.0 3.7256e-10
10490.0 3.7006e-10
10510.0 3.6753e-10
10530.0 3.6488e-10
10550.0 3.6228e-10
10570.0 3.5975e-10
10590.0 3.5719e-10
10610.0 3.5463e-10
10630.0 3.5216e-10
10650.0 3.4972e-10
10670.0 3.4723e-10
10690.0 3.4482e-10
10710.0 3.4246e-10
10730.0 3.4009e-10
10750.0 3.377e-10
10770.0 3.3543e-10
10790.0 3.3317e-10
10810.0 3.3089e-10
10830.0 3.2865e-10
10850.0 3.2649e-10
10870.0 3.2426e-10
10890.0 3.2206e-10
10910.0 3.1992e-10
10930.0 3.1778e-10
10950.0 3.1559e-10
10970.0 3.1342e-10
10990.0 3.1128e-10
11010.0 3.1012e-10
11030.0 3.0786e-10
11050.0 3.0562e-10
11070.0 3.0334e-10
11090.0 3.0093e-10
11110.0 2.9858e-10
11130.0 2.9623e-10
11150.0 2.938e-10
11170.0 2.9134e-10
11190.0 2.8895e-10
11210.0 2.8651e-10
11230.0 2.8401e-10
11250.0 2.8159e-10
11270.0 2.7924e-10
11290.0 2.7685e-10
11310.0 2.7452e-10
11330.0 2.7239e-10
11350.0 2.7029e-10
11370.0 2.6825e-10
11390.0 2.6636e-10
11410.0 2.6458e-10
11430.0 2.6281e-10
11450.0 2.6115e-10
11470.0 2.5958e-10
11490.0 2.5804e-10
11510.0 2.5649e-10
11530.0 2.5501e-10
11550.0 2.5355e-10
11570.0 2.5203e-10
11590.0 2.505e-10
11610.0 2.49e-10
11630.0 2.4741e-10
11650.0 2.4576e-10
11670.0 2.4414e-10
11690.0 2.4249e-10
11710.0 2.4075e-10
11730.0 2.3901e-10
11750.0 2.3731e-10
11770.0 2.3555e-10
11790.0 2.3375e-10
11810.0 2.3202e-10
11830.0 2.303e-10
11850.0 2.2852e-10
11870.0 2.2682e-10
11890.0 2.2521e-10
11910.0 2.2361e-10
11930.0 2.2205e-10
11950.0 2.2061e-10
11970.0 2.1923e-10
11990.0 2.1788e-10
12010.0 2.1664e-10
12030.0 2.1551e-10
12050.0 2.1443e-10
12070.0 2.1341e-10
12090.0 2.1253e-10
12110.0 2.1171e-10
12130.0 2.1094e-10
12150.0 2.1024e-10
12170.0 2.0961e-10
12190.0 2.0899e-10
12210.0 2.084e-10
12230.0 2.0784e-10
12250.0 2.0726e-10
12270.0 2.0665e-10
12290.0 2.0601e-10
12310.0 2.0533e-10
12330.0 2.0457e-10
12350.0 2.0372e-10
12370.0 2.0282e-10
12390.0 2.0181e-10
12410.0 2.0066e-10
12430.0 1.9946e-10
12450.0 1.9819e-10
12470.0 1.9678e-10
12490.0 1.9529e-10
12510.0 1.938e-10
12530.0 1.9219e-10
12550.0 1.9049e-10
12570.0 1.8879e-10
12590.0 1.8708e-10
12610.0 1.8528e-10
12630.0 1.8346e-10
12650.0 1.8173e-10
12670.0 1.7997e-10
12690.0 1.7819e-10
12710.0 1.765e-10
12730.0 1.7486e-10
12750.0 1.7318e-10
12770.0 1.716e-10
12790.0 1.7013e-10
12810.0 1.687e-10
12830.0 1.6731e-10
12850.0 1.6606e-10
12870.0 1.649e-10
12890.0 1.6379e-10
12910.0 1.6278e-10
12930.0 1.619e-10
12950.0 1.6108e-10
12970.0 1.6035e-10
12990.0 1.5976e-10
13010.0 1.5926e-10
13030.0 1.5884e-10
13050.0 1.5853e-10
13070.0 1.583e-10
13090.0 1.5814e-10
13110.0 1.5803e-10
13130.0 1.5797e-10
13150.0 1.5794e-10
13170.0 1.579e-10
13190.0 1.5785e-10
13210.0 1.5776e-10
13230.0 1.5762e-10
13250.0 1.5741e-10
13270.0 1.5712e-10
13290.0 1.5675e-10
13310.0 1.5626e-10
13330.0 1.5569e-10
13350.0 1.5504e-10
13370.0 1.5427e-10
13390.0 1.5339e-10
13410.0 1.5247e-10
13430.0 1.5146e-10
13450.0 1.5035e-10
13470.0 1.4919e-10
13490.0 1.4801e-10
13510.0 1.4669e-10
13530.0 1.4533e-10
13550.0 1.4398e-10
13570.0 1.4258e-10
13590.0 1.411e-10
13610.0 1.3964e-10
13630.0 1.382e-10
13650.0 1.3668e-10
13670.0 1.3516e-10
13690.0 1.3369e-10
13710.0 1.3219e-10
13730.0 1.3062e-10
13750.0 1.2916e-10
13770.0 1.2773e-10
13790.0 1.2627e-10
13810.0 1.2485e-10
13830.0 1.2352e-10
13850.0 1.2218e-10
13870.0 1.2086e-10
13890.0 1.1963e-10
13910.0 1.1845e-10
13930.0 1.1727e-10
13950.0 1.1614e-10
13970.0 1.1511e-10
13990.0 1.1409e-10
14010.0 1.1309e-10
14030.0 1.1217e-10
14050.0 1.113e-10
14070.0 1.1042e-10
14090.0 1.096e-10
14110.0 1.0884e-10
14130.0 1.0811e-10
14150.0 1.0739e-10
14170.0 1.0674e-10
14190.0 1.0613e-10
14210.0 1.0552e-10
14230.0 1.0494e-10
14250.0 1.044e-10
14270.0 1.0386e-10
14290.0 1.0333e-10
14310.0 1.0284e-10
14330.0 1.0235e-10
14350.0 1.0186e-10
14370.0 1.0139e-10
14390.0 1.0094e-10
14410.0 1.0048e-10
14430.0 1.0003e-10
14450.0 9.9594e-11
14470.0 9.9164e-11
14490.0 9.8717e-11
14510.0 9.8288e-11
14530.0 9.7874e-11
14550.0 9.7445e-11
14570.0 9.7013e-11
14590.0 9.6597e-11
14610.0 9.617e-11
14630.0 9.5723e-11
14650.0 9.5286e-11
14670.0 9.4852e-11
14690.0 9.4398e-11
14710.0 9.3931e-11
14730.0 9.3485e-11
14750.0 9.3023e-11
14770.0 9.2541e-11
14790.0 9.2063e-11
14810.0 9.1589e-11
14830.0 9.1075e-11
14850.0 9.056e-11
14870.0 9.0057e-11
14890.0 8.9541e-11
14910.0 8.9013e-11
14930.0 8.8512e-11
14950.0 8.8039e-11
14970.0 8.7573e-11
14990.0 8.7149e-11
15010.0 8.6779e-11
15030.0 8.6443e-11
15050.0 8.6132e-11
15070.0 8.5872e-11
15090.0 8.5634e-11
15110.0 8.5404e-11
15130.0 8.5186e-11
15150.0 8.4982e-11
15170.0 8.4772e-11
15190.0 8.456e-11
15210.0 8.4355e-11
15230.0 8.4152e-11
15250.0 8.3941e-11
15270.0 8.3731e-11
15290.0 8.3531e-11
15310.0 8.3324e-11
15330.0 8.3114e-11
15350.0 8.2912e-11
15370.0 8.271e-11
15390.0 8.2496e-11
15410.0 8.2289e-11
15430.0 8.2087e-11
15450.0 8.1879e-11
15470.0 8.1667e-11
15490.0 8.1465e-11
15510.0 8.1263e-11
15530.0 8.1052e-11
15550.0 8.0846e-11
15570.0 8.0645e-11
15590.0 8.0435e-11
15610.0 8.0223e-11
15630.0 8.0021e-11
15650.0 7.9816e-11
15670.0 7.9606e-11
15690.0 7.94e-11
15710.0 7.92e-11
15730.0 7.899e-11
15750.0 7.8781e-11
15770.0 7.8578e-11
15790.0 7.8374e-11
15810.0 7.816e-11
15830.0 7.7954e-11
15850.0 7.7752e-11
15870.0 7.7544e-11
15890.0 7.7335e-11
15910.0 7.7134e-11
15930.0 7.6929e-11
15950.0 7.6716e-11
15970.0 7.6511e-11
15990.0 7.6308e-11
16010.0 7.6099e-11
16030.0 7.5887e-11
16050.0 7.5687e-11
16070.0 7.5482e-11
16090.0 7.5272e-11
16110.0 7.5067e-11
16130.0 7.4866e-11
16150.0 7.4653e-11
16170.0 7.4443e-11
16190.0 7.4242e-11
16210.0 7.4035e-11
16230.0 7.3824e-11
16250.0 7.362e-11
16270.0 7.3419e-11
16290.0 7.3208e-11
16310.0 7.3e-11
16330.0 7.2799e-11
16350.0 7.2592e-11
16370.0 7.2376e-11
16390.0 7.2174e-11
16410.0 7.1971e-11
16430.0 7.1761e-11
16450.0 7.1553e-11
16470.0 7.1354e-11
16490.0 7.1145e-11
16510.0 7.0934e-11
16530.0 7.073e-11
16550.0 7.0526e-11
16570.0 7.0314e-11
16590.0 7.0105e-11
16610.0 6.9905e-11
16630.0 6.9698e-11
16650.0 6.9488e-11
16670.0 6.9285e-11
16690.0 6.9082e-11
16710.0 6.8868e-11
16730.0 6.8661e-11
16750.0 6.8459e-11
16770.0 6.8251e-11
16790.0 6.8039e-11
16810.0 6.7837e-11
16830.0 6.7634e-11
16850.0 6.7423e-11
16870.0 6.7217e-11
16890.0 6.7016e-11
16910.0 6.6805e-11
16930.0 6.6593e-11
16950.0 6.639e-11
16970.0 6.6186e-11
16990.0 6.5975e-11
17010.0 6.5769e-11
17030.0 6.5569e-11
17050.0 6.5359e-11
17070.0 6.5149e-11
17090.0 6.4946e-11
17110.0 6.4741e-11
17130.0 6.4527e-11
17150.0 6.4321e-11
17170.0 6.412e-11
17190.0 6.3911e-11
17210.0 6.3702e-11
17230.0 6.3501e-11
17250.0 6.3295e-11
17270.0 6.3082e-11
17290.0 6.2877e-11
17310.0 6.2674e-11
17330.0 6.2464e-11
17350.0 6.2252e-11
17370.0 6.2052e-11
17390.0 6.1847e-11
17410.0 6.1636e-11
17430.0 6.1432e-11
17450.0 6.1231e-11
17470.0 6.1017e-11
17490.0 6.0807e-11
17510.0 6.0605e-11
17530.0 6.0399e-11
17550.0 6.0187e-11
17570.0 5.9984e-11
17590.0 5.9782e-11
17610.0 5.9571e-11
17630.0 5.9363e-11
17650.0 5.9161e-11
17670.0 5.8954e-11
17690.0 5.8739e-11
17710.0 5.8536e-11
17730.0 5.8333e-11
17750.0 5.8123e-11
17770.0 5.7916e-11
17790.0 5.7716e-11
17810.0 5.7507e-11
17830.0 5.7296e-11
17850.0 5.7092e-11
17870.0 5.6888e-11
17890.0 5.6676e-11
17910.0 5.6467e-11
17930.0 5.6267e-11
17950.0 5.6059e-11
17970.0 5.5849e-11
17990.0 5.5647e-11
18010.0 5.5444e-11
18030.0 5.5229e-11
18050.0 5.5022e-11
18070.0 5.482e-11
18090.0 5.4612e-11
18110.0 5.44e-11
18130.0 5.4199e-11
18150.0 5.3995e-11
18170.0 5.3784e-11
18190.0 5.3578e-11
18210.0 5.3377e-11
18230.0 5.3166e-11
18250.0 5.2954e-11
18270.0 5.2752e-11
18290.0 5.2547e-11
18310.0 5.2336e-11
18330.0 5.2131e-11
18350.0 5.193e-11
18370.0 5.172e-11
18390.0 5.151e-11
18410.0 5.1308e-11
18430.0 5.1102e-11
18450.0 5.0888e-11
18470.0 5.0683e-11
18490.0 5.0482e-11
18510.0 5.0273e-11
18530.0 5.0064e-11
18550.0 4.9864e-11
18570.0 4.9657e-11
18590.0 4.9444e-11
18610.0 4.9239e-11
18630.0 4.9036e-11
18650.0 4.8826e-11
18670.0 4.8615e-11
18690.0 4.8415e-11
18710.0 4.8209e-11
18730.0 4.7999e-11
18750.0 4.7795e-11
18770.0 4.7593e-11
18790.0 4.7379e-11
18810.0 4.717e-11
18830.0 4.6969e-11
18850.0 4.6762e-11
18870.0 4.6551e-11
18890.0 4.6348e-11
18910.0 4.6146e-11
18930.0 4.5934e-11
18950.0 4.5727e-11
18970.0 4.5525e-11
18990.0 4.5318e-11
19010.0 4.5102e-11
19030.0 4.4901e-11
19050.0 4.4698e-11
19070.0 4.4487e-11
19090.0 4.4281e-11
19110.0 4.4081e-11
19130.0 4.3871e-11
19150.0 4.366e-11
19170.0 4.3457e-11
19190.0 4.3253e-11
19210.0 4.3041e-11
19230.0 4.2832e-11
19250.0 4.2633e-11
19270.0 4.2425e-11
19290.0 4.2215e-11
19310.0 4.2013e-11
19330.0 4.181e-11
19350.0 4.1595e-11
19370.0 4.1389e-11
19390.0 4.1187e-11
19410.0 4.0978e-11
19430.0 4.0767e-11
19450.0 4.0566e-11
19470.0 4.0362e-11
19490.0 4.0151e-11
19510.0 3.9946e-11
19530.0 3.9744e-11
19550.0 3.9533e-11
19570.0 3.9321e-11
19590.0 3.912e-11
19610.0 3.8915e-11
19630.0 3.8704e-11
19650.0 3.8499e-11
19670.0 3.8299e-11
19690.0 3.8088e-11
19710.0 3.7879e-11
19730.0 3.7677e-11
19750.0 3.7471e-11
19770.0 3.7257e-11
19790.0 3.7053e-11
19810.0 3.6851e-11
19830.0 3.6642e-11
19850.0 3.6435e-11
19870.0 3.6236e-11
19890.0 3.6033e-11
19910.0 3.5828e-11
19930.0 3.5638e-11
19950.0 3.5459e-11
19970.0 3.5288e-11
19990.0 3.5136e-11
20010.0 3.501e-11
20030.0 3.49e-11
20050.0 3.4809e-11
20070.0 3.4738e-11
20090.0 3.4681e-11
20110.0 3.463e-11
20130.0 3.4587e-11
20150.0 3.4548e-11
20170.0 3.451e-11
20190.0 3.4471e-11
20210.0 3.4433e-11
20230.0 3.4393e-11
20250.0 3.4349e-11
20270.0 3.4304e-11
20290.0 3.4258e-11
20310.0 3.4208e-11
20330.0 3.4153e-11
20350.0 3.4099e-11
20370.0 3.4041e-11
20390.0 3.3979e-11
20410.0 3.3916e-11
20430.0 3.3853e-11
20450.0 3.3784e-11
20470.0 3.3714e-11
20490.0 3.3646e-11
20510.0 3.3577e-11
20530.0 3.3506e-11
20550.0 3.3437e-11
20570.0 3.3372e-11
20590.0 3.3306e-11
20610.0 3.3241e-11
20630.0 3.318e-11
20650.0 3.3119e-11
20670.0 3.3056e-11
20690.0 3.2997e-11
20710.0 3.2938e-11
20730.0 3.2876e-11
20750.0 3.2811e-11
20770.0 3.2747e-11
20790.0 3.2678e-11
20810.0 3.2602e-11
20830.0 3.2524e-11
20850.0 3.2441e-11
20870.0 3.2348e-11
20890.0 3.2249e-11
20910.0 3.215e-11
20930.0 3.2042e-11
20950.0 3.1927e-11
20970.0 3.1811e-11
20990.0 3.1694e-11
21010.0 3.1568e-11
21030.0 3.1442e-11
21050.0 3.1319e-11
21070.0 3.1193e-11
21090.0 3.1063e-11
21110.0 3.0941e-11
21130.0 3.082e-11
21150.0 3.0697e-11
21170.0 3.0576e-11
21190.0 3.0461e-11
21210.0 3.0342e-11
21230.0 3.022e-11
21250.0 3.0104e-11
21270.0 2.9987e-11
21290.0 2.9864e-11
21310.0 2.9741e-11
21330.0 2.9621e-11
21350.0 2.9494e-11
21370.0 2.9362e-11
21390.0 2.9231e-11
21410.0 2.9098e-11
21430.0 2.8953e-11
21450.0 2.881e-11
21470.0 2.8667e-11
21490.0 2.8518e-11
21510.0 2.8363e-11
21530.0 2.8212e-11
21550.0 2.8058e-11
21570.0 2.7896e-11
21590.0 2.7736e-11
21610.0 2.7579e-11
21630.0 2.7416e-11
21650.0 2.7248e-11
21670.0 2.7092e-11
21690.0 2.6933e-11
21710.0 2.6769e-11
21730.0 2.661e-11
21750.0 2.6455e-11
21770.0 2.6293e-11
21790.0 2.6131e-11
21810.0 2.5976e-11
21830.0 2.5819e-11
21850.0 2.5657e-11
21870.0 2.5499e-11
21890.0 2.5347e-11
21910.0 2.5188e-11
21930.0 2.503e-11
21950.0 2.4879e-11
21970.0 2.4727e-11
21990.0 2.4569e-11
22010.0 2.4421e-11
22030.0 2.4278e-11
22050.0 2.4134e-11
22070.0 2.3995e-11
22090.0 2.3865e-11
22110.0 2.3738e-11
22130.0 2.3613e-11
22150.0 2.3497e-11
22170.0 2.3388e-11
22190.0 2.328e-11
22210.0 2.3178e-11
22230.0 2.3086e-11
22250.0 2.2997e-11
22270.0 2.2909e-11
22290.0 2.2829e-11
22310.0 2.2752e-11
22330.0 2.2674e-11
22350.0 2.2599e-11
22370.0 2.2527e-11
22390.0 2.2455e-11
22410.0 2.2381e-11
22430.0 2.231e-11
22450.0 2.2239e-11
22470.0 2.2165e-11
22490.0 2.209e-11
22510.0 2.2018e-11
22530.0 2.1942e-11
22550.0 2.1864e-11
22570.0 2.1789e-11
22590.0 2.1714e-11
22610.0 2.1636e-11
