#lamb flux
1010.0 1.3992e-05
1030.0 1.575e-05
1050.0 1.7569e-05
1070.0 1.9626e-05
1090.0 2.2034e-05
1110.0 2.451e-05
1130.0 2.7018e-05
1150.0 2.9665e-05
1170.0 3.2428e-05
1190.0 3.5101e-05
1210.0 3.7869e-05
1230.0 4.0795e-05
1250.0 4.3739e-05
1270.0 4.6703e-05
1290.0 4.9917e-05
1310.0 5.3242e-05
1330.0 5.6565e-05
1350.0 6.0027e-05
1370.0 6.3684e-05
1390.0 6.7365e-05
1410.0 7.1044e-05
1430.0 7.4921e-05
1450.0 7.8856e-05
1470.0 8.2732e-05
1490.0 8.6664e-05
1510.0 9.0778e-05
1530.0 9.4719e-05
1550.0 9.8595e-05
1570.0 0.00010254
1590.0 0.00010643
1610.0 0.00011011
1630.0 0.00011378
1650.0 0.00011742
1670.0 0.00012084
1690.0 0.00012409
1710.0 0.00012732
1730.0 0.00013042
1750.0 0.00013315
1770.0 0.00013582
1790.0 0.00013838
1810.0 0.00014067
1830.0 0.00014274
1850.0 0.00014483
1870.0 0.00014669
1890.0 0.00014829
1910.0 0.00014983
1930.0 0.0001513
1950.0 0.00015252
1970.0 0.00015359
1990.0 0.00015466
2010.0 0.00015557
2030.0 0.00015628
2050.0 0.00015697
2070.0 0.0001576
2090.0 0.00015795
2110.0 0.00015816
2130.0 0.0001583
2150.0 0.00015822
2170.0 0.00015786
2190.0 0.00015741
2210.0 0.00015677
2230.0 0.00015583
2250.0 0.00015467
2270.0 0.0001534
2290.0 0.00015184
2310.0 0.00014997
2330.0 0.00014797
2350.0 0.00014578
2370.0 0.00014331
2390.0 0.00014066
2410.0 0.00013789
2430.0 0.00013484
2450.0 0.00013152
2470.0 0.00012798
2490.0 0.00012419
2510.0 0.00012017
2530.0 0.0001162
2550.0 0.00011269
2570.0 0.00011013
2590.0 0.00010906
2610.0 0.00011055
2630.0 0.00011492
2650.0 0.00012159
2670.0 0.00013052
2690.0 0.00014106
2710.0 0.00015087
2730.0 0.00015866
2750.0 0.0001642
2770.0 0.00016578
2790.0 0.00016301
2810.0 0.00015628
2830.0 0.00014555
2850.0 0.00013185
2870.0 0.00011599
2890.0 9.8136e-05
2910.0 7.912e-05
2930.0 5.9922e-05
2950.0 3.9822e-05
2970.0 1.9092e-05
2990.0 9.5445e-06
3010.0 2.1065e-05
3030.0 2.1065e-05
3050.0 2.1065e-05
3070.0 2.1065e-05
3090.0 2.1065e-05
3110.0 2.1065e-05
3130.0 2.1065e-05
3150.0 2.1065e-05
3170.0 2.1065e-05
3190.0 2.1065e-05
3210.0 2.1065e-05
3230.0 0.00057365
3250.0 0.0011404
3270.0 0.001141
3290.0 0.0012294
3310.0 0.0009681
3330.0 0.00096716
3350.0 0.0010734
3370.0 0.0012258
3390.0 0.0013977
3410.0 0.0015817
3430.0 0.0018165
3450.0 0.0020547
3470.0 0.0023035
3490.0 0.0024404
3510.0 0.0023734
3530.0 0.002404
3550.0 0.0025342
3570.0 0.0025522
3590.0 0.0027211
3610.0 0.0026037
3630.0 0.0032232
3650.0 0.0036161
3670.0 0.0038626
3690.0 0.0036486
3710.0 0.0030022
3730.0 0.0028182
3750.0 0.0025418
3770.0 0.0023479
3790.0 0.0021302
3810.0 0.0020581
3830.0 0.0023658
3850.0 0.0010396
3870.0 0.0019117
3890.0 0.0022586
3910.0 0.0025432
3930.0 0.0031641
3950.0 0.0034396
3970.0 0.0040109
3990.0 0.004917
4010.0 0.0036963
4030.0 0.0030625
4050.0 0.0023241
4070.0 0.0023903
4090.0 0.0037518
4110.0 0.0035601
4130.0 0.0038382
4150.0 0.0036153
4170.0 0.0034423
4190.0 0.0031313
4210.0 0.004547
4230.0 0.0047404
4250.0 0.0051555
4270.0 0.0048397
4290.0 0.0048867
4310.0 0.0054835
4330.0 0.0064533
4350.0 0.0064776
4370.0 0.0063076
4390.0 0.0056414
4410.0 0.0052516
4430.0 0.0041251
4450.0 0.0034519
4470.0 0.0038464
4490.0 0.0045847
4510.0 0.0047482
4530.0 0.0048914
4550.0 0.0050759
4570.0 0.0071866
4590.0 0.010626
4610.0 0.012491
4630.0 0.012526
4650.0 0.013117
4670.0 0.015021
4690.0 0.016413
4710.0 0.01352
4730.0 0.010302
4750.0 0.0081798
4770.0 0.0072242
4790.0 0.0067715
4810.0 0.0064573
4830.0 0.0071342
4850.0 0.0082666
4870.0 0.0090215
4890.0 0.0094119
4910.0 0.0086709
4930.0 0.0092301
4950.0 0.011388
4970.0 0.013571
4990.0 0.014176
5010.0 0.013078
5030.0 0.010869
5050.0 0.0082856
5070.0 0.0065495
5090.0 0.0058748
5110.0 0.0057463
5130.0 0.0058645
5150.0 0.0058455
5170.0 0.0055936
5190.0 0.0052853
5210.0 0.0051625
5230.0 0.005779
5250.0 0.0066871
5270.0 0.0079557
5290.0 0.00917
5310.0 0.0096867
5330.0 0.010495
5350.0 0.011651
5370.0 0.012282
5390.0 0.011177
5410.0 0.0099107
5430.0 0.0095973
5450.0 0.011126
5470.0 0.013841
5490.0 0.016276
5510.0 0.017392
5530.0 0.017149
5550.0 0.016349
5570.0 0.015847
5590.0 0.01533
5610.0 0.015151
5630.0 0.015065
5650.0 0.015075
5670.0 0.014977
5690.0 0.013785
5710.0 0.011604
5730.0 0.01031
5750.0 0.0097665
5770.0 0.009964
5790.0 0.010326
5810.0 0.010802
5830.0 0.011032
5850.0 0.010527
5870.0 0.0098721
5890.0 0.0094621
5910.0 0.0097563
5930.0 0.010265
5950.0 0.0097057
5970.0 0.0086234
5990.0 0.0072125
6010.0 0.0058426
6030.0 0.0053068
6050.0 0.0056825
6070.0 0.0060966
6090.0 0.0059363
6110.0 0.0052402
6130.0 0.0052911
6150.0 0.0061227
6170.0 0.0071089
6190.0 0.007918
6210.0 0.0080241
6230.0 0.0078568
6250.0 0.0071962
6270.0 0.0060657
6290.0 0.0050287
6310.0 0.0044274
6330.0 0.0042931
6350.0 0.0043953
6370.0 0.0044213
6390.0 0.0048648
6410.0 0.0060125
6430.0 0.0075404
6450.0 0.0086553
6470.0 0.0089919
6490.0 0.008865
6510.0 0.0090612
6530.0 0.0094063
6550.0 0.0093247
6570.0 0.0096679
6590.0 0.0098599
6610.0 0.010035
6630.0 0.0099772
6650.0 0.0094154
6670.0 0.0086103
6690.0 0.007734
6710.0 0.0072356
6730.0 0.0072169
6750.0 0.0074582
6770.0 0.0076816
6790.0 0.0078963
6810.0 0.0080363
6830.0 0.0078731
6850.0 0.0075393
6870.0 0.0070731
6890.0 0.0069068
6910.0 0.0066232
6930.0 0.0068278
6950.0 0.0072916
6970.0 0.0075039
6990.0 0.0076792
7010.0 0.0074939
7030.0 0.0069132
7050.0 0.0061021
7070.0 0.0053536
7090.0 0.0049
7110.0 0.0048364
7130.0 0.0048242
7150.0 0.0043865
7170.0 0.0041328
7190.0 0.0044372
7210.0 0.005062
7230.0 0.0058639
7250.0 0.0062781
7270.0 0.0062629
7290.0 0.0057638
7310.0 0.0052838
7330.0 0.0050186
7350.0 0.0050155
7370.0 0.0051224
7390.0 0.0053476
7410.0 0.0058868
7430.0 0.0068281
7450.0 0.0077774
7470.0 0.0082989
7490.0 0.0082145
7510.0 0.0077168
7530.0 0.0065689
7550.0 0.0058927
7570.0 0.005201
7590.0 0.0048675
7610.0 0.0050454
7630.0 0.0055351
7650.0 0.0061785
7670.0 0.0067965
7690.0 0.0072068
7710.0 0.0076705
7730.0 0.0081681
7750.0 0.0086008
7770.0 0.0085264
7790.0 0.0085704
7810.0 0.008768
7830.0 0.0088361
7850.0 0.0085759
7870.0 0.008267
7890.0 0.0082369
7910.0 0.0079159
7930.0 0.0078094
7950.0 0.0074075
7970.0 0.0072371
7990.0 0.0070143
8010.0 0.0072228
8030.0 0.0072857
8050.0 0.0073611
8070.0 0.0072889
8090.0 0.007255
8110.0 0.0069758
8130.0 0.0069591
8150.0 0.0068575
8170.0 0.0066788
8190.0 0.0065546
8210.0 0.0065616
8230.0 0.0063812
8250.0 0.0062071
8270.0 0.0055712
8290.0 0.0045176
8310.0 0.0033701
8330.0 0.0025723
8350.0 0.0023863
8370.0 0.0028559
8390.0 0.0034825
8410.0 0.0037945
8430.0 0.0039276
8450.0 0.0041264
8470.0 0.0044001
8490.0 0.0049261
8510.0 0.005629
8530.0 0.0065119
8550.0 0.0073911
8570.0 0.0081459
8590.0 0.0087365
8610.0 0.0091041
8630.0 0.0091839
8650.0 0.009133
8670.0 0.0091408
8690.0 0.0095712
8710.0 0.010126
8730.0 0.010532
8750.0 0.010491
8770.0 0.010629
8790.0 0.010574
8810.0 0.0099136
8830.0 0.0094023
8850.0 0.0086989
8870.0 0.008128
8890.0 0.0079208
8910.0 0.0079663
8930.0 0.007545
8950.0 0.0070899
8970.0 0.0069065
8990.0 0.0068356
9010.0 0.0065736
9030.0 0.0064249
9050.0 0.0063741
9070.0 0.0063507
9090.0 0.0063301
9110.0 0.0063103
9130.0 0.0062901
9150.0 0.0062702
9170.0 0.006247
9190.0 0.0062284
9210.0 0.0062401
9230.0 0.0062084
9250.0 0.0061825
9270.0 0.0061594
9290.0 0.0061384
9310.0 0.0061179
9330.0 0.0060983
9350.0 0.00608
9370.0 0.0060617
9390.0 0.0060429
9410.0 0.0060249
9430.0 0.0060064
9450.0 0.0059812
9470.0 0.0059583
9490.0 0.0059472
9510.0 0.0059326
9530.0 0.0059169
9550.0 0.0059009
9570.0 0.0058845
9590.0 0.0058676
9610.0 0.0058507
9630.0 0.0058339
9650.0 0.005817
9670.0 0.0058
9690.0 0.0057832
9710.0 0.0057665
9730.0 0.0057497
9750.0 0.0057329
9770.0 0.0057163
9790.0 0.0056996
9810.0 0.0056827
9830.0 0.005666
9850.0 0.0056494
9870.0 0.0056324
9890.0 0.0056154
9910.0 0.0055985
9930.0 0.0055807
9950.0 0.005518
9970.0 0.0055143
9990.0 0.0055078
10010.0 0.0054997
10030.0 0.0054878
10050.0 0.0054726
10070.0 0.0054567
10090.0 0.0054409
10110.0 0.0054221
10130.0 0.0054046
10150.0 0.0053867
10170.0 0.0053673
10190.0 0.0053462
10210.0 0.0053269
10230.0 0.0053081
10250.0 0.0052873
10270.0 0.0052665
10290.0 0.0052471
10310.0 0.0052258
10330.0 0.0052028
10350.0 0.0051816
10370.0 0.0051602
10390.0 0.0051368
10410.0 0.0051133
10430.0 0.0050915
10450.0 0.0050676
10470.0 0.0050425
10490.0 0.0050184
10510.0 0.0049942
10530.0 0.0049668
10550.0 0.0049402
10570.0 0.0049149
10590.0 0.0048876
10610.0 0.004859
10630.0 0.0048319
10650.0 0.004804
10670.0 0.0047733
10690.0 0.0047434
10710.0 0.0047141
10730.0 0.0046827
10750.0 0.0046491
10770.0 0.0046183
10790.0 0.0045863
10810.0 0.004552
10830.0 0.004518
10850.0 0.0044852
10870.0 0.0044484
10890.0 0.004411
10910.0 0.0043745
10930.0 0.0043362
10950.0 0.0042942
10970.0 0.0042515
10990.0 0.0042089
11010.0 0.0043436
11030.0 0.004291
11050.0 0.00424
11070.0 0.0041881
11090.0 0.004133
11110.0 0.0040826
11130.0 0.0040345
11150.0 0.0039857
11170.0 0.0039381
11190.0 0.0038944
11210.0 0.0038501
11230.0 0.003805
11250.0 0.0037622
11270.0 0.0037206
11290.0 0.0036772
11310.0 0.0036338
11330.0 0.0035933
11350.0 0.0035514
11370.0 0.0035081
11390.0 0.0034657
11410.0 0.0034231
11430.0 0.0033763
11450.0 0.0033288
11470.0 0.0032809
11490.0 0.0032297
11510.0 0.003174
11530.0 0.0031185
11550.0 0.0030611
11570.0 0.0029988
11590.0 0.0029352
11610.0 0.0028721
11630.0 0.0028053
11650.0 0.0027359
11670.0 0.0026696
11690.0 0.0026034
11710.0 0.0025357
11730.0 0.0024699
11750.0 0.0024082
11770.0 0.0023458
11790.0 0.0022848
11810.0 0.0022279
11830.0 0.0021734
11850.0 0.0021183
11870.0 0.0020671
11890.0 0.0020197
11910.0 0.0019729
11930.0 0.0019274
11950.0 0.0018855
11970.0 0.0018449
11990.0 0.0018043
12010.0 0.0017664
12030.0 0.0017309
12050.0 0.0016961
12070.0 0.0016625
12090.0 0.0016328
12110.0 0.0016047
12130.0 0.0015782
12150.0 0.0015548
12170.0 0.0015346
12190.0 0.0015162
12210.0 0.0015011
12230.0 0.0014896
12250.0 0.0014811
12270.0 0.0014758
12290.0 0.0014739
12310.0 0.0014751
12330.0 0.0014796
12350.0 0.0014873
12370.0 0.0014975
12390.0 0.0015106
12410.0 0.0015276
12430.0 0.0015459
12450.0 0.0015661
12470.0 0.0015889
12490.0 0.0016133
12510.0 0.0016374
12530.0 0.0016629
12550.0 0.0016891
12570.0 0.0017138
12590.0 0.0017369
12610.0 0.0017593
12630.0 0.0017789
12650.0 0.0017942
12670.0 0.0018067
12690.0 0.0018153
12710.0 0.0018194
12730.0 0.0018192
12750.0 0.0018148
12770.0 0.0018059
12790.0 0.0017934
12810.0 0.0017772
12830.0 0.0017576
12850.0 0.0017361
12870.0 0.001713
12890.0 0.0016878
12910.0 0.0016622
12930.0 0.001637
12950.0 0.0016112
12970.0 0.0015854
12990.0 0.0015614
13010.0 0.0015381
13030.0 0.0015152
13050.0 0.0014933
13070.0 0.0014729
13090.0 0.0014525
13110.0 0.0014324
13130.0 0.0014133
13150.0 0.0013945
13170.0 0.0013751
13190.0 0.0013565
13210.0 0.0013386
13230.0 0.0013205
13250.0 0.0013028
13270.0 0.0012864
13290.0 0.0012708
13310.0 0.0012559
13330.0 0.0012429
13350.0 0.0012318
13370.0 0.0012223
13390.0 0.0012148
13410.0 0.0012094
13430.0 0.0012056
13450.0 0.0012034
13470.0 0.0012021
13490.0 0.0012014
13510.0 0.0012009
13530.0 0.0011999
13550.0 0.0011978
13570.0 0.0011943
13590.0 0.0011889
13610.0 0.0011815
13630.0 0.0011724
13650.0 0.0011609
13670.0 0.0011476
13690.0 0.0011332
13710.0 0.0011175
13730.0 0.0011002
13750.0 0.0010835
13770.0 0.001067
13790.0 0.0010506
13810.0 0.001035
13830.0 0.0010211
13850.0 0.001008
13870.0 0.000996
13890.0 0.00098574
13910.0 0.00097683
13930.0 0.00096886
13950.0 0.00096205
13970.0 0.00095641
13990.0 0.00095132
14010.0 0.00094673
14030.0 0.00094258
14050.0 0.00093862
14070.0 0.00093447
14090.0 0.00093022
14110.0 0.00092574
14130.0 0.00092074
14150.0 0.00091509
14170.0 0.00090911
14190.0 0.0009026
14210.0 0.00089534
14230.0 0.00088773
14250.0 0.00088003
14270.0 0.00087186
14290.0 0.00086357
14310.0 0.00085585
14330.0 0.00084846
14350.0 0.00084141
14370.0 0.00083519
14390.0 0.00082994
14410.0 0.00082533
14430.0 0.00082163
14450.0 0.0008189
14470.0 0.00081695
14490.0 0.00081569
14510.0 0.00081515
14530.0 0.00081516
14550.0 0.00081569
14570.0 0.00081672
14590.0 0.00081815
14610.0 0.0008201
14630.0 0.0008227
14650.0 0.00082586
14670.0 0.00082964
14690.0 0.00083433
14710.0 0.00083998
14730.0 0.00084615
14750.0 0.00085334
14770.0 0.00086171
14790.0 0.00087086
14810.0 0.00088077
14830.0 0.00089248
14850.0 0.00090524
14870.0 0.00091869
14890.0 0.00093344
14910.0 0.00094949
14930.0 0.00096541
14950.0 0.0009808
14970.0 0.00099593
14990.0 0.0010092
15010.0 0.00102
15030.0 0.0010286
15050.0 0.0010351
15070.0 0.0010393
15090.0 0.0010419
15110.0 0.0010436
15130.0 0.0010446
15150.0 0.0010453
15170.0 0.0010458
15190.0 0.0010462
15210.0 0.0010466
15230.0 0.001047
15250.0 0.0010474
15270.0 0.0010478
15290.0 0.0010483
15310.0 0.0010487
15330.0 0.0010492
15350.0 0.0010497
15370.0 0.0010502
15390.0 0.0010508
15410.0 0.0010513
15430.0 0.0010519
15450.0 0.0010525
15470.0 0.001053
15490.0 0.0010537
15510.0 0.0010543
15530.0 0.0010549
15550.0 0.0010555
15570.0 0.0010562
15590.0 0.0010569
15610.0 0.0010575
15630.0 0.0010582
15650.0 0.0010589
15670.0 0.0010596
15690.0 0.0010603
15710.0 0.0010611
15730.0 0.0010618
15750.0 0.0010625
15770.0 0.0010632
15790.0 0.001064
15810.0 0.0010647
15830.0 0.0010654
15850.0 0.0010662
15870.0 0.001067
15890.0 0.0010677
15910.0 0.0010685
15930.0 0.0010692
15950.0 0.00107
15970.0 0.0010707
15990.0 0.0010715
16010.0 0.0010722
16030.0 0.001073
16050.0 0.0010737
16070.0 0.0010745
16090.0 0.0010752
16110.0 0.0010759
16130.0 0.0010767
16150.0 0.0010774
16170.0 0.0010781
16190.0 0.0010788
16210.0 0.0010795
16230.0 0.0010802
16250.0 0.0010809
16270.0 0.0010815
16290.0 0.0010822
16310.0 0.0010828
16330.0 0.0010835
16350.0 0.0010841
16370.0 0.0010847
16390.0 0.0010853
16410.0 0.0010858
16430.0 0.0010864
16450.0 0.0010869
16470.0 0.0010875
16490.0 0.001088
16510.0 0.0010884
16530.0 0.0010889
16550.0 0.0010894
16570.0 0.0010898
16590.0 0.0010902
16610.0 0.0010906
16630.0 0.0010909
16650.0 0.0010913
16670.0 0.0010916
16690.0 0.0010919
16710.0 0.0010921
16730.0 0.0010924
16750.0 0.0010926
16770.0 0.0010927
16790.0 0.0010929
16810.0 0.001093
16830.0 0.0010931
16850.0 0.0010932
16870.0 0.0010932
16890.0 0.0010932
16910.0 0.0010932
16930.0 0.0010931
16950.0 0.001093
16970.0 0.0010929
16990.0 0.0010927
17010.0 0.0010925
17030.0 0.0010923
17050.0 0.001092
17070.0 0.0010917
17090.0 0.0010914
17110.0 0.001091
17130.0 0.0010906
17150.0 0.0010901
17170.0 0.0010896
17190.0 0.0010891
17210.0 0.0010885
17230.0 0.0010879
17250.0 0.0010873
17270.0 0.0010866
17290.0 0.0010858
17310.0 0.0010851
17330.0 0.0010843
17350.0 0.0010834
17370.0 0.0010825
17390.0 0.0010816
17410.0 0.0010806
17430.0 0.0010796
17450.0 0.0010785
17470.0 0.0010774
17490.0 0.0010762
17510.0 0.001075
17530.0 0.0010738
17550.0 0.0010725
17570.0 0.0010712
17590.0 0.0010698
17610.0 0.0010684
17630.0 0.0010669
17650.0 0.0010654
17670.0 0.0010639
17690.0 0.0010623
17710.0 0.0010607
17730.0 0.001059
17750.0 0.0010573
17770.0 0.0010555
17790.0 0.0010537
17810.0 0.0010519
17830.0 0.00105
17850.0 0.001048
17870.0 0.0010461
17890.0 0.001044
17910.0 0.001042
17930.0 0.0010399
17950.0 0.0010378
17970.0 0.0010356
17990.0 0.0010334
18010.0 0.0010311
18030.0 0.0010288
18050.0 0.0010264
18070.0 0.0010241
18090.0 0.0010217
18110.0 0.0010192
18130.0 0.0010167
18150.0 0.0010142
18170.0 0.0010116
18190.0 0.001009
18210.0 0.0010064
18230.0 0.0010037
18250.0 0.001001
18270.0 0.00099824
18290.0 0.00099547
18310.0 0.00099265
18330.0 0.00098981
18350.0 0.00098695
18370.0 0.00098404
18390.0 0.0009811
18410.0 0.00097814
18430.0 0.00097514
18450.0 0.0009721
18470.0 0.00096906
18490.0 0.00096599
18510.0 0.00096287
18530.0 0.00095974
18550.0 0.00095659
18570.0 0.00095341
18590.0 0.00095019
18610.0 0.00094696
18630.0 0.00094371
18650.0 0.00094043
18670.0 0.00093713
18690.0 0.00093382
18710.0 0.00093048
18730.0 0.00092712
18750.0 0.00092375
18770.0 0.00092036
18790.0 0.00091694
18810.0 0.00091351
18830.0 0.00091007
18850.0 0.00090662
18870.0 0.00090314
18890.0 0.00089966
18910.0 0.00089616
18930.0 0.00089264
18950.0 0.00088912
18970.0 0.0008856
18990.0 0.00088205
19010.0 0.00087848
19030.0 0.00087493
19050.0 0.00087136
19070.0 0.00086778
19090.0 0.00086419
19110.0 0.00086061
19130.0 0.00085701
19150.0 0.0008534
19170.0 0.0008498
19190.0 0.0008462
19210.0 0.00084258
19230.0 0.00083896
19250.0 0.00083536
19270.0 0.00083174
19290.0 0.00082811
19310.0 0.0008245
19330.0 0.00082089
19350.0 0.00081726
19370.0 0.00081365
19390.0 0.00081004
19410.0 0.00080643
19430.0 0.00080282
19450.0 0.00079923
19470.0 0.00079563
19490.0 0.00079204
19510.0 0.00078845
19530.0 0.00078488
19550.0 0.0007813
19570.0 0.00077772
19590.0 0.00077417
19610.0 0.00077062
19630.0 0.00076707
19650.0 0.00076354
19670.0 0.00076003
19690.0 0.0007565
19710.0 0.00075299
19730.0 0.0007495
19750.0 0.00074602
19770.0 0.00074254
19790.0 0.00073908
19810.0 0.00073563
19830.0 0.00073216
19850.0 0.00072868
19870.0 0.00072516
19890.0 0.00072149
19910.0 0.00071755
19930.0 0.00071321
19950.0 0.00070826
19970.0 0.00070232
19990.0 0.00069522
20010.0 0.00068711
20030.0 0.00067756
20050.0 0.00066666
20070.0 0.00065504
20090.0 0.00064281
20110.0 0.00062953
20130.0 0.00061639
20150.0 0.00060364
20170.0 0.0005908
20190.0 0.00057809
20210.0 0.00056618
20230.0 0.00055465
20250.0 0.00054319
20270.0 0.0005324
20290.0 0.00052227
20310.0 0.00051236
20330.0 0.00050267
20350.0 0.0004939
20370.0 0.00048545
20390.0 0.0004772
20410.0 0.00046948
20430.0 0.00046231
20450.0 0.00045524
20470.0 0.00044858
20490.0 0.00044247
20510.0 0.00043672
20530.0 0.00043125
20550.0 0.00042627
20570.0 0.0004218
20590.0 0.00041762
20610.0 0.00041386
20630.0 0.00041055
20650.0 0.0004076
20670.0 0.00040498
20690.0 0.00040277
20710.0 0.00040087
20730.0 0.00039928
20750.0 0.00039796
20770.0 0.00039686
20790.0 0.00039596
20810.0 0.00039524
20830.0 0.00039463
20850.0 0.00039407
20870.0 0.0003936
20890.0 0.00039313
20910.0 0.00039257
20930.0 0.00039194
20950.0 0.00039122
20970.0 0.00039032
20990.0 0.00038925
21010.0 0.00038799
21030.0 0.0003865
21050.0 0.00038479
21070.0 0.00038285
21090.0 0.00038062
21110.0 0.0003782
21130.0 0.00037557
21150.0 0.00037268
21170.0 0.0003696
21190.0 0.0003664
21210.0 0.00036297
21230.0 0.00035934
21250.0 0.00035567
21270.0 0.00035192
21290.0 0.000348
21310.0 0.00034405
21330.0 0.00034018
21350.0 0.00033622
21370.0 0.00033224
21390.0 0.00032841
21410.0 0.00032466
21430.0 0.00032086
21450.0 0.0003173
21470.0 0.00031396
21490.0 0.00031076
21510.0 0.00030774
21530.0 0.00030504
21550.0 0.00030258
21570.0 0.00030034
21590.0 0.00029843
21610.0 0.00029682
21630.0 0.00029549
21650.0 0.00029447
21670.0 0.00029374
21690.0 0.00029327
21710.0 0.00029308
21730.0 0.00029311
21750.0 0.00029329
21770.0 0.00029374
21790.0 0.00029432
21810.0 0.00029495
21830.0 0.00029567
21850.0 0.00029649
21870.0 0.00029726
21890.0 0.00029794
21910.0 0.00029864
21930.0 0.00029925
21950.0 0.0002997
21970.0 0.00030005
21990.0 0.00030033
22010.0 0.00030039
22030.0 0.0003003
22050.0 0.0003001
22070.0 0.00029975
22090.0 0.00029924
22110.0 0.00029861
22130.0 0.00029787
22150.0 0.00029702
22170.0 0.00029607
22190.0 0.00029502
22210.0 0.00029388
22230.0 0.00029268
22250.0 0.00029139
22270.0 0.00029
22290.0 0.00028856
22310.0 0.00028703
22330.0 0.00028537
22350.0 0.00028361
22370.0 0.00028177
22390.0 0.00027977
22410.0 0.00027759
22430.0 0.00027531
22450.0 0.00027289
22470.0 0.00027024
22490.0 0.00026742
22510.0 0.00026452
22530.0 0.00026135
22550.0 0.00025797
22570.0 0.00025455
22590.0 0.00025102
22610.0 0.00024727
22630.0 0.00024349
22650.0 0.00023979
22670.0 0.00023596
22690.0 0.00023211
22710.0 0.00022842
22730.0 0.00022481
22750.0 0.00022113
22770.0 0.00021772
22790.0 0.00021453
22810.0 0.00021142
22830.0 0.00020848
22850.0 0.00020583
22870.0 0.00020333
22890.0 0.00020095
22910.0 0.0001988
22930.0 0.00019686
22950.0 0.00019503
22970.0 0.00019331
22990.0 0.0001918
23010.0 0.00019037
23030.0 0.000189
23050.0 0.00018771
23070.0 0.00018648
23090.0 0.00018523
23110.0 0.00018399
23130.0 0.00018277
23150.0 0.00018151
23170.0 0.00018018
23190.0 0.00017885
23210.0 0.0001775
23230.0 0.00017608
23250.0 0.00017464
23270.0 0.00017322
23290.0 0.00017178
23310.0 0.00017031
23330.0 0.00016891
23350.0 0.00016756
23370.0 0.00016622
23390.0 0.00016493
23410.0 0.00016372
