#lamb flux
1010.0 1.0628e-05
1030.0 1.1075e-05
1050.0 1.1594e-05
1070.0 1.2179e-05
1090.0 1.2845e-05
1110.0 1.353e-05
1130.0 1.4223e-05
1150.0 1.4952e-05
1170.0 1.5707e-05
1190.0 1.6429e-05
1210.0 1.7165e-05
1230.0 1.7931e-05
1250.0 1.8687e-05
1270.0 1.9428e-05
1290.0 2.0215e-05
1310.0 2.1008e-05
1330.0 2.1778e-05
1350.0 2.2563e-05
1370.0 2.338e-05
1390.0 2.4186e-05
1410.0 2.4978e-05
1430.0 2.5812e-05
1450.0 2.6654e-05
1470.0 2.7478e-05
1490.0 2.832e-05
1510.0 2.9211e-05
1530.0 3.0069e-05
1550.0 3.0923e-05
1570.0 3.1809e-05
1590.0 3.2701e-05
1610.0 3.3562e-05
1630.0 3.445e-05
1650.0 3.536e-05
1670.0 3.6244e-05
1690.0 3.7116e-05
1710.0 3.8015e-05
1730.0 3.8913e-05
1750.0 3.9756e-05
1770.0 4.0612e-05
1790.0 4.1474e-05
1810.0 4.2297e-05
1830.0 4.3093e-05
1850.0 4.3921e-05
1870.0 4.471e-05
1890.0 4.5454e-05
1910.0 4.6194e-05
1930.0 4.6934e-05
1950.0 4.7617e-05
1970.0 4.8272e-05
1990.0 4.8937e-05
2010.0 4.957e-05
2030.0 5.016e-05
2050.0 5.0759e-05
2070.0 5.1365e-05
2090.0 5.1918e-05
2110.0 5.2464e-05
2130.0 5.303e-05
2150.0 5.3586e-05
2170.0 5.4117e-05
2190.0 5.4687e-05
2210.0 5.5281e-05
2230.0 5.5867e-05
2250.0 5.648e-05
2270.0 5.716e-05
2290.0 5.7857e-05
2310.0 5.8571e-05
2330.0 5.9359e-05
2350.0 6.0212e-05
2370.0 6.11e-05
2390.0 6.2066e-05
2410.0 6.3143e-05
2430.0 6.4277e-05
2450.0 6.5474e-05
2470.0 6.6762e-05
2490.0 6.8121e-05
2510.0 6.9507e-05
2530.0 7.1036e-05
2550.0 7.2898e-05
2570.0 7.5375e-05
2590.0 7.8862e-05
2610.0 8.4247e-05
2630.0 9.2065e-05
2650.0 0.0001023
2670.0 0.00011535
2690.0 0.00013119
2710.0 0.00014832
2730.0 0.00016588
2750.0 0.00018417
2770.0 0.00020198
2790.0 0.00021882
2810.0 0.00023546
2830.0 0.00025261
2850.0 0.00026939
2870.0 0.00028662
2890.0 0.00030498
2910.0 0.00032416
2930.0 0.00034365
2950.0 0.00036441
2970.0 0.00038631
2990.0 0.00040856
3010.0 0.00073425
3030.0 0.00077497
3050.0 0.00081595
3070.0 0.0008543
3090.0 0.00088904
3110.0 0.00091377
3130.0 0.00092043
3150.0 0.00090022
3170.0 0.00083557
3190.0 0.00072291
3210.0 0.00056289
3230.0 0.00037978
3250.0 0.00055153
3270.0 0.00027869
3290.0 0.00069949
3310.0 0.00019479
3330.0 0.00020512
3350.0 0.00028183
3370.0 0.00036773
3390.0 0.00045809
3410.0 0.00054802
3430.0 0.00064156
3450.0 0.00073465
3470.0 0.00082041
3490.0 0.00087729
3510.0 0.0010618
3530.0 0.0014156
3550.0 0.0014599
3570.0 0.0013267
3590.0 0.0018386
3610.0 0.0013238
3630.0 0.0019132
3650.0 0.002099
3670.0 0.0026142
3690.0 0.0025709
3710.0 0.0020235
3730.0 0.002609
3750.0 0.0027172
3770.0 0.0027775
3790.0 0.0025279
3810.0 0.0021893
3830.0 0.0027229
3850.0 0.002771
3870.0 0.0033768
3890.0 0.0032666
3910.0 0.0031265
3930.0 0.0034708
3950.0 0.0038993
3970.0 0.0050536
3990.0 0.0043778
4010.0 0.0032421
4030.0 0.0039651
4050.0 0.0040852
4070.0 0.0045157
4090.0 0.0041352
4110.0 0.0030699
4130.0 0.0037838
4150.0 0.0034784
4170.0 0.0036864
4190.0 0.0036882
4210.0 0.0043877
4230.0 0.003276
4250.0 0.003856
4270.0 0.0038532
4290.0 0.003913
4310.0 0.004609
4330.0 0.0047402
4350.0 0.0038863
4370.0 0.0034936
4390.0 0.0039747
4410.0 0.0039174
4430.0 0.0030946
4450.0 0.0030835
4470.0 0.0034663
4490.0 0.0027507
4510.0 0.0032447
4530.0 0.0035318
4550.0 0.0046476
4570.0 0.0066618
4590.0 0.006776
4610.0 0.0051194
4630.0 0.0073872
4650.0 0.0099879
4670.0 0.0093818
4690.0 0.0061501
4710.0 0.0063672
4730.0 0.0076061
4750.0 0.0067364
4770.0 0.0052113
4790.0 0.0038381
4810.0 0.0052119
4830.0 0.0059499
4850.0 0.0056043
4870.0 0.002814
4890.0 0.0060199
4910.0 0.007874
4930.0 0.0084546
4950.0 0.0086143
4970.0 0.0062388
4990.0 0.0069601
5010.0 0.0075682
5030.0 0.0077215
5050.0 0.0073537
5070.0 0.0054301
5090.0 0.0045506
5110.0 0.0042889
5130.0 0.0038912
5150.0 0.0043982
5170.0 0.0039223
5190.0 0.004694
5210.0 0.0046981
5230.0 0.0051105
5250.0 0.0064085
5270.0 0.0057714
5290.0 0.0057886
5310.0 0.0079108
5330.0 0.0090278
5350.0 0.0079862
5370.0 0.0072125
5390.0 0.0078421
5410.0 0.0093161
5430.0 0.010109
5450.0 0.010941
5470.0 0.011384
5490.0 0.011532
5510.0 0.013282
5530.0 0.013732
5550.0 0.014429
5570.0 0.015007
5590.0 0.014825
5610.0 0.014193
5630.0 0.013794
5650.0 0.013984
5670.0 0.013844
5690.0 0.012079
5710.0 0.011414
5730.0 0.011224
5750.0 0.011896
5770.0 0.010514
5790.0 0.0098247
5810.0 0.010037
5830.0 0.010474
5850.0 0.009701
5870.0 0.0096265
5890.0 0.010971
5910.0 0.010524
5930.0 0.0089863
5950.0 0.0080101
5970.0 0.0083146
5990.0 0.0076033
6010.0 0.0070579
6030.0 0.0070851
6050.0 0.0067007
6070.0 0.0053543
6090.0 0.0049238
6110.0 0.0059903
6130.0 0.0067262
6150.0 0.0070992
6170.0 0.0071135
6190.0 0.0069465
6210.0 0.006893
6230.0 0.0076728
6250.0 0.0070876
6270.0 0.0064405
6290.0 0.0058331
6310.0 0.0054463
6330.0 0.0051619
6350.0 0.004614
6370.0 0.0046332
6390.0 0.0054334
6410.0 0.0066682
6430.0 0.0076967
6450.0 0.0075336
6470.0 0.0075829
6490.0 0.0091081
6510.0 0.010158
6530.0 0.0097204
6550.0 0.0094636
6570.0 0.0095985
6590.0 0.0093236
6610.0 0.0099774
6630.0 0.0094935
6650.0 0.0086147
6670.0 0.0078387
6690.0 0.0074665
6710.0 0.0086528
6730.0 0.0080296
6750.0 0.0071776
6770.0 0.0066857
6790.0 0.0069759
6810.0 0.0075297
6830.0 0.007346
6850.0 0.0067853
6870.0 0.0068939
6890.0 0.0067126
6910.0 0.0063541
6930.0 0.0071164
6950.0 0.0067334
6970.0 0.0064815
6990.0 0.006544
7010.0 0.0062933
7030.0 0.0059078
7050.0 0.0055925
7070.0 0.005772
7090.0 0.0053997
7110.0 0.0047682
7130.0 0.0039975
7150.0 0.0036654
7170.0 0.0045938
7190.0 0.0049514
7210.0 0.0048891
7230.0 0.0051582
7250.0 0.0049577
7270.0 0.0048067
7290.0 0.0051683
7310.0 0.0055556
7330.0 0.0054004
7350.0 0.0051066
7370.0 0.0049569
7390.0 0.0052216
7410.0 0.0060206
7430.0 0.006594
7450.0 0.0071158
7470.0 0.0071477
7490.0 0.0072984
7510.0 0.0069816
7530.0 0.0069163
7550.0 0.0066715
7570.0 0.0058521
7590.0 0.0057402
7610.0 0.0056214
7630.0 0.0054026
7650.0 0.0059906
7670.0 0.0065689
7690.0 0.0071485
7710.0 0.0078949
7730.0 0.0084178
7750.0 0.0088093
7770.0 0.0088218
7790.0 0.0095157
7810.0 0.0098291
7830.0 0.0092804
7850.0 0.0093451
7870.0 0.0089228
7890.0 0.0091804
7910.0 0.008704
7930.0 0.0087182
7950.0 0.0079235
7970.0 0.0081143
7990.0 0.0078407
8010.0 0.0077506
8030.0 0.0077368
8050.0 0.0080721
8070.0 0.0078347
8090.0 0.0078562
8110.0 0.0076353
8130.0 0.0076274
8150.0 0.0073396
8170.0 0.0071384
8190.0 0.007051
8210.0 0.0071075
8230.0 0.0064142
8250.0 0.005902
8270.0 0.0051681
8290.0 0.004261
8310.0 0.0035595
8330.0 0.0028213
8350.0 0.0024026
8370.0 0.0025305
8390.0 0.0026716
8410.0 0.0028744
8430.0 0.003428
8450.0 0.0036541
8470.0 0.0038475
8490.0 0.0043669
8510.0 0.0047806
8530.0 0.0055253
8550.0 0.0065332
8570.0 0.0073363
8590.0 0.0079384
8610.0 0.00864
8630.0 0.0093934
8650.0 0.0095349
8670.0 0.0096164
8690.0 0.0099716
8710.0 0.0099297
8730.0 0.0099126
8750.0 0.0094808
8770.0 0.0094915
8790.0 0.0093605
8810.0 0.0086676
8830.0 0.0086095
8850.0 0.0081178
8870.0 0.007806
8890.0 0.007233
8910.0 0.0076481
8930.0 0.0070623
8950.0 0.0069097
8970.0 0.0068935
8990.0 0.0066814
9010.0 0.0067406
9030.0 0.0064983
9050.0 0.006462
9070.0 0.006451
9090.0 0.0064392
9110.0 0.0064291
9130.0 0.0064153
9150.0 0.0063998
9170.0 0.0063708
9190.0 0.0063206
9210.0 0.006381
9230.0 0.006347
9250.0 0.0063216
9270.0 0.0062974
9290.0 0.0062739
9310.0 0.0062511
9330.0 0.0062282
9350.0 0.006205
9370.0 0.0061814
9390.0 0.0061574
9410.0 0.0061328
9430.0 0.0061076
9450.0 0.0060814
9470.0 0.006055
9490.0 0.0060292
9510.0 0.0060027
9530.0 0.0059759
9550.0 0.0059485
9570.0 0.0059208
9590.0 0.0058929
9610.0 0.0058648
9630.0 0.0058363
9650.0 0.0058078
9670.0 0.0057792
9690.0 0.0057503
9710.0 0.0057214
9730.0 0.0056925
9750.0 0.0056636
9770.0 0.0056346
9790.0 0.0056056
9810.0 0.0055767
9830.0 0.0055479
9850.0 0.0055191
9870.0 0.0054904
9890.0 0.0054619
9910.0 0.0054334
9930.0 0.0054048
9950.0 0.0053569
9970.0 0.0053348
9990.0 0.0053119
10010.0 0.0052886
10030.0 0.0052638
10050.0 0.0052371
10070.0 0.0052065
10090.0 0.0051826
10110.0 0.0051575
10130.0 0.0051327
10150.0 0.0051082
10170.0 0.0050831
10190.0 0.0050573
10210.0 0.0050328
10230.0 0.005009
10250.0 0.0049845
10270.0 0.0049605
10290.0 0.0049377
10310.0 0.0049144
10330.0 0.0048907
10350.0 0.0048685
10370.0 0.0048467
10390.0 0.0048244
10410.0 0.0048027
10430.0 0.0047823
10450.0 0.0047614
10470.0 0.0047405
10490.0 0.0047207
10510.0 0.0047013
10530.0 0.004681
10550.0 0.0046616
10570.0 0.0046434
10590.0 0.0046249
10610.0 0.0046062
10630.0 0.0045889
10650.0 0.0045717
10670.0 0.0045539
10690.0 0.0045369
10710.0 0.0045208
10730.0 0.0045043
10750.0 0.0044874
10770.0 0.0044723
10790.0 0.0044571
10810.0 0.0044415
10830.0 0.0044265
10850.0 0.0044122
10870.0 0.0043964
10890.0 0.0043796
10910.0 0.0043621
10930.0 0.0043413
10950.0 0.0043143
10970.0 0.0042814
10990.0 0.0042421
11010.0 0.0040992
11030.0 0.0040438
11050.0 0.0039814
11070.0 0.0039107
11090.0 0.0038296
11110.0 0.0037493
11130.0 0.0036688
11150.0 0.0035852
11170.0 0.0035024
11190.0 0.0034252
11210.0 0.0033481
11230.0 0.0032714
11250.0 0.0032003
11270.0 0.0031336
11290.0 0.0030675
11310.0 0.0030052
11330.0 0.0029507
11350.0 0.0028984
11370.0 0.0028487
11390.0 0.0028043
11410.0 0.0027636
11430.0 0.0027227
11450.0 0.0026847
11470.0 0.0026493
11490.0 0.0026134
11510.0 0.0025758
11530.0 0.0025394
11550.0 0.002502
11570.0 0.0024608
11590.0 0.0024178
11610.0 0.0023743
11630.0 0.0023265
11650.0 0.0022747
11670.0 0.0022238
11690.0 0.0021715
11710.0 0.002116
11730.0 0.0020608
11750.0 0.0020085
11770.0 0.0019547
11790.0 0.0019015
11810.0 0.0018523
11830.0 0.0018056
11850.0 0.0017586
11870.0 0.0017162
11890.0 0.0016783
11910.0 0.0016416
11930.0 0.0016071
11950.0 0.0015767
11970.0 0.001548
11990.0 0.0015197
12010.0 0.0014941
12030.0 0.0014707
12050.0 0.0014475
12070.0 0.0014249
12090.0 0.0014051
12110.0 0.0013861
12130.0 0.0013674
12150.0 0.0013507
12170.0 0.0013363
12190.0 0.0013224
12210.0 0.0013111
12230.0 0.0013031
12250.0 0.001298
12270.0 0.0012961
12290.0 0.0012985
12310.0 0.001305
12330.0 0.001316
12350.0 0.0013315
12370.0 0.0013511
12390.0 0.0013749
12410.0 0.0014036
12430.0 0.0014344
12450.0 0.0014674
12470.0 0.0015031
12490.0 0.0015398
12510.0 0.0015755
12530.0 0.0016117
12550.0 0.0016473
12570.0 0.0016805
12590.0 0.0017114
12610.0 0.0017407
12630.0 0.0017672
12650.0 0.00179
12670.0 0.0018104
12690.0 0.001828
12710.0 0.0018426
12730.0 0.0018546
12750.0 0.0018639
12770.0 0.0018706
12790.0 0.001875
12810.0 0.001877
12830.0 0.0018764
12850.0 0.0018742
12870.0 0.0018701
12890.0 0.0018636
12910.0 0.0018553
12930.0 0.0018458
12950.0 0.0018338
12970.0 0.0018196
12990.0 0.0018048
13010.0 0.0017883
13030.0 0.0017694
13050.0 0.0017494
13070.0 0.0017291
13090.0 0.0017066
13110.0 0.0016828
13130.0 0.0016595
13150.0 0.0016359
13170.0 0.0016111
13190.0 0.0015881
13210.0 0.0015673
13230.0 0.0015475
13250.0 0.0015299
13270.0 0.001516
13290.0 0.0015047
13310.0 0.0014963
13330.0 0.0014917
13350.0 0.0014902
13370.0 0.0014913
13390.0 0.0014947
13410.0 0.0014995
13430.0 0.001505
13450.0 0.0015104
13470.0 0.0015148
13490.0 0.0015176
13510.0 0.0015178
13530.0 0.0015152
13550.0 0.0015096
13570.0 0.0015009
13590.0 0.0014886
13610.0 0.001474
13630.0 0.0014576
13650.0 0.0014386
13670.0 0.0014185
13690.0 0.0013985
13710.0 0.0013779
13730.0 0.0013566
13750.0 0.0013373
13770.0 0.001319
13790.0 0.0013011
13810.0 0.0012844
13830.0 0.0012695
13850.0 0.001255
13870.0 0.0012411
13890.0 0.0012285
13910.0 0.0012165
13930.0 0.0012046
13950.0 0.0011931
13970.0 0.0011826
13990.0 0.0011721
14010.0 0.0011618
14030.0 0.0011523
14050.0 0.0011433
14070.0 0.0011345
14090.0 0.0011266
14110.0 0.0011195
14130.0 0.0011131
14150.0 0.0011074
14170.0 0.0011027
14190.0 0.0010989
14210.0 0.0010958
14230.0 0.0010936
14250.0 0.0010923
14270.0 0.0010918
14290.0 0.0010923
14310.0 0.0010934
14330.0 0.0010952
14350.0 0.0010979
14370.0 0.001101
14390.0 0.0011043
14410.0 0.0011082
14430.0 0.0011121
14450.0 0.0011157
14470.0 0.0011191
14490.0 0.0011224
14510.0 0.001125
14530.0 0.0011269
14550.0 0.0011285
14570.0 0.0011297
14590.0 0.0011304
14610.0 0.0011312
14630.0 0.0011322
14650.0 0.0011335
14670.0 0.0011353
14690.0 0.0011383
14710.0 0.0011427
14730.0 0.0011479
14750.0 0.0011549
14770.0 0.0011639
14790.0 0.0011745
14810.0 0.0011863
14830.0 0.0012011
14850.0 0.0012173
14870.0 0.0012341
14890.0 0.0012522
14910.0 0.0012712
14930.0 0.0012888
14950.0 0.0013046
14970.0 0.0013189
14990.0 0.0013298
15010.0 0.0013365
15030.0 0.0013399
15050.0 0.00134
15070.0 0.0013369
15090.0 0.0013319
15110.0 0.0013255
15130.0 0.0013182
15150.0 0.0013105
15170.0 0.0013025
15190.0 0.0012944
15210.0 0.0012862
15230.0 0.0012781
15250.0 0.0012698
15270.0 0.0012616
15290.0 0.0012535
15310.0 0.0012454
15330.0 0.0012372
15350.0 0.0012291
15370.0 0.001221
15390.0 0.0012128
15410.0 0.0012047
15430.0 0.0011966
15450.0 0.0011886
15470.0 0.0011805
15490.0 0.0011725
15510.0 0.0011645
15530.0 0.0011565
15550.0 0.0011486
15570.0 0.0011407
15590.0 0.0011328
15610.0 0.0011249
15630.0 0.0011171
15650.0 0.0011093
15670.0 0.0011016
15690.0 0.0010939
15710.0 0.0010862
15730.0 0.0010786
15750.0 0.0010709
15770.0 0.0010634
15790.0 0.0010559
15810.0 0.0010484
15830.0 0.001041
15850.0 0.0010336
15870.0 0.0010263
15890.0 0.0010189
15910.0 0.0010117
15930.0 0.0010045
15950.0 0.00099735
15970.0 0.00099025
15990.0 0.00098322
16010.0 0.00097619
16030.0 0.0009692
16050.0 0.00096234
16070.0 0.00095549
16090.0 0.00094866
16110.0 0.00094193
16130.0 0.00093527
16150.0 0.00092857
16170.0 0.00092196
16190.0 0.00091545
16210.0 0.00090897
16230.0 0.0009025
16250.0 0.00089614
16270.0 0.00088985
16290.0 0.00088355
16310.0 0.00087732
16330.0 0.00087119
16350.0 0.00086509
16370.0 0.00085897
16390.0 0.000853
16410.0 0.00084708
16430.0 0.00084117
16450.0 0.00083533
16470.0 0.0008296
16490.0 0.00082386
16510.0 0.00081816
16530.0 0.00081256
16550.0 0.00080702
16570.0 0.00080147
16590.0 0.000796
16610.0 0.00079065
16630.0 0.0007853
16650.0 0.00077999
16670.0 0.00077477
16690.0 0.00076961
16710.0 0.00076443
16730.0 0.00075935
16750.0 0.00075435
16770.0 0.00074937
16790.0 0.00074442
16810.0 0.00073958
16830.0 0.00073478
16850.0 0.00072998
16870.0 0.00072527
16890.0 0.00072064
16910.0 0.000716
16930.0 0.0007114
16950.0 0.00070691
16970.0 0.00070246
16990.0 0.00069802
17010.0 0.00069365
17030.0 0.00068937
17050.0 0.00068508
17070.0 0.00068084
17090.0 0.00067669
17110.0 0.00067257
17130.0 0.00066844
17150.0 0.00066441
17170.0 0.00066045
17190.0 0.00065649
17210.0 0.00065258
17230.0 0.00064876
17250.0 0.00064495
17270.0 0.00064115
17290.0 0.00063743
17310.0 0.00063377
17330.0 0.00063012
17350.0 0.00062649
17370.0 0.00062298
17390.0 0.00061947
17410.0 0.00061598
17430.0 0.00061257
17450.0 0.00060921
17470.0 0.00060582
17490.0 0.00060249
17510.0 0.00059925
17530.0 0.00059602
17550.0 0.0005928
17570.0 0.00058966
17590.0 0.00058657
17610.0 0.00058347
17630.0 0.00058042
17650.0 0.00057744
17670.0 0.00057447
17690.0 0.00057149
17710.0 0.00056861
17730.0 0.00056577
17750.0 0.00056292
17770.0 0.00056012
17790.0 0.00055739
17810.0 0.00055465
17830.0 0.00055193
17850.0 0.00054928
17870.0 0.00054666
17890.0 0.00054404
17910.0 0.00054146
17930.0 0.00053896
17950.0 0.00053644
17970.0 0.00053395
17990.0 0.00053153
18010.0 0.00052913
18030.0 0.0005267
18050.0 0.00052435
18070.0 0.00052204
18090.0 0.00051973
18110.0 0.00051743
18130.0 0.00051521
18150.0 0.00051301
18170.0 0.0005108
18190.0 0.00050863
18210.0 0.00050652
18230.0 0.00050439
18250.0 0.00050227
18270.0 0.00050023
18290.0 0.0004982
18310.0 0.00049617
18330.0 0.00049419
18350.0 0.00049225
18370.0 0.00049029
18390.0 0.00048836
18410.0 0.00048649
18430.0 0.00048462
18450.0 0.00048273
18470.0 0.00048091
18490.0 0.00047913
18510.0 0.00047733
18530.0 0.00047556
18550.0 0.00047385
18570.0 0.00047212
18590.0 0.00047039
18610.0 0.00046871
18630.0 0.00046707
18650.0 0.00046541
18670.0 0.00046376
18690.0 0.00046219
18710.0 0.00046061
18730.0 0.00045902
18750.0 0.00045748
18770.0 0.00045598
18790.0 0.00045442
18810.0 0.00045291
18830.0 0.00045146
18850.0 0.00044999
18870.0 0.00044852
18890.0 0.00044711
18910.0 0.00044571
18930.0 0.00044429
18950.0 0.0004429
18970.0 0.00044156
18990.0 0.0004402
19010.0 0.00043882
19030.0 0.00043752
19050.0 0.00043623
19070.0 0.00043491
19090.0 0.00043363
19110.0 0.0004324
19130.0 0.00043112
19150.0 0.00042986
19170.0 0.00042865
19190.0 0.00042744
19210.0 0.00042621
19230.0 0.00042502
19250.0 0.00042387
19270.0 0.0004227
19290.0 0.00042153
19310.0 0.00042041
19330.0 0.00041929
19350.0 0.00041813
19370.0 0.00041702
19390.0 0.00041594
19410.0 0.00041484
19430.0 0.00041375
19450.0 0.00041271
19470.0 0.00041166
19490.0 0.00041059
19510.0 0.00040956
19530.0 0.00040855
19550.0 0.00040751
19570.0 0.00040648
19590.0 0.0004055
19610.0 0.00040451
19630.0 0.00040351
19650.0 0.00040254
19670.0 0.0004016
19690.0 0.00040062
19710.0 0.00039966
19730.0 0.00039874
19750.0 0.00039781
19770.0 0.00039684
19790.0 0.00039593
19810.0 0.00039504
19830.0 0.00039411
19850.0 0.00039318
19870.0 0.00039226
19890.0 0.00039124
19910.0 0.00039008
19930.0 0.00038875
19950.0 0.00038713
19970.0 0.00038499
19990.0 0.00038226
20010.0 0.00037904
20030.0 0.00037502
20050.0 0.00037023
20070.0 0.00036499
20090.0 0.00035934
20110.0 0.00035293
20130.0 0.00034647
20150.0 0.00034008
20170.0 0.00033348
20190.0 0.00032679
20210.0 0.00032048
20230.0 0.00031434
20250.0 0.00030816
20270.0 0.00030243
20290.0 0.00029719
20310.0 0.00029221
20330.0 0.00028755
20350.0 0.00028371
20370.0 0.00028034
20390.0 0.00027743
20410.0 0.00027519
20430.0 0.00027358
20450.0 0.00027249
20470.0 0.00027202
20490.0 0.00027213
20510.0 0.00027278
20530.0 0.00027398
20550.0 0.00027562
20570.0 0.00027761
20590.0 0.00028002
20610.0 0.00028274
20630.0 0.00028559
20650.0 0.00028862
20670.0 0.00029189
20690.0 0.00029503
20710.0 0.00029808
20730.0 0.00030111
20750.0 0.00030397
20770.0 0.00030648
20790.0 0.00030878
20810.0 0.00031082
20830.0 0.00031247
20850.0 0.00031377
20870.0 0.00031474
20890.0 0.00031533
20910.0 0.00031556
20930.0 0.00031546
20950.0 0.00031502
20970.0 0.0003143
20990.0 0.00031334
21010.0 0.00031208
21030.0 0.0003106
21050.0 0.000309
21070.0 0.00030721
21090.0 0.00030522
21110.0 0.00030323
21130.0 0.00030121
21150.0 0.00029907
21170.0 0.00029695
21190.0 0.00029495
21210.0 0.00029293
21230.0 0.00029097
21250.0 0.00028922
21270.0 0.00028763
21290.0 0.00028618
21310.0 0.00028495
21330.0 0.00028401
21350.0 0.00028327
21370.0 0.00028278
21390.0 0.00028259
21410.0 0.00028265
21430.0 0.000283
21450.0 0.00028362
21470.0 0.00028447
21490.0 0.00028557
21510.0 0.00028692
21530.0 0.00028843
21550.0 0.00029012
21570.0 0.00029204
21590.0 0.00029407
21610.0 0.00029617
21630.0 0.00029845
21650.0 0.00030089
21670.0 0.00030325
21690.0 0.00030572
21710.0 0.00030832
21730.0 0.00031091
21750.0 0.00031347
21770.0 0.00031622
21790.0 0.00031899
21810.0 0.0003217
21830.0 0.00032446
21850.0 0.00032734
21870.0 0.00033016
21890.0 0.00033291
21910.0 0.00033577
21930.0 0.00033863
21950.0 0.00034136
21970.0 0.0003441
21990.0 0.0003469
22010.0 0.00034948
22030.0 0.00035193
22050.0 0.00035431
22070.0 0.00035652
22090.0 0.00035844
22110.0 0.00036019
22130.0 0.00036171
22150.0 0.00036289
22170.0 0.00036376
22190.0 0.00036429
22210.0 0.00036444
22230.0 0.00036421
22250.0 0.00036358
22270.0 0.00036251
22290.0 0.00036107
22310.0 0.00035926
22330.0 0.00035694
22350.0 0.00035425
22370.0 0.00035129
22390.0 0.00034791
22410.0 0.00034408
22430.0 0.00034015
22450.0 0.00033601
22470.0 0.0003315
22490.0 0.00032686
22510.0 0.00032226
22530.0 0.00031737
22550.0 0.00031233
22570.0 0.00030751
22590.0 0.00030273
22610.0 0.00029784
22630.0 0.00029313
22650.0 0.00028874
22670.0 0.00028434
22690.0 0.00028006
22710.0 0.00027613
22730.0 0.0002724
22750.0 0.00026867
22770.0 0.0002653
22790.0 0.00026224
22810.0 0.00025929
22830.0 0.00025651
22850.0 0.00025404
22870.0 0.00025172
22890.0 0.00024948
22910.0 0.00024748
22930.0 0.00024567
22950.0 0.00024395
22970.0 0.00024235
22990.0 0.00024099
23010.0 0.00023973
23030.0 0.00023857
23050.0 0.00023757
23070.0 0.00023671
23090.0 0.00023592
23110.0 0.00023527
23130.0 0.00023474
23150.0 0.0002343
23170.0 0.00023394
23190.0 0.00023368
23210.0 0.0002335
23230.0 0.00023338
23250.0 0.00023332
23270.0 0.00023333
23290.0 0.00023339
