#lamb flux
1010.0 1.8967e-05
1030.0 2.1093e-05
1050.0 2.3148e-05
1070.0 2.5468e-05
1090.0 2.8222e-05
1110.0 3.1036e-05
1130.0 3.3866e-05
1150.0 3.6839e-05
1170.0 3.993e-05
1190.0 4.291e-05
1210.0 4.5994e-05
1230.0 4.9259e-05
1250.0 5.254e-05
1270.0 5.5851e-05
1290.0 5.9461e-05
1310.0 6.3207e-05
1330.0 6.6961e-05
1350.0 7.0878e-05
1370.0 7.5016e-05
1390.0 7.9173e-05
1410.0 8.3308e-05
1430.0 8.7643e-05
1450.0 9.2007e-05
1470.0 9.6259e-05
1490.0 0.00010052
1510.0 0.00010493
1530.0 0.00010908
1550.0 0.00011309
1570.0 0.00011711
1590.0 0.000121
1610.0 0.00012458
1630.0 0.00012805
1650.0 0.00013144
1670.0 0.00013452
1690.0 0.00013736
1710.0 0.00014013
1730.0 0.00014272
1750.0 0.00014492
1770.0 0.00014703
1790.0 0.00014905
1810.0 0.00015082
1830.0 0.00015241
1850.0 0.00015412
1870.0 0.00015569
1890.0 0.00015713
1910.0 0.00015864
1930.0 0.00016028
1950.0 0.00016184
1970.0 0.00016347
1990.0 0.00016532
2010.0 0.00016725
2030.0 0.00016919
2050.0 0.00017134
2070.0 0.00017366
2090.0 0.00017589
2110.0 0.00017816
2130.0 0.00018053
2150.0 0.00018282
2170.0 0.00018493
2190.0 0.00018704
2210.0 0.00018903
2230.0 0.00019073
2250.0 0.00019222
2270.0 0.0001936
2290.0 0.00019464
2310.0 0.0001953
2330.0 0.00019576
2350.0 0.00019595
2370.0 0.00019574
2390.0 0.00019526
2410.0 0.00019458
2430.0 0.0001935
2450.0 0.00019202
2470.0 0.00019024
2490.0 0.00018815
2510.0 0.00018574
2530.0 0.00018347
2550.0 0.00018203
2570.0 0.00018221
2590.0 0.00018494
2610.0 0.00019228
2630.0 0.00020486
2650.0 0.00022178
2670.0 0.00024318
2690.0 0.00026791
2710.0 0.0002915
2730.0 0.00031132
2750.0 0.00032649
2770.0 0.00033339
2790.0 0.00033095
2810.0 0.00031962
2830.0 0.00029898
2850.0 0.0002717
2870.0 0.00023937
2890.0 0.00020218
2910.0 0.00016221
2930.0 0.0001218
2950.0 7.8995e-05
2970.0 3.445e-05
2990.0 1.3259e-05
3010.0 2.4771e-05
3030.0 2.4771e-05
3050.0 2.4771e-05
3070.0 2.4771e-05
3090.0 2.4771e-05
3110.0 2.4771e-05
3130.0 2.4771e-05
3150.0 2.4771e-05
3170.0 2.4771e-05
3190.0 2.4771e-05
3210.0 0.00016119
3230.0 0.0014027
3250.0 0.0022476
3270.0 0.0020261
3290.0 0.0016924
3310.0 0.0012773
3330.0 0.0012121
3350.0 0.001322
3370.0 0.0014927
3390.0 0.0016762
3410.0 0.0018727
3430.0 0.0021355
3450.0 0.0023858
3470.0 0.0026434
3490.0 0.0026986
3510.0 0.0023185
3530.0 0.0021288
3550.0 0.0025072
3570.0 0.0029063
3590.0 0.0031995
3610.0 0.003208
3630.0 0.0037304
3650.0 0.0039335
3670.0 0.0041047
3690.0 0.0043448
3710.0 0.0043732
3730.0 0.004522
3750.0 0.0044981
3770.0 0.0044783
3790.0 0.0043118
3810.0 0.0040509
3830.0 0.0038346
3850.0 0.002403
3870.0 0.0025381
3890.0 0.0029064
3910.0 0.0038234
3930.0 0.0049501
3950.0 0.005363
3970.0 0.005754
3990.0 0.0066737
4010.0 0.006287
4030.0 0.0055621
4050.0 0.0039828
4070.0 0.003502
4090.0 0.0046903
4110.0 0.0049455
4130.0 0.0053837
4150.0 0.0052556
4170.0 0.0049727
4190.0 0.004554
4210.0 0.0056024
4230.0 0.005997
4250.0 0.0065027
4270.0 0.0063017
4290.0 0.006104
4310.0 0.0063993
4330.0 0.0074239
4350.0 0.0080345
4370.0 0.0081173
4390.0 0.0075087
4410.0 0.0068368
4430.0 0.0053462
4450.0 0.0042928
4470.0 0.0044738
4490.0 0.0051519
4510.0 0.0054268
4530.0 0.0054323
4550.0 0.0054573
4570.0 0.0076604
4590.0 0.011421
4610.0 0.013488
4630.0 0.013859
4650.0 0.015218
4670.0 0.017813
4690.0 0.019059
4710.0 0.016114
4730.0 0.012329
4750.0 0.009566
4770.0 0.0080957
4790.0 0.0072915
4810.0 0.0069
4830.0 0.0076404
4850.0 0.0091736
4870.0 0.010164
4890.0 0.010544
4910.0 0.010153
4930.0 0.011134
4950.0 0.013407
4970.0 0.015284
4990.0 0.015673
5010.0 0.014343
5030.0 0.011866
5050.0 0.0092506
5070.0 0.007505
5090.0 0.0068526
5110.0 0.0067963
5130.0 0.0069122
5150.0 0.0068368
5170.0 0.0063781
5190.0 0.0059917
5210.0 0.0059552
5230.0 0.0067452
5250.0 0.0081236
5270.0 0.0096569
5290.0 0.010789
5310.0 0.011527
5330.0 0.012729
5350.0 0.013962
5370.0 0.014122
5390.0 0.012698
5410.0 0.011262
5430.0 0.011065
5450.0 0.012787
5470.0 0.015441
5490.0 0.017556
5510.0 0.018353
5530.0 0.017938
5550.0 0.017024
5570.0 0.016245
5590.0 0.015451
5610.0 0.014951
5630.0 0.014764
5650.0 0.014656
5670.0 0.014041
5690.0 0.012466
5710.0 0.010512
5730.0 0.0093565
5750.0 0.0089255
5770.0 0.0090379
5790.0 0.0091814
5810.0 0.0092915
5830.0 0.0092296
5850.0 0.0086982
5870.0 0.0081247
5890.0 0.0078545
5910.0 0.0079696
5930.0 0.0080175
5950.0 0.0073618
5970.0 0.0063047
5990.0 0.0050402
6010.0 0.0040537
6030.0 0.0037915
6050.0 0.0041255
6070.0 0.0043609
6090.0 0.0041043
6110.0 0.003643
6130.0 0.0037544
6150.0 0.0043517
6170.0 0.0049437
6190.0 0.0053546
6210.0 0.0054479
6230.0 0.0053758
6250.0 0.0048967
6270.0 0.0040763
6290.0 0.0033653
6310.0 0.0030145
6330.0 0.0029701
6350.0 0.0030212
6370.0 0.0031011
6390.0 0.0035448
6410.0 0.0044164
6430.0 0.0053403
6450.0 0.0058748
6470.0 0.0060367
6490.0 0.0060432
6510.0 0.0061439
6530.0 0.0062808
6550.0 0.0062853
6570.0 0.006511
6590.0 0.0066945
6610.0 0.0067791
6630.0 0.0065943
6650.0 0.0061157
6670.0 0.0055857
6690.0 0.0051464
6710.0 0.004901
6730.0 0.0047856
6750.0 0.0048059
6770.0 0.0049366
6790.0 0.005116
6810.0 0.0052296
6830.0 0.0051377
6850.0 0.0048714
6870.0 0.0045652
6890.0 0.0044605
6910.0 0.0043777
6930.0 0.0045284
6950.0 0.0047528
6970.0 0.0048727
6990.0 0.0049414
7010.0 0.0047867
7030.0 0.0043971
7050.0 0.0039014
7070.0 0.0035291
7090.0 0.0033685
7110.0 0.0033562
7130.0 0.0032229
7150.0 0.0028586
7170.0 0.0027326
7190.0 0.003026
7210.0 0.0035251
7230.0 0.0040313
7250.0 0.0042301
7270.0 0.0041543
7290.0 0.0038475
7310.0 0.003576
7330.0 0.003467
7350.0 0.0034904
7370.0 0.0035506
7390.0 0.0037279
7410.0 0.0041403
7430.0 0.0047476
7450.0 0.0053034
7470.0 0.0055403
7490.0 0.0053543
7510.0 0.0050018
7530.0 0.0045377
7550.0 0.0042375
7570.0 0.003891
7590.0 0.0037397
7610.0 0.0038589
7630.0 0.0041784
7650.0 0.0046443
7670.0 0.0051525
7690.0 0.0055629
7710.0 0.0059591
7730.0 0.0063527
7750.0 0.0066946
7770.0 0.0067324
7790.0 0.0068554
7810.0 0.0070034
7830.0 0.006969
7850.0 0.0067954
7870.0 0.0066767
7890.0 0.0068093
7910.0 0.00676
7930.0 0.0066978
7950.0 0.006423
7970.0 0.0062683
7990.0 0.0060769
8010.0 0.0061083
8030.0 0.0061985
8050.0 0.0062718
8070.0 0.0062401
8090.0 0.0062372
8110.0 0.0060867
8130.0 0.0061265
8150.0 0.0061011
8170.0 0.0059947
8190.0 0.0058939
8210.0 0.0058729
8230.0 0.0057722
8250.0 0.0057219
8270.0 0.0052727
8290.0 0.0043851
8310.0 0.003374
8330.0 0.002679
8350.0 0.0025418
8370.0 0.0030189
8390.0 0.0036465
8410.0 0.00394
8430.0 0.0040547
8450.0 0.0043018
8470.0 0.0046568
8490.0 0.0052424
8510.0 0.0059934
8530.0 0.0068605
8550.0 0.0076401
8570.0 0.008273
8590.0 0.0087664
8610.0 0.009052
8630.0 0.0090759
8650.0 0.0090046
8670.0 0.0090495
8690.0 0.0095733
8710.0 0.010273
8730.0 0.010726
8750.0 0.010734
8770.0 0.010935
8790.0 0.010958
8810.0 0.010371
8830.0 0.0097602
8850.0 0.0089448
8870.0 0.0082955
8890.0 0.0081177
8910.0 0.0081322
8930.0 0.0076976
8950.0 0.0071798
8970.0 0.0069768
8990.0 0.0069622
9010.0 0.0067296
9030.0 0.0065813
9050.0 0.0065226
9070.0 0.0064953
9090.0 0.0064718
9110.0 0.0064493
9130.0 0.0064267
9150.0 0.0064046
9170.0 0.0063804
9190.0 0.0063632
9210.0 0.0063664
9230.0 0.0063343
9250.0 0.0063072
9270.0 0.0062831
9290.0 0.0062612
9310.0 0.0062398
9330.0 0.0062193
9350.0 0.0062003
9370.0 0.0061814
9390.0 0.0061622
9410.0 0.0061438
9430.0 0.0061247
9450.0 0.0060971
9470.0 0.0060727
9490.0 0.0060636
9510.0 0.0060501
9530.0 0.0060355
9550.0 0.0060202
9570.0 0.0060043
9590.0 0.0059882
9610.0 0.0059721
9630.0 0.0059559
9650.0 0.0059399
9670.0 0.005924
9690.0 0.0059081
9710.0 0.0058923
9730.0 0.0058767
9750.0 0.0058611
9770.0 0.0058455
9790.0 0.00583
9810.0 0.0058145
9830.0 0.005799
9850.0 0.0057835
9870.0 0.005768
9890.0 0.0057524
9910.0 0.0057367
9930.0 0.0057204
9950.0 0.0056647
9970.0 0.0056605
9990.0 0.005654
10010.0 0.0056463
10030.0 0.0056351
10050.0 0.0056208
10070.0 0.0056061
10090.0 0.0055914
10110.0 0.0055735
10130.0 0.0055554
10150.0 0.0055388
10170.0 0.0055212
10190.0 0.0055015
10210.0 0.0054836
10230.0 0.0054659
10250.0 0.0054461
10270.0 0.0054262
10290.0 0.0054076
10310.0 0.005387
10330.0 0.0053646
10350.0 0.0053439
10370.0 0.005323
10390.0 0.0052999
10410.0 0.0052767
10430.0 0.0052552
10450.0 0.0052314
10470.0 0.0052062
10490.0 0.0051821
10510.0 0.0051578
10530.0 0.0051299
10550.0 0.0051029
10570.0 0.0050772
10590.0 0.0050492
10610.0 0.0050198
10630.0 0.0049919
10650.0 0.0049632
10670.0 0.0049313
10690.0 0.0049001
10710.0 0.0048696
10730.0 0.0048367
10750.0 0.0048016
10770.0 0.0047691
10790.0 0.0047354
10810.0 0.004699
10830.0 0.0046631
10850.0 0.0046282
10870.0 0.0045892
10890.0 0.0045494
10910.0 0.0045108
10930.0 0.0044705
10950.0 0.0044267
10970.0 0.0043828
10990.0 0.0043395
11010.0 0.0046519
11030.0 0.0046009
11050.0 0.0045512
11070.0 0.0045003
11090.0 0.0044459
11110.0 0.0043955
11130.0 0.0043467
11150.0 0.0042965
11170.0 0.0042469
11190.0 0.0042007
11210.0 0.0041534
11230.0 0.004105
11250.0 0.0040588
11270.0 0.0040137
11290.0 0.0039667
11310.0 0.0039198
11330.0 0.0038762
11350.0 0.0038311
11370.0 0.0037847
11390.0 0.0037392
11410.0 0.0036936
11430.0 0.0036436
11450.0 0.0035928
11470.0 0.0035413
11490.0 0.0034861
11510.0 0.0034261
11530.0 0.0033659
11550.0 0.0033035
11570.0 0.0032359
11590.0 0.0031665
11610.0 0.0030976
11630.0 0.0030248
11650.0 0.0029492
11670.0 0.0028768
11690.0 0.0028046
11710.0 0.0027309
11730.0 0.0026591
11750.0 0.0025917
11770.0 0.0025235
11790.0 0.0024565
11810.0 0.0023936
11830.0 0.0023329
11850.0 0.0022713
11870.0 0.0022136
11890.0 0.0021595
11910.0 0.0021056
11930.0 0.002053
11950.0 0.002004
11970.0 0.0019564
11990.0 0.0019087
12010.0 0.0018641
12030.0 0.0018222
12050.0 0.0017813
12070.0 0.001742
12090.0 0.0017071
12110.0 0.0016744
12130.0 0.0016437
12150.0 0.0016168
12170.0 0.0015935
12190.0 0.0015727
12210.0 0.0015558
12230.0 0.0015429
12250.0 0.0015334
12270.0 0.0015278
12290.0 0.0015257
12310.0 0.0015268
12330.0 0.0015316
12350.0 0.0015395
12370.0 0.0015496
12390.0 0.0015625
12410.0 0.0015788
12430.0 0.0015958
12450.0 0.0016141
12470.0 0.0016344
12490.0 0.0016555
12510.0 0.0016758
12530.0 0.0016968
12550.0 0.001718
12570.0 0.0017372
12590.0 0.0017545
12610.0 0.0017707
12630.0 0.001784
12650.0 0.0017931
12670.0 0.0017993
12690.0 0.0018019
12710.0 0.0018
12730.0 0.0017942
12750.0 0.0017842
12770.0 0.0017702
12790.0 0.0017528
12810.0 0.0017319
12830.0 0.0017078
12850.0 0.0016821
12870.0 0.0016549
12890.0 0.0016258
12910.0 0.0015964
12930.0 0.0015675
12950.0 0.001538
12970.0 0.0015087
12990.0 0.0014812
13010.0 0.0014546
13030.0 0.0014283
13050.0 0.0014034
13070.0 0.0013799
13090.0 0.0013567
13110.0 0.0013341
13130.0 0.0013126
13150.0 0.0012916
13170.0 0.0012704
13190.0 0.0012501
13210.0 0.0012307
13230.0 0.0012112
13250.0 0.0011921
13270.0 0.0011741
13290.0 0.0011567
13310.0 0.0011397
13330.0 0.0011242
13350.0 0.00111
13370.0 0.0010969
13390.0 0.0010852
13410.0 0.0010754
13430.0 0.0010668
13450.0 0.0010594
13470.0 0.0010532
13490.0 0.0010478
13510.0 0.0010429
13530.0 0.0010383
13550.0 0.0010335
13570.0 0.0010282
13590.0 0.0010221
13610.0 0.0010152
13630.0 0.0010075
13650.0 0.00099844
13670.0 0.00098842
13690.0 0.0009778
13710.0 0.00096639
13730.0 0.00095405
13750.0 0.00094205
13770.0 0.00093018
13790.0 0.0009183
13810.0 0.00090698
13830.0 0.00089667
13850.0 0.00088685
13870.0 0.00087774
13890.0 0.00086972
13910.0 0.00086254
13930.0 0.0008559
13950.0 0.00084995
13970.0 0.0008447
13990.0 0.00083969
14010.0 0.00083484
14030.0 0.00083018
14050.0 0.00082548
14070.0 0.00082039
14090.0 0.00081508
14110.0 0.00080952
14130.0 0.00080342
14150.0 0.00079671
14170.0 0.00078983
14190.0 0.00078258
14210.0 0.00077477
14230.0 0.00076687
14250.0 0.00075913
14270.0 0.00075116
14290.0 0.00074331
14310.0 0.00073623
14330.0 0.00072963
14350.0 0.00072352
14370.0 0.00071828
14390.0 0.000714
14410.0 0.00071036
14430.0 0.00070755
14450.0 0.0007056
14470.0 0.00070432
14490.0 0.00070362
14510.0 0.0007035
14530.0 0.00070382
14550.0 0.00070456
14570.0 0.0007057
14590.0 0.00070722
14610.0 0.0007092
14630.0 0.0007118
14650.0 0.00071499
14670.0 0.00071883
14690.0 0.00072363
14710.0 0.00072947
14730.0 0.000736
14750.0 0.00074367
14770.0 0.00075268
14790.0 0.00076266
14810.0 0.00077357
14830.0 0.00078645
14850.0 0.00080053
14870.0 0.0008154
14890.0 0.00083166
14910.0 0.00084927
14930.0 0.00086675
14950.0 0.00088371
14970.0 0.00090042
14990.0 0.00091531
15010.0 0.00092771
15030.0 0.00093798
15050.0 0.00094616
15070.0 0.00095199
15090.0 0.00095641
15110.0 0.00095989
15130.0 0.00096272
15150.0 0.00096523
15170.0 0.0009676
15190.0 0.00096993
15210.0 0.00097228
15230.0 0.00097466
15250.0 0.00097708
15270.0 0.00097954
15290.0 0.00098207
15310.0 0.00098463
15330.0 0.00098723
15350.0 0.00098989
15370.0 0.00099259
15390.0 0.00099532
15410.0 0.0009981
15430.0 0.0010009
15450.0 0.0010038
15470.0 0.0010067
15490.0 0.0010096
15510.0 0.0010126
15530.0 0.0010156
15550.0 0.0010187
15570.0 0.0010218
15590.0 0.0010249
15610.0 0.001028
15630.0 0.0010312
15650.0 0.0010344
15670.0 0.0010376
15690.0 0.0010409
15710.0 0.0010442
15730.0 0.0010475
15750.0 0.0010509
15770.0 0.0010543
15790.0 0.0010576
15810.0 0.001061
15830.0 0.0010645
15850.0 0.0010679
15870.0 0.0010714
15890.0 0.0010749
15910.0 0.0010784
15930.0 0.0010819
15950.0 0.0010854
15970.0 0.001089
15990.0 0.0010925
16010.0 0.0010961
16030.0 0.0010996
16050.0 0.0011032
16070.0 0.0011068
16090.0 0.0011104
16110.0 0.001114
16130.0 0.0011176
16150.0 0.0011211
16170.0 0.0011247
16190.0 0.0011283
16210.0 0.0011319
16230.0 0.0011354
16250.0 0.001139
16270.0 0.0011425
16290.0 0.0011461
16310.0 0.0011496
16330.0 0.0011531
16350.0 0.0011566
16370.0 0.0011601
16390.0 0.0011635
16410.0 0.001167
16430.0 0.0011704
16450.0 0.0011738
16470.0 0.0011771
16490.0 0.0011805
16510.0 0.0011838
16530.0 0.0011871
16550.0 0.0011903
16570.0 0.0011935
16590.0 0.0011967
16610.0 0.0011999
16630.0 0.001203
16650.0 0.0012061
16670.0 0.0012091
16690.0 0.0012121
16710.0 0.0012151
16730.0 0.001218
16750.0 0.0012208
16770.0 0.0012236
16790.0 0.0012264
16810.0 0.0012291
16830.0 0.0012318
16850.0 0.0012344
16870.0 0.0012369
16890.0 0.0012394
16910.0 0.0012419
16930.0 0.0012442
16950.0 0.0012466
16970.0 0.0012488
16990.0 0.001251
17010.0 0.0012531
17030.0 0.0012552
17050.0 0.0012572
17070.0 0.0012591
17090.0 0.001261
17110.0 0.0012628
17130.0 0.0012645
17150.0 0.0012661
17170.0 0.0012677
17190.0 0.0012692
17210.0 0.0012706
17230.0 0.001272
17250.0 0.0012732
17270.0 0.0012744
17290.0 0.0012755
17310.0 0.0012765
17330.0 0.0012775
17350.0 0.0012783
17370.0 0.0012791
17390.0 0.0012798
17410.0 0.0012804
17430.0 0.001281
17450.0 0.0012814
17470.0 0.0012818
17490.0 0.001282
17510.0 0.0012822
17530.0 0.0012823
17550.0 0.0012823
17570.0 0.0012823
17590.0 0.0012821
17610.0 0.0012818
17630.0 0.0012815
17650.0 0.0012811
17670.0 0.0012806
17690.0 0.0012799
17710.0 0.0012792
17730.0 0.0012785
17750.0 0.0012776
17770.0 0.0012766
17790.0 0.0012756
17810.0 0.0012744
17830.0 0.0012732
17850.0 0.0012719
17870.0 0.0012705
17890.0 0.001269
17910.0 0.0012674
17930.0 0.0012658
17950.0 0.001264
17970.0 0.0012622
17990.0 0.0012602
18010.0 0.0012582
18030.0 0.0012561
18050.0 0.001254
18070.0 0.0012517
18090.0 0.0012494
18110.0 0.0012469
18130.0 0.0012444
18150.0 0.0012419
18170.0 0.0012392
18190.0 0.0012365
18210.0 0.0012337
18230.0 0.0012308
18250.0 0.0012278
18270.0 0.0012248
18290.0 0.0012216
18310.0 0.0012184
18330.0 0.0012152
18350.0 0.0012119
18370.0 0.0012085
18390.0 0.001205
18410.0 0.0012015
18430.0 0.0011979
18450.0 0.0011942
18470.0 0.0011905
18490.0 0.0011867
18510.0 0.0011828
18530.0 0.0011789
18550.0 0.001175
18570.0 0.001171
18590.0 0.0011669
18610.0 0.0011627
18630.0 0.0011586
18650.0 0.0011543
18670.0 0.00115
18690.0 0.0011457
18710.0 0.0011413
18730.0 0.0011369
18750.0 0.0011324
18770.0 0.0011279
18790.0 0.0011233
18810.0 0.0011187
18830.0 0.0011141
18850.0 0.0011094
18870.0 0.0011046
18890.0 0.0010999
18910.0 0.0010951
18930.0 0.0010903
18950.0 0.0010854
18970.0 0.0010806
18990.0 0.0010756
19010.0 0.0010707
19030.0 0.0010657
19050.0 0.0010608
19070.0 0.0010557
19090.0 0.0010507
19110.0 0.0010457
19130.0 0.0010406
19150.0 0.0010355
19170.0 0.0010304
19190.0 0.0010253
19210.0 0.0010201
19230.0 0.0010149
19250.0 0.0010098
19270.0 0.0010046
19290.0 0.00099943
19310.0 0.00099424
19330.0 0.00098904
19350.0 0.00098383
19370.0 0.00097862
19390.0 0.00097341
19410.0 0.00096819
19430.0 0.00096296
19450.0 0.00095775
19470.0 0.00095253
19490.0 0.00094731
19510.0 0.0009421
19530.0 0.00093689
19550.0 0.00093168
19570.0 0.00092647
19590.0 0.00092129
19610.0 0.0009161
19630.0 0.00091092
19650.0 0.00090575
19670.0 0.0009006
19690.0 0.00089544
19710.0 0.0008903
19730.0 0.00088518
19750.0 0.00088007
19770.0 0.00087497
19790.0 0.00086989
19810.0 0.00086482
19830.0 0.00085974
19850.0 0.00085464
19870.0 0.00084949
19890.0 0.00084418
19910.0 0.00083855
19930.0 0.00083245
19950.0 0.00082562
19970.0 0.00081765
19990.0 0.00080832
20010.0 0.00079781
20030.0 0.00078565
20050.0 0.00077192
20070.0 0.00075737
20090.0 0.00074215
20110.0 0.00072573
20130.0 0.00070949
20150.0 0.00069372
20170.0 0.00067788
20190.0 0.00066222
20210.0 0.00064751
20230.0 0.00063328
20250.0 0.00061919
20270.0 0.00060592
20290.0 0.0005935
20310.0 0.00058143
20330.0 0.00056972
20350.0 0.00055917
20370.0 0.00054909
20390.0 0.00053939
20410.0 0.00053039
20430.0 0.0005221
20450.0 0.00051405
20470.0 0.00050655
20490.0 0.00049971
20510.0 0.0004933
20530.0 0.00048724
20550.0 0.00048172
20570.0 0.00047669
20590.0 0.00047196
20610.0 0.00046761
20630.0 0.00046367
20650.0 0.00046001
20670.0 0.00045662
20690.0 0.00045352
20710.0 0.00045065
20730.0 0.00044796
20750.0 0.00044544
20770.0 0.00044302
20790.0 0.0004407
20810.0 0.00043843
20830.0 0.00043619
20850.0 0.00043393
20870.0 0.00043165
20890.0 0.0004293
20910.0 0.00042687
20930.0 0.00042435
20950.0 0.0004217
20970.0 0.00041893
20990.0 0.00041604
21010.0 0.00041297
21030.0 0.00040976
21050.0 0.00040645
21070.0 0.00040298
21090.0 0.00039932
21110.0 0.00039561
21130.0 0.00039181
21150.0 0.00038785
21170.0 0.00038382
21190.0 0.00037979
21210.0 0.00037563
21230.0 0.00037137
21250.0 0.00036718
21270.0 0.00036299
21290.0 0.00035872
21310.0 0.00035448
21330.0 0.0003504
21350.0 0.00034627
21370.0 0.00034219
21390.0 0.00033827
21410.0 0.00033446
21430.0 0.00033065
21450.0 0.00032706
21470.0 0.00032368
21490.0 0.00032041
21510.0 0.00031732
21530.0 0.00031449
21550.0 0.00031185
21570.0 0.00030938
21590.0 0.00030716
21610.0 0.00030517
21630.0 0.00030338
21650.0 0.00030181
21670.0 0.00030045
21690.0 0.00029928
21710.0 0.0002983
21730.0 0.00029747
21750.0 0.00029677
21770.0 0.00029623
21790.0 0.0002958
21810.0 0.00029542
21830.0 0.0002951
21850.0 0.00029486
21870.0 0.00029461
21890.0 0.00029432
21910.0 0.00029405
21930.0 0.00029374
21950.0 0.00029334
21970.0 0.00029289
21990.0 0.00029239
22010.0 0.00029178
22030.0 0.00029107
22050.0 0.0002903
22070.0 0.00028943
22090.0 0.00028848
22110.0 0.00028745
22130.0 0.00028635
22150.0 0.00028518
22170.0 0.00028396
22190.0 0.00028267
22210.0 0.00028133
22230.0 0.00027996
22250.0 0.00027854
22270.0 0.00027705
22290.0 0.00027553
22310.0 0.00027395
22330.0 0.00027228
22350.0 0.00027053
22370.0 0.00026871
22390.0 0.00026677
22410.0 0.00026467
22430.0 0.00026249
22450.0 0.00026017
22470.0 0.00025765
22490.0 0.00025498
22510.0 0.00025221
22530.0 0.00024921
22550.0 0.00024599
22570.0 0.00024273
22590.0 0.00023935
22610.0 0.00023576
22630.0 0.00023212
22650.0 0.00022854
22670.0 0.00022483
22690.0 0.00022108
22710.0 0.00021746
22730.0 0.0002139
22750.0 0.00021026
22770.0 0.00020685
22790.0 0.00020364
22810.0 0.0002005
22830.0 0.00019749
22850.0 0.00019475
22870.0 0.00019216
22890.0 0.00018966
22910.0 0.00018739
22930.0 0.00018531
22950.0 0.00018334
22970.0 0.00018148
22990.0 0.00017983
23010.0 0.00017825
23030.0 0.00017674
23050.0 0.00017532
23070.0 0.00017398
23090.0 0.00017262
23110.0 0.00017129
23130.0 0.00017
23150.0 0.00016869
23170.0 0.00016734
23190.0 0.000166
23210.0 0.00016466
23230.0 0.00016328
23250.0 0.0001619
23270.0 0.00016056
23290.0 0.00015921
23310.0 0.00015785
23330.0 0.00015657
23350.0 0.00015535
23370.0 0.00015414
23390.0 0.000153
23410.0 0.00015194
23430.0 0.00015091
