#lamb flux
1010.0 6.1053e-07
1030.0 6.85e-07
1050.0 7.7066e-07
1070.0 8.6709e-07
1090.0 9.7662e-07
1110.0 1.089e-06
1130.0 1.202e-06
1150.0 1.3205e-06
1170.0 1.4426e-06
1190.0 1.5585e-06
1210.0 1.6759e-06
1230.0 1.7972e-06
1250.0 1.9161e-06
1270.0 2.0315e-06
1290.0 2.1535e-06
1310.0 2.2754e-06
1330.0 2.3923e-06
1350.0 2.5105e-06
1370.0 2.6325e-06
1390.0 2.7515e-06
1410.0 2.8669e-06
1430.0 2.9876e-06
1450.0 3.1082e-06
1470.0 3.2248e-06
1490.0 3.3426e-06
1510.0 3.467e-06
1530.0 3.5848e-06
1550.0 3.7011e-06
1570.0 3.8212e-06
1590.0 3.9415e-06
1610.0 4.0563e-06
1630.0 4.1746e-06
1650.0 4.2959e-06
1670.0 4.4131e-06
1690.0 4.5286e-06
1710.0 4.6485e-06
1730.0 4.7689e-06
1750.0 4.8817e-06
1770.0 4.9977e-06
1790.0 5.1157e-06
1810.0 5.2294e-06
1830.0 5.3407e-06
1850.0 5.4586e-06
1870.0 5.5726e-06
1890.0 5.6821e-06
1910.0 5.793e-06
1930.0 5.9059e-06
1950.0 6.0124e-06
1970.0 6.1164e-06
1990.0 6.2234e-06
2010.0 6.3271e-06
2030.0 6.4251e-06
2050.0 6.5248e-06
2070.0 6.6254e-06
2090.0 6.7172e-06
2110.0 6.8065e-06
2130.0 6.8966e-06
2150.0 6.9818e-06
2170.0 7.0593e-06
2190.0 7.1377e-06
2210.0 7.2135e-06
2230.0 7.2813e-06
2250.0 7.3449e-06
2270.0 7.4094e-06
2290.0 7.4662e-06
2310.0 7.5144e-06
2330.0 7.5616e-06
2350.0 7.6057e-06
2370.0 7.6421e-06
2390.0 7.6774e-06
2410.0 7.7185e-06
2430.0 7.7601e-06
2450.0 7.8068e-06
2470.0 7.8706e-06
2490.0 7.9559e-06
2510.0 8.0544e-06
2530.0 8.1915e-06
2550.0 8.4019e-06
2570.0 8.716e-06
2590.0 9.184e-06
2610.0 9.9528e-06
2630.0 1.107e-05
2650.0 1.2491e-05
2670.0 1.425e-05
2690.0 1.6291e-05
2710.0 1.8313e-05
2730.0 2.0149e-05
2750.0 2.1807e-05
2770.0 2.3086e-05
2790.0 2.3944e-05
2810.0 2.4494e-05
2830.0 2.4807e-05
2850.0 2.4884e-05
2870.0 2.4837e-05
2890.0 2.4727e-05
2910.0 2.4571e-05
2930.0 2.4382e-05
2950.0 2.4195e-05
2970.0 2.4012e-05
2990.0 2.3825e-05
3010.0 0.00061733
3030.0 0.00061267
3050.0 0.00060808
3070.0 0.00060312
3090.0 0.00059796
3110.0 0.000592
3130.0 0.00058453
3150.0 0.00057514
3170.0 0.00056301
3190.0 0.00054841
3210.0 0.00053238
3230.0 0.00051581
3250.0 0.00050048
3270.0 0.0004895
3290.0 0.00048328
3310.0 0.00048382
3330.0 0.00049047
3350.0 0.00050233
3370.0 0.00051955
3390.0 0.00054149
3410.0 0.00056559
3430.0 0.00059293
3450.0 0.00062459
3470.0 0.00065927
3490.0 0.00069616
3510.0 0.00073781
3530.0 0.00078271
3550.0 0.00082926
3570.0 0.00087939
3590.0 0.0009358
3610.0 0.0009967
3630.0 0.0010598
3650.0 0.0011265
3670.0 0.0011884
3690.0 0.001236
3710.0 0.0012631
3730.0 0.0012592
3750.0 0.0012234
3770.0 0.0011722
3790.0 0.0010873
3810.0 0.00093342
3830.0 0.00083736
3850.0 0.0008247
3870.0 0.00062618
3890.0 0.00073052
3910.0 0.0010808
3930.0 0.0013512
3950.0 0.0013869
3970.0 0.001525
3990.0 0.0015538
4010.0 0.0021522
4030.0 0.0020716
4050.0 0.0018345
4070.0 0.0018139
4090.0 0.0017339
4110.0 0.0019694
4130.0 0.0022112
4150.0 0.0024427
4170.0 0.0022418
4190.0 0.0021594
4210.0 0.0022297
4230.0 0.0026094
4250.0 0.0029252
4270.0 0.0030556
4290.0 0.002967
4310.0 0.0028997
4330.0 0.0030947
4350.0 0.0037368
4370.0 0.0043463
4390.0 0.0038494
4410.0 0.0028049
4430.0 0.0022574
4450.0 0.0019703
4470.0 0.0017847
4490.0 0.0021656
4510.0 0.0029159
4530.0 0.0033524
4550.0 0.0036387
4570.0 0.0039269
4590.0 0.0045892
4610.0 0.0067756
4630.0 0.0087116
4650.0 0.008614
4670.0 0.0079747
4690.0 0.0084791
4710.0 0.0090175
4730.0 0.007479
4750.0 0.0050751
4770.0 0.003956
4790.0 0.0040329
4810.0 0.0038825
4830.0 0.0037158
4850.0 0.0041776
4870.0 0.0054799
4890.0 0.0063822
4910.0 0.0051898
4930.0 0.0046839
4950.0 0.00528
4970.0 0.0071281
4990.0 0.009446
5010.0 0.010402
5030.0 0.0084444
5050.0 0.0052305
5070.0 0.0036288
5090.0 0.003089
5110.0 0.0031286
5130.0 0.003466
5150.0 0.0035315
5170.0 0.0034683
5190.0 0.0033137
5210.0 0.0033057
5230.0 0.0036176
5250.0 0.0039916
5270.0 0.0042414
5290.0 0.0048182
5310.0 0.0056901
5330.0 0.0058758
5350.0 0.0058413
5370.0 0.0064462
5390.0 0.0073947
5410.0 0.0068529
5430.0 0.0056069
5450.0 0.0052831
5470.0 0.0060025
5490.0 0.007692
5510.0 0.0097664
5530.0 0.011062
5550.0 0.010404
5570.0 0.0093342
5590.0 0.00806
5610.0 0.0076961
5630.0 0.0077479
5650.0 0.0076672
5670.0 0.0073363
5690.0 0.0064617
5710.0 0.0062983
5730.0 0.0059075
5750.0 0.0037491
5770.0 0.0030935
5790.0 0.003597
5810.0 0.0042394
5830.0 0.0053075
5850.0 0.0062054
5870.0 0.0064656
5890.0 0.0061986
5910.0 0.0059457
5930.0 0.0058924
5950.0 0.0061461
5970.0 0.0069735
5990.0 0.0062785
6010.0 0.0051022
6030.0 0.0042018
6050.0 0.0036604
6070.0 0.003878
6090.0 0.0044099
6110.0 0.0047465
6130.0 0.004479
6150.0 0.0038931
6170.0 0.0038943
6190.0 0.0047562
6210.0 0.0062663
6230.0 0.0078492
6250.0 0.0080376
6270.0 0.0068047
6290.0 0.0056856
6310.0 0.0044514
6330.0 0.003432
6350.0 0.0031511
6370.0 0.0033578
6390.0 0.0040257
6410.0 0.0048286
6430.0 0.005682
6450.0 0.0067597
6470.0 0.0078406
6490.0 0.0096301
6510.0 0.010764
6530.0 0.010253
6550.0 0.0093937
6570.0 0.0086058
6590.0 0.0083101
6610.0 0.0071912
6630.0 0.0067778
6650.0 0.0062975
6670.0 0.0062184
6690.0 0.0057629
6710.0 0.0052497
6730.0 0.0040996
6750.0 0.0039466
6770.0 0.0043222
6790.0 0.0051433
6810.0 0.0046837
6830.0 0.0048133
6850.0 0.0045298
6870.0 0.004322
6890.0 0.0040798
6910.0 0.0041584
6930.0 0.0038838
6950.0 0.0041682
6970.0 0.0042096
6990.0 0.0046986
7010.0 0.0049184
7030.0 0.004783
7050.0 0.0043817
7070.0 0.00413
7090.0 0.0039733
7110.0 0.0038385
7130.0 0.0040639
7150.0 0.004423
7170.0 0.0047908
7190.0 0.0048961
7210.0 0.0046178
7230.0 0.0047245
7250.0 0.0053116
7270.0 0.0061015
7290.0 0.0068939
7310.0 0.006876
7330.0 0.0061614
7350.0 0.0054965
7370.0 0.004817
7390.0 0.0049202
7410.0 0.005462
7430.0 0.006034
7450.0 0.0065164
7470.0 0.006767
7490.0 0.0070321
7510.0 0.0082491
7530.0 0.0075816
7550.0 0.0065135
7570.0 0.0048873
7590.0 0.0032205
7610.0 0.0027596
7630.0 0.0031427
7650.0 0.003734
7670.0 0.0046607
7690.0 0.0052852
7710.0 0.0054073
7730.0 0.0054851
7750.0 0.0060366
7770.0 0.0060469
7790.0 0.0057436
7810.0 0.0054671
7830.0 0.0054688
7850.0 0.0052054
7870.0 0.0048205
7890.0 0.004172
7910.0 0.0033521
7930.0 0.0030253
7950.0 0.0027295
7970.0 0.002574
7990.0 0.0025739
8010.0 0.002668
8030.0 0.002642
8050.0 0.0026921
8070.0 0.002693
8090.0 0.002834
8110.0 0.0026653
8130.0 0.0022023
8150.0 0.0020824
8170.0 0.0018152
8190.0 0.0017314
8210.0 0.0020036
8230.0 0.002182
8250.0 0.0018615
8270.0 0.0016471
8290.0 0.0014613
8310.0 0.0010356
8330.0 0.00066477
8350.0 0.0004946
8370.0 0.00045453
8390.0 0.00059963
8410.0 0.00075345
8430.0 0.00092656
8450.0 0.0010281
8470.0 0.0012176
8490.0 0.0011551
8510.0 0.0011175
8530.0 0.0010827
8550.0 0.0014718
8570.0 0.0018977
8590.0 0.0019973
8610.0 0.0024926
8630.0 0.0028591
8650.0 0.0027756
8670.0 0.0029319
8690.0 0.0031158
8710.0 0.002879
8730.0 0.002818
8750.0 0.0025332
8770.0 0.002406
8790.0 0.0024358
8810.0 0.0023737
8830.0 0.00187
8850.0 0.0014519
8870.0 0.001192
8890.0 0.0012818
8910.0 0.0014818
8930.0 0.0016499
8950.0 0.0018686
8970.0 0.0018794
8990.0 0.0017577
9010.0 0.001569
9030.0 0.0015103
9050.0 0.0015326
9070.0 0.0015514
9090.0 0.0015657
9110.0 0.0015802
9130.0 0.0015918
9150.0 0.0016016
9170.0 0.001612
9190.0 0.0016231
9210.0 0.0016347
9230.0 0.001647
9250.0 0.0016599
9270.0 0.0016732
9290.0 0.001687
9310.0 0.0017013
9330.0 0.001716
9350.0 0.0017311
9370.0 0.0017467
9390.0 0.0017627
9410.0 0.0017792
9430.0 0.0017961
9450.0 0.0018134
9470.0 0.0018311
9490.0 0.0018493
9510.0 0.0018678
9530.0 0.0018868
9550.0 0.0019062
9570.0 0.0019259
9590.0 0.0019461
9610.0 0.0019666
9630.0 0.0019875
9650.0 0.0020088
9670.0 0.0020304
9690.0 0.0020524
9710.0 0.0020747
9730.0 0.0020974
9750.0 0.0021203
9770.0 0.0021436
9790.0 0.0021672
9810.0 0.002191
9830.0 0.0022152
9850.0 0.0022396
9870.0 0.0022642
9890.0 0.0022891
9910.0 0.0023142
9930.0 0.0023395
9950.0 0.002365
9970.0 0.0023907
9990.0 0.0024165
10010.0 0.0022973
10030.0 0.0023213
10050.0 0.0023452
10070.0 0.0023692
10090.0 0.0023935
10110.0 0.0024177
10130.0 0.002442
10150.0 0.0024663
10170.0 0.0024905
10190.0 0.0025147
10210.0 0.0025389
10230.0 0.002563
10250.0 0.002587
10270.0 0.0026109
10290.0 0.0026347
10310.0 0.0026583
10330.0 0.0026816
10350.0 0.0027049
10370.0 0.002728
10390.0 0.0027508
10410.0 0.0027733
10430.0 0.0027957
10450.0 0.0028177
10470.0 0.0028393
10490.0 0.0028607
10510.0 0.0028818
10530.0 0.0029024
10550.0 0.0029226
10570.0 0.0029425
10590.0 0.002962
10610.0 0.0029809
10630.0 0.0029995
10650.0 0.0030176
10670.0 0.0030352
10690.0 0.0030522
10710.0 0.0030689
10730.0 0.0030849
10750.0 0.0031002
10770.0 0.0031152
10790.0 0.0031296
10810.0 0.0031432
10830.0 0.0031562
10850.0 0.0031685
10870.0 0.0031792
10890.0 0.0031881
10910.0 0.0031943
10930.0 0.0031961
10950.0 0.0031908
10970.0 0.0031771
10990.0 0.0031541
11010.0 0.0031047
11030.0 0.0030564
11050.0 0.0029983
11070.0 0.0029288
11090.0 0.002845
11110.0 0.0027583
11130.0 0.0026676
11150.0 0.0025699
11170.0 0.0024693
11190.0 0.0023724
11210.0 0.0022732
11230.0 0.0021726
11250.0 0.002078
11270.0 0.0019885
11290.0 0.0019003
11310.0 0.0018183
11330.0 0.0017471
11350.0 0.0016808
11370.0 0.00162
11390.0 0.0015677
11410.0 0.0015218
11430.0 0.0014784
11450.0 0.0014401
11470.0 0.0014056
11490.0 0.0013719
11510.0 0.0013378
11530.0 0.0013045
11550.0 0.0012703
11570.0 0.001233
11590.0 0.0011941
11610.0 0.0011544
11630.0 0.0011115
11650.0 0.0010662
11670.0 0.0010221
11690.0 0.00097798
11710.0 0.00093323
11730.0 0.00089047
11750.0 0.00085132
11770.0 0.00081338
11790.0 0.00077814
11810.0 0.00074723
11830.0 0.00071959
11850.0 0.00069406
11870.0 0.00067236
11890.0 0.00065385
11910.0 0.00063703
11930.0 0.00062182
11950.0 0.00060831
11970.0 0.0005954
11990.0 0.00058239
12010.0 0.0005696
12030.0 0.00055675
12050.0 0.00054313
12070.0 0.00052878
12090.0 0.00051478
12110.0 0.00050047
12130.0 0.00048596
12150.0 0.00047222
12170.0 0.00045966
12190.0 0.00044781
12210.0 0.00043784
12230.0 0.0004302
12250.0 0.00042482
12270.0 0.00042205
12290.0 0.00042209
12310.0 0.00042467
12330.0 0.00043019
12350.0 0.00043835
12370.0 0.00044841
12390.0 0.00046059
12410.0 0.00047536
12430.0 0.00049043
12450.0 0.00050603
12470.0 0.00052256
12490.0 0.00053892
12510.0 0.00055386
12530.0 0.00056838
12550.0 0.00058195
12570.0 0.00059329
12590.0 0.00060262
12610.0 0.00061033
12630.0 0.00061564
12650.0 0.00061825
12670.0 0.00061881
12690.0 0.00061714
12710.0 0.0006133
12730.0 0.00060758
12750.0 0.00059986
12770.0 0.00059054
12790.0 0.00058003
12810.0 0.00056818
12830.0 0.00055503
12850.0 0.00054151
12870.0 0.00052743
12890.0 0.00051239
12910.0 0.0004971
12930.0 0.00048192
12950.0 0.00046602
12970.0 0.00044966
12990.0 0.00043387
13010.0 0.00041802
13030.0 0.00040176
13050.0 0.00038584
13070.0 0.00037062
13090.0 0.00035517
13110.0 0.00034003
13130.0 0.00032587
13150.0 0.00031235
13170.0 0.00029909
13190.0 0.00028721
13210.0 0.00027673
13230.0 0.00026717
13250.0 0.00025896
13270.0 0.00025245
13290.0 0.00024734
13310.0 0.00024375
13330.0 0.00024187
13350.0 0.00024153
13370.0 0.00024276
13390.0 0.00024557
13410.0 0.00024942
13430.0 0.00025445
13450.0 0.00026064
13470.0 0.00026741
13490.0 0.00027445
13510.0 0.00028232
13530.0 0.00029016
13550.0 0.00029752
13570.0 0.00030468
13590.0 0.00031156
13610.0 0.00031755
13630.0 0.00032263
13650.0 0.00032716
13670.0 0.00033076
13690.0 0.00033332
13710.0 0.00033507
13730.0 0.00033602
13750.0 0.00033601
13770.0 0.00033526
13790.0 0.00033379
13810.0 0.00033165
13830.0 0.000329
13850.0 0.00032577
13870.0 0.00032199
13890.0 0.00031788
13910.0 0.00031343
13930.0 0.0003085
13950.0 0.00030328
13970.0 0.00029809
13990.0 0.00029258
14010.0 0.00028688
14030.0 0.00028131
14050.0 0.00027581
14070.0 0.00027014
14090.0 0.0002648
14110.0 0.00025987
14130.0 0.00025519
14150.0 0.00025087
14170.0 0.00024724
14190.0 0.00024418
14210.0 0.00024167
14230.0 0.00023988
14250.0 0.00023882
14270.0 0.00023846
14290.0 0.00023887
14310.0 0.00023994
14330.0 0.00024167
14350.0 0.0002441
14370.0 0.00024706
14390.0 0.00025037
14410.0 0.00025426
14430.0 0.00025853
14450.0 0.00026294
14470.0 0.00026757
14490.0 0.00027263
14510.0 0.00027764
14530.0 0.00028262
14550.0 0.00028789
14570.0 0.00029332
14590.0 0.0002987
14610.0 0.00030438
14630.0 0.00031058
14650.0 0.00031692
14670.0 0.00032356
14690.0 0.00033092
14710.0 0.00033895
14730.0 0.00034707
14750.0 0.00035595
14770.0 0.00036568
14790.0 0.00037572
14810.0 0.000386
14830.0 0.00039738
14850.0 0.00040889
14870.0 0.00042011
14890.0 0.00043146
14910.0 0.00044276
14930.0 0.00045305
14950.0 0.00046222
14970.0 0.00047053
14990.0 0.00047724
15010.0 0.0004822
15030.0 0.00048577
15050.0 0.00048802
15070.0 0.00048907
15090.0 0.00048938
15110.0 0.00048918
15130.0 0.00048865
15150.0 0.00048801
15170.0 0.00048726
15190.0 0.00048644
15210.0 0.00048567
15230.0 0.0004849
15250.0 0.00048409
15270.0 0.0004833
15290.0 0.00048257
15310.0 0.00048181
15330.0 0.00048104
15350.0 0.00048032
15370.0 0.00047961
15390.0 0.00047883
15410.0 0.0004781
15430.0 0.0004774
15450.0 0.00047667
15470.0 0.00047592
15490.0 0.00047523
15510.0 0.00047454
15530.0 0.00047381
15550.0 0.0004731
15570.0 0.00047243
15590.0 0.0004717
15610.0 0.00047096
15630.0 0.00047028
15650.0 0.00046958
15670.0 0.00046885
15690.0 0.00046814
15710.0 0.00046747
15730.0 0.00046673
15750.0 0.000466
15770.0 0.0004653
15790.0 0.00046459
15810.0 0.00046381
15830.0 0.00046309
15850.0 0.00046238
15870.0 0.00046163
15890.0 0.00046087
15910.0 0.00046015
15930.0 0.0004594
15950.0 0.0004586
15970.0 0.00045784
15990.0 0.00045709
16010.0 0.00045628
16030.0 0.00045546
16050.0 0.0004547
16070.0 0.00045391
16090.0 0.00045307
16110.0 0.00045226
16130.0 0.00045147
16150.0 0.00045058
16170.0 0.00044972
16190.0 0.00044889
16210.0 0.00044802
16230.0 0.00044711
16250.0 0.00044624
16270.0 0.00044538
16290.0 0.00044445
16310.0 0.00044352
16330.0 0.00044263
16350.0 0.00044169
16370.0 0.00044068
16390.0 0.00043975
16410.0 0.0004388
16430.0 0.0004378
16450.0 0.0004368
16470.0 0.00043584
16490.0 0.00043481
16510.0 0.00043375
16530.0 0.00043273
16550.0 0.0004317
16570.0 0.0004306
16590.0 0.0004295
16610.0 0.00042846
16630.0 0.00042736
16650.0 0.00042622
16670.0 0.00042513
16690.0 0.00042402
16710.0 0.00042282
16730.0 0.00042166
16750.0 0.00042051
16770.0 0.00041932
16790.0 0.00041809
16810.0 0.00041691
16830.0 0.00041571
16850.0 0.00041445
16870.0 0.00041321
16890.0 0.00041199
16910.0 0.00041069
16930.0 0.00040937
16950.0 0.00040811
16970.0 0.00040682
16990.0 0.00040547
17010.0 0.00040415
17030.0 0.00040285
17050.0 0.00040148
17070.0 0.00040009
17090.0 0.00039874
17110.0 0.00039737
17130.0 0.00039592
17150.0 0.00039452
17170.0 0.00039313
17190.0 0.00039169
17210.0 0.00039023
17230.0 0.00038882
17250.0 0.00038736
17270.0 0.00038585
17290.0 0.00038438
17310.0 0.00038291
17330.0 0.00038138
17350.0 0.00037984
17370.0 0.00037836
17390.0 0.00037684
17410.0 0.00037527
17430.0 0.00037374
17450.0 0.00037222
17470.0 0.0003706
17490.0 0.00036901
17510.0 0.00036745
17530.0 0.00036586
17550.0 0.00036423
17570.0 0.00036264
17590.0 0.00036106
17610.0 0.0003594
17630.0 0.00035776
17650.0 0.00035616
17670.0 0.00035451
17690.0 0.0003528
17710.0 0.00035117
17730.0 0.00034952
17750.0 0.00034783
17770.0 0.00034614
17790.0 0.00034451
17810.0 0.0003428
17830.0 0.00034107
17850.0 0.00033939
17870.0 0.0003377
17890.0 0.00033596
17910.0 0.00033423
17930.0 0.00033255
17950.0 0.00033082
17970.0 0.00032907
17990.0 0.00032736
18010.0 0.00032565
18030.0 0.00032386
18050.0 0.00032212
18070.0 0.0003204
18090.0 0.00031864
18110.0 0.00031685
18130.0 0.00031513
18150.0 0.00031339
18170.0 0.0003116
18190.0 0.00030985
18210.0 0.00030812
18230.0 0.00030633
18250.0 0.00030452
18270.0 0.00030279
18290.0 0.00030103
18310.0 0.00029923
18330.0 0.00029747
18350.0 0.00029574
18370.0 0.00029394
18390.0 0.00029215
18410.0 0.0002904
18430.0 0.00028864
18450.0 0.00028682
18470.0 0.00028506
18490.0 0.00028332
18510.0 0.00028153
18530.0 0.00027975
18550.0 0.00027802
18570.0 0.00027625
18590.0 0.00027445
18610.0 0.00027269
18630.0 0.00027095
18650.0 0.00026917
18670.0 0.00026739
18690.0 0.00026567
18710.0 0.00026392
18730.0 0.00026214
18750.0 0.00026041
18770.0 0.00025869
18790.0 0.0002569
18810.0 0.00025515
18830.0 0.00025344
18850.0 0.0002517
18870.0 0.00024994
18890.0 0.00024823
18910.0 0.00024653
18930.0 0.00024479
18950.0 0.00024306
18970.0 0.00024138
18990.0 0.00023966
19010.0 0.0002379
19030.0 0.00023623
19050.0 0.00023455
19070.0 0.00023283
19090.0 0.00023114
19110.0 0.0002295
19130.0 0.0002278
19150.0 0.0002261
19170.0 0.00022444
19190.0 0.00022279
19210.0 0.0002211
19230.0 0.00021943
19250.0 0.00021782
19270.0 0.00021616
19290.0 0.0002145
19310.0 0.00021289
19330.0 0.00021128
19350.0 0.00020961
19370.0 0.00020799
19390.0 0.0002064
19410.0 0.00020478
19430.0 0.00020315
19450.0 0.00020158
19470.0 0.0002
19490.0 0.00019839
19510.0 0.00019681
19530.0 0.00019527
19550.0 0.00019367
19570.0 0.00019208
19590.0 0.00019055
19610.0 0.000189
19630.0 0.00018743
19650.0 0.00018591
19670.0 0.0001844
19690.0 0.00018285
19710.0 0.00018132
19730.0 0.00017982
19750.0 0.00017832
19770.0 0.00017677
19790.0 0.00017529
19810.0 0.00017382
19830.0 0.00017231
19850.0 0.00017082
19870.0 0.00016935
19890.0 0.00016782
19910.0 0.00016621
19930.0 0.00016455
19950.0 0.00016277
19970.0 0.00016074
19990.0 0.00015846
20010.0 0.0001582
20030.0 0.00015534
20050.0 0.00015214
20070.0 0.00014879
20090.0 0.0001453
20110.0 0.00014148
20130.0 0.00013771
20150.0 0.00013405
20170.0 0.00013034
20190.0 0.00012665
20210.0 0.0001232
20230.0 0.00011988
20250.0 0.00011659
20270.0 0.00011356
20290.0 0.0001108
20310.0 0.00010818
20330.0 0.00010575
20350.0 0.00010371
20370.0 0.00010189
20390.0 0.0001003
20410.0 9.8996e-05
20430.0 9.7981e-05
20450.0 9.718e-05
20470.0 9.6641e-05
20490.0 9.6346e-05
20510.0 9.6265e-05
20530.0 9.64e-05
20550.0 9.6718e-05
20570.0 9.7177e-05
20590.0 9.7809e-05
20610.0 9.8578e-05
20630.0 9.942e-05
20650.0 0.00010036
20670.0 0.00010145
20690.0 0.00010255
20710.0 0.00010367
20730.0 0.00010487
20750.0 0.00010611
20770.0 0.00010731
20790.0 0.00010855
20810.0 0.00010985
20830.0 0.00011112
20850.0 0.00011237
20870.0 0.00011371
20890.0 0.00011505
20910.0 0.00011633
20930.0 0.00011765
20950.0 0.00011902
20970.0 0.00012034
20990.0 0.00012165
21010.0 0.00012303
21030.0 0.00012438
21050.0 0.00012568
21070.0 0.00012698
21090.0 0.0001283
21110.0 0.00012952
21130.0 0.00013067
21150.0 0.00013182
21170.0 0.00013288
21190.0 0.00013383
21210.0 0.00013473
21230.0 0.00013555
21250.0 0.00013621
21270.0 0.00013675
21290.0 0.00013718
21310.0 0.00013744
21330.0 0.00013752
21350.0 0.00013745
21370.0 0.00013717
21390.0 0.00013669
21410.0 0.00013602
21430.0 0.00013508
21450.0 0.00013392
21470.0 0.00013258
21490.0 0.00013099
21510.0 0.00012916
21530.0 0.00012722
21550.0 0.0001251
21570.0 0.00012275
21590.0 0.00012035
21610.0 0.00011793
21630.0 0.00011541
21650.0 0.00011283
21670.0 0.00011047
21690.0 0.00010817
21710.0 0.00010594
21730.0 0.00010394
21750.0 0.00010219
21770.0 0.00010059
21790.0 9.927e-05
21810.0 9.8267e-05
21830.0 9.7534e-05
21850.0 9.7087e-05
21870.0 9.6948e-05
21890.0 9.7081e-05
21910.0 9.7498e-05
21930.0 9.8188e-05
21950.0 9.9087e-05
21970.0 0.00010022
21990.0 0.00010164
22010.0 0.00010317
22030.0 0.00010484
22050.0 0.0001067
22070.0 0.00010869
22090.0 0.00011066
22110.0 0.00011274
22130.0 0.00011492
22150.0 0.00011704
22170.0 0.00011912
22190.0 0.00012126
22210.0 0.00012332
22230.0 0.00012519
22250.0 0.000127
22270.0 0.00012871
22290.0 0.00013021
22310.0 0.00013152
22330.0 0.00013271
22350.0 0.00013365
22370.0 0.00013435
22390.0 0.00013482
22410.0 0.00013506
22430.0 0.00013501
22450.0 0.00013472
22470.0 0.00013416
22490.0 0.00013333
22510.0 0.00013227
22530.0 0.00013091
22550.0 0.00012925
22570.0 0.00012741
22590.0 0.00012533
22610.0 0.00012295
22630.0 0.00012037
22650.0 0.0001177
22670.0 0.00011474
22690.0 0.00011158
22710.0 0.00010839
22730.0 0.00010508
22750.0 0.00010149
22770.0 9.7955e-05
22790.0 9.4493e-05
22810.0 9.0924e-05
22830.0 8.7351e-05
22850.0 8.3995e-05
22870.0 8.0699e-05
22890.0 7.7417e-05
22910.0 7.4396e-05
22930.0 7.1636e-05
22950.0 6.902e-05
22970.0 6.6623e-05
22990.0 6.4663e-05
23010.0 6.2959e-05
23030.0 6.1542e-05
23050.0 6.0499e-05
23070.0 5.981e-05
