#lamb flux
1010.0 0.00010751
1030.0 0.00010751
1050.0 0.00010751
1070.0 0.00010751
1090.0 0.00010751
1110.0 0.00010751
1130.0 0.00010751
1150.0 0.00010751
1170.0 0.00010751
1190.0 0.00010751
1210.0 0.00010751
1230.0 0.00010751
1250.0 0.00010751
1270.0 0.00010751
1290.0 0.00010751
1310.0 0.00010751
1330.0 0.00010751
1350.0 0.00010751
1370.0 0.00010751
1390.0 0.00010751
1410.0 0.00010751
1430.0 0.00010751
1450.0 0.00011922
1470.0 0.0001355
1490.0 0.00015382
1510.0 0.00017454
1530.0 0.00019707
1550.0 0.0002217
1570.0 0.00024896
1590.0 0.00027881
1610.0 0.00031088
1630.0 0.00034556
1650.0 0.00038364
1670.0 0.00042467
1690.0 0.000469
1710.0 0.00051743
1730.0 0.00056976
1750.0 0.00062499
1770.0 0.0006844
1790.0 0.00074788
1810.0 0.00081435
1830.0 0.00088372
1850.0 0.00095721
1870.0 0.0010327
1890.0 0.0011094
1910.0 0.0011879
1930.0 0.0012677
1950.0 0.0013463
1970.0 0.0014237
1990.0 0.0015004
2010.0 0.0015744
2030.0 0.0016441
2050.0 0.0017107
2070.0 0.0017737
2090.0 0.0018297
2110.0 0.0018801
2130.0 0.0019254
2150.0 0.0019639
2170.0 0.0019948
2190.0 0.0020204
2210.0 0.0020399
2230.0 0.0020521
2250.0 0.0020583
2270.0 0.0020604
2290.0 0.0020565
2310.0 0.0020467
2330.0 0.0020337
2350.0 0.0020174
2370.0 0.0019969
2390.0 0.0019743
2410.0 0.0019512
2430.0 0.0019261
2450.0 0.0019001
2470.0 0.0018753
2490.0 0.0018524
2510.0 0.001831
2530.0 0.0018166
2550.0 0.0018161
2570.0 0.0018357
2590.0 0.0018833
2610.0 0.0019805
2630.0 0.0021319
2650.0 0.0023288
2670.0 0.0025776
2690.0 0.0028758
2710.0 0.0031887
2730.0 0.0035031
2750.0 0.0038362
2770.0 0.0041665
2790.0 0.0044854
2810.0 0.0048147
2830.0 0.0051735
2850.0 0.0055274
2870.0 0.0058957
2890.0 0.0062965
2910.0 0.0067174
2930.0 0.007143
2950.0 0.0076043
2970.0 0.0080979
2990.0 0.0086024
3010.0 0.0091276
3030.0 0.0096922
3050.0 0.010278
3070.0 0.010852
3090.0 0.011435
3110.0 0.011996
3130.0 0.012488
3150.0 0.01289
3170.0 0.013177
3190.0 0.013308
3210.0 0.013258
3230.0 0.013083
3250.0 0.013017
3270.0 0.013195
3290.0 0.013543
3310.0 0.013975
3330.0 0.01451
3350.0 0.015111
3370.0 0.01579
3390.0 0.016581
3410.0 0.017333
3430.0 0.018505
3450.0 0.01944
3470.0 0.02042
3490.0 0.02125
3510.0 0.022258
3530.0 0.025593
3550.0 0.030255
3570.0 0.033101
3590.0 0.034345
3610.0 0.034472
3630.0 0.033416
3650.0 0.036112
3670.0 0.042951
3690.0 0.048363
3710.0 0.051238
3730.0 0.053634
3750.0 0.056267
3770.0 0.055806
3790.0 0.052864
3810.0 0.049499
3830.0 0.046113
3850.0 0.04579
3870.0 0.049568
3890.0 0.053492
3910.0 0.0562
3930.0 0.057915
3950.0 0.063007
3970.0 0.067748
3990.0 0.064743
4010.0 0.056959
4030.0 0.049893
4050.0 0.047776
4070.0 0.048982
4090.0 0.048996
4110.0 0.047915
4130.0 0.047121
4150.0 0.04761
4170.0 0.051877
4190.0 0.056969
4210.0 0.05633
4230.0 0.053285
4250.0 0.051941
4270.0 0.051907
4290.0 0.054129
4310.0 0.056504
4330.0 0.053795
4350.0 0.046671
4370.0 0.040859
4390.0 0.03672
4410.0 0.0332
4430.0 0.033004
4450.0 0.035823
4470.0 0.038307
4490.0 0.041609
4510.0 0.047606
4530.0 0.060224
4550.0 0.076524
4570.0 0.08628
4590.0 0.091979
4610.0 0.10102
4630.0 0.10751
4650.0 0.10056
4670.0 0.082452
4690.0 0.067468
4710.0 0.061338
4730.0 0.059537
4750.0 0.054888
4770.0 0.050902
4790.0 0.053481
4810.0 0.058479
4830.0 0.059055
4850.0 0.055185
4870.0 0.053547
4890.0 0.057119
4910.0 0.060762
4930.0 0.061215
4950.0 0.059107
4970.0 0.055404
4990.0 0.050086
5010.0 0.045346
5030.0 0.042588
5050.0 0.041317
5070.0 0.040298
5090.0 0.039108
5110.0 0.038766
5130.0 0.039003
5150.0 0.040829
5170.0 0.045375
5190.0 0.051159
5210.0 0.057635
5230.0 0.061723
5250.0 0.063708
5270.0 0.066972
5290.0 0.070859
5310.0 0.072172
5330.0 0.06923
5350.0 0.065128
5370.0 0.064731
5390.0 0.069065
5410.0 0.074575
5430.0 0.077832
5450.0 0.078275
5470.0 0.076238
5490.0 0.072989
5510.0 0.070727
5530.0 0.070048
5550.0 0.070213
5570.0 0.070086
5590.0 0.068109
5610.0 0.06469
5630.0 0.060135
5650.0 0.055376
5670.0 0.052366
5690.0 0.05071
5710.0 0.049713
5730.0 0.0497
5750.0 0.049009
5770.0 0.047788
5790.0 0.047715
5810.0 0.047868
5830.0 0.048192
5850.0 0.048325
5870.0 0.047161
5890.0 0.044948
5910.0 0.04208
5930.0 0.037804
5950.0 0.034276
5970.0 0.033321
5990.0 0.034292
6010.0 0.034979
6030.0 0.033813
6050.0 0.032689
6070.0 0.033923
6090.0 0.036555
6110.0 0.038095
6130.0 0.037151
6150.0 0.035002
6170.0 0.033459
6190.0 0.032027
6210.0 0.030113
6230.0 0.028113
6250.0 0.027164
6270.0 0.027765
6290.0 0.028833
6310.0 0.030535
6330.0 0.033015
6350.0 0.035657
6370.0 0.037132
6390.0 0.037497
6410.0 0.037863
6430.0 0.038233
6450.0 0.038646
6470.0 0.039408
6490.0 0.040238
6510.0 0.040816
6530.0 0.040805
6550.0 0.040163
6570.0 0.038802
6590.0 0.037
6610.0 0.035712
6630.0 0.034973
6650.0 0.03388
6670.0 0.03235
6690.0 0.031044
6710.0 0.030365
6730.0 0.030053
6750.0 0.029595
6770.0 0.029035
6790.0 0.028563
6810.0 0.02797
6830.0 0.027638
6850.0 0.028119
6870.0 0.028424
6890.0 0.028136
6910.0 0.027519
6930.0 0.026942
6950.0 0.026444
6970.0 0.025548
6990.0 0.024574
7010.0 0.024148
7030.0 0.023909
7050.0 0.023205
7070.0 0.022163
7090.0 0.021719
7110.0 0.02227
7130.0 0.023631
7150.0 0.025091
7170.0 0.026035
7190.0 0.025851
7210.0 0.02484
7230.0 0.024191
7250.0 0.024139
7270.0 0.024079
7290.0 0.023881
7310.0 0.024058
7330.0 0.024776
7350.0 0.025719
7370.0 0.026297
7390.0 0.026222
7410.0 0.025655
7430.0 0.02491
7450.0 0.024042
7470.0 0.022896
7490.0 0.022105
7510.0 0.021457
7530.0 0.021119
7550.0 0.021319
7570.0 0.021632
7590.0 0.021857
7610.0 0.021837
7630.0 0.02179
7650.0 0.022021
7670.0 0.022646
7690.0 0.023422
7710.0 0.024319
7730.0 0.025032
7750.0 0.025862
7770.0 0.026493
7790.0 0.026873
7810.0 0.026964
7830.0 0.027019
7850.0 0.026607
7870.0 0.025525
7890.0 0.024394
7910.0 0.023697
7930.0 0.023203
7950.0 0.022728
7970.0 0.022516
7990.0 0.022703
8010.0 0.02189
8030.0 0.021713
8050.0 0.021465
8070.0 0.021143
8090.0 0.020814
8110.0 0.020849
8130.0 0.021009
8150.0 0.020974
8170.0 0.02086
8190.0 0.020365
8210.0 0.019238
8230.0 0.018003
8250.0 0.017305
8270.0 0.016774
8290.0 0.016224
8310.0 0.015981
8330.0 0.015973
8350.0 0.015604
8370.0 0.015427
8390.0 0.015964
8410.0 0.016925
8430.0 0.01816
8450.0 0.019461
8470.0 0.020231
8490.0 0.020918
8510.0 0.021414
8530.0 0.02191
8550.0 0.022408
8570.0 0.022754
8590.0 0.023071
8610.0 0.023725
8630.0 0.02402
8650.0 0.023593
8670.0 0.023655
8690.0 0.024083
8710.0 0.024485
8730.0 0.024472
8750.0 0.023927
8770.0 0.023742
8790.0 0.023673
8810.0 0.023331
8830.0 0.021848
8850.0 0.019974
8870.0 0.018639
8890.0 0.017979
8910.0 0.017057
8930.0 0.015892
8950.0 0.015149
8970.0 0.015042
8990.0 0.015214
9010.0 0.015213
9030.0 0.0151
9050.0 0.014996
9070.0 0.014909
9090.0 0.014824
9110.0 0.014741
9130.0 0.014657
9150.0 0.014575
9170.0 0.014492
9190.0 0.01441
9210.0 0.014328
9230.0 0.014248
9250.0 0.014167
9270.0 0.014087
9290.0 0.014008
9310.0 0.013929
9330.0 0.01385
9350.0 0.013772
9370.0 0.013695
9390.0 0.013618
9410.0 0.013541
9430.0 0.013463
9450.0 0.01338
9470.0 0.0133
9490.0 0.013232
9510.0 0.013161
9530.0 0.013089
9550.0 0.013017
9570.0 0.012944
9590.0 0.012872
9610.0 0.012801
9630.0 0.012729
9650.0 0.012657
9670.0 0.012587
9690.0 0.012516
9710.0 0.012446
9730.0 0.012377
9750.0 0.012307
9770.0 0.012238
9790.0 0.012169
9810.0 0.012101
9830.0 0.012032
9850.0 0.011958
9870.0 0.011892
9890.0 0.011827
9910.0 0.01176
9930.0 0.011694
9950.0 0.011628
9970.0 0.011562
9990.0 0.011494
10010.0 0.01142
10030.0 0.011351
10050.0 0.011289
10070.0 0.011226
10090.0 0.011163
10110.0 0.011095
10130.0 0.011005
10150.0 0.010944
10170.0 0.010887
10190.0 0.010825
10210.0 0.010764
10230.0 0.010702
10250.0 0.010637
10270.0 0.01057
10290.0 0.010507
10310.0 0.01044
10330.0 0.010371
10350.0 0.010305
10370.0 0.010239
10390.0 0.010171
10410.0 0.010102
10430.0 0.010037
10450.0 0.0099694
10470.0 0.0098996
10490.0 0.0098323
10510.0 0.0097652
10530.0 0.0096931
10550.0 0.0096228
10570.0 0.0095553
10590.0 0.0094849
10610.0 0.0094127
10630.0 0.0093436
10650.0 0.0092737
10670.0 0.0091997
10690.0 0.0091273
10710.0 0.0090565
10730.0 0.0089828
10750.0 0.008906
10770.0 0.0088343
10790.0 0.008761
10810.0 0.0086845
10830.0 0.0086092
10850.0 0.0085364
10870.0 0.008458
10890.0 0.0083796
10910.0 0.0083044
10930.0 0.0082285
10950.0 0.00815
10970.0 0.0080742
10990.0 0.0080024
11010.0 0.0077684
11030.0 0.0076936
11050.0 0.0076234
11070.0 0.0075543
11090.0 0.0074833
11110.0 0.0074181
11130.0 0.0073559
11150.0 0.0072941
11170.0 0.0072352
11190.0 0.0071822
11210.0 0.0071313
11230.0 0.007083
11250.0 0.0070402
11270.0 0.0070018
11290.0 0.0069657
11310.0 0.0069333
11330.0 0.0069057
11350.0 0.0068801
11370.0 0.0068561
11390.0 0.0068344
11410.0 0.006814
11430.0 0.0067928
11450.0 0.0067718
11470.0 0.0067506
11490.0 0.0067275
11510.0 0.0067018
11530.0 0.0066748
11550.0 0.0066453
11570.0 0.0066116
11590.0 0.0065748
11610.0 0.0065356
11630.0 0.0064912
11650.0 0.0064413
11670.0 0.0063894
11690.0 0.0063333
11710.0 0.0062709
11730.0 0.0062048
11750.0 0.006137
11770.0 0.0060628
11790.0 0.0059835
11810.0 0.0059032
11830.0 0.00582
11850.0 0.0057296
11870.0 0.0056396
11890.0 0.0055509
11910.0 0.0054589
11930.0 0.0053657
11950.0 0.0052767
11970.0 0.0051882
11990.0 0.0050982
12010.0 0.005013
12030.0 0.0049324
12050.0 0.0048526
12070.0 0.0047749
12090.0 0.0047052
12110.0 0.0046382
12130.0 0.0045733
12150.0 0.004514
12170.0 0.0044602
12190.0 0.0044082
12210.0 0.0043615
12230.0 0.0043213
12250.0 0.0042855
12270.0 0.0042543
12290.0 0.004229
12310.0 0.0042091
12330.0 0.0041934
12350.0 0.0041824
12370.0 0.0041754
12390.0 0.0041718
12410.0 0.0041716
12430.0 0.0041735
12450.0 0.004177
12470.0 0.0041821
12490.0 0.004188
12510.0 0.0041934
12530.0 0.004199
12550.0 0.0042041
12570.0 0.0042077
12590.0 0.0042094
12610.0 0.0042094
12630.0 0.0042066
12650.0 0.0042006
12670.0 0.0041914
12690.0 0.0041783
12710.0 0.0041616
12730.0 0.0041412
12750.0 0.0041159
12770.0 0.004087
12790.0 0.0040553
12810.0 0.0040199
12830.0 0.0039807
12850.0 0.0039409
12870.0 0.0038996
12890.0 0.0038559
12910.0 0.0038121
12930.0 0.0037695
12950.0 0.0037258
12970.0 0.003682
12990.0 0.003641
13010.0 0.003601
13030.0 0.0035611
13050.0 0.0035231
13070.0 0.0034875
13090.0 0.0034521
13110.0 0.0034177
13130.0 0.0033856
13150.0 0.0033547
13170.0 0.003324
13190.0 0.0032955
13210.0 0.0032691
13230.0 0.0032433
13250.0 0.0032188
13270.0 0.0031963
13290.0 0.0031747
13310.0 0.0031535
13330.0 0.0031336
13350.0 0.0031147
13370.0 0.0030956
13390.0 0.0030764
13410.0 0.0030579
13430.0 0.0030387
13450.0 0.0030185
13470.0 0.0029978
13490.0 0.0029766
13510.0 0.0029533
13530.0 0.002929
13550.0 0.0029043
13570.0 0.0028783
13590.0 0.0028506
13610.0 0.0028227
13630.0 0.0027948
13650.0 0.0027653
13670.0 0.0027355
13690.0 0.0027064
13710.0 0.0026768
13730.0 0.0026459
13750.0 0.0026167
13770.0 0.0025879
13790.0 0.0025584
13810.0 0.0025294
13830.0 0.0025019
13850.0 0.0024739
13870.0 0.0024459
13890.0 0.0024193
13910.0 0.0023936
13930.0 0.0023677
13950.0 0.0023428
13970.0 0.0023199
13990.0 0.0022973
14010.0 0.0022754
14030.0 0.002255
14050.0 0.0022357
14070.0 0.0022163
14090.0 0.0021983
14110.0 0.0021814
14130.0 0.0021648
14150.0 0.0021484
14170.0 0.0021333
14190.0 0.0021187
14210.0 0.0021041
14230.0 0.0020901
14250.0 0.002077
14270.0 0.0020637
14290.0 0.0020507
14310.0 0.0020387
14330.0 0.002027
14350.0 0.0020153
14370.0 0.0020042
14390.0 0.0019938
14410.0 0.0019834
14430.0 0.0019732
14450.0 0.0019638
14470.0 0.0019546
14490.0 0.0019452
14510.0 0.0019364
14530.0 0.0019281
14550.0 0.0019195
14570.0 0.0019109
14590.0 0.0019025
14610.0 0.0018938
14630.0 0.0018845
14650.0 0.0018753
14670.0 0.0018661
14690.0 0.0018566
14710.0 0.0018471
14730.0 0.0018388
14750.0 0.0018313
14770.0 0.001825
14790.0 0.0018209
14810.0 0.0018192
14830.0 0.0018203
14850.0 0.001825
14870.0 0.0018331
14890.0 0.0018447
14910.0 0.0018598
14930.0 0.0018768
14950.0 0.0018948
14970.0 0.0019136
14990.0 0.001931
15010.0 0.0019459
15030.0 0.0019583
15050.0 0.0019681
15070.0 0.0019751
15090.0 0.0019801
15110.0 0.0019839
15130.0 0.0019869
15150.0 0.0019895
15170.0 0.0019918
15190.0 0.001994
15210.0 0.0019964
15230.0 0.0019987
15250.0 0.0020011
15270.0 0.0020036
15290.0 0.0020061
15310.0 0.0020087
15330.0 0.0020114
15350.0 0.0020141
15370.0 0.002017
15390.0 0.0020198
15410.0 0.0020227
15430.0 0.0020257
15450.0 0.0020287
15470.0 0.0020318
15490.0 0.002035
15510.0 0.0020382
15530.0 0.0020415
15550.0 0.0020448
15570.0 0.0020482
15590.0 0.0020516
15610.0 0.0020551
15630.0 0.0020586
15650.0 0.0020622
15670.0 0.0020659
15690.0 0.0020695
15710.0 0.0020733
15730.0 0.0020771
15750.0 0.0020809
15770.0 0.0020848
15790.0 0.0020887
15810.0 0.0020926
15830.0 0.0020966
15850.0 0.0021007
15870.0 0.0021048
15890.0 0.0021089
15910.0 0.0021131
15930.0 0.0021173
15950.0 0.0021214
15970.0 0.0021257
15990.0 0.00213
16010.0 0.0021343
16030.0 0.0021386
16050.0 0.002143
16070.0 0.0021475
16090.0 0.0021519
16110.0 0.0021563
16130.0 0.0021608
16150.0 0.0021653
16170.0 0.0021698
16190.0 0.0021744
16210.0 0.0021789
16230.0 0.0021835
16250.0 0.0021881
16270.0 0.0021927
16290.0 0.0021973
16310.0 0.0022019
16330.0 0.0022066
16350.0 0.0022112
16370.0 0.0022158
16390.0 0.0022205
16410.0 0.0022251
16430.0 0.0022298
16450.0 0.0022344
16470.0 0.0022391
16490.0 0.0022438
16510.0 0.0022484
16530.0 0.002253
16550.0 0.0022577
16570.0 0.0022623
16590.0 0.0022669
16610.0 0.0022715
16630.0 0.0022761
16650.0 0.0022807
16670.0 0.0022853
16690.0 0.0022899
16710.0 0.0022943
16730.0 0.0022988
16750.0 0.0023033
16770.0 0.0023078
16790.0 0.0023122
16810.0 0.0023166
16830.0 0.002321
16850.0 0.0023253
16870.0 0.0023296
16890.0 0.002334
16910.0 0.0023382
16930.0 0.0023423
16950.0 0.0023465
16970.0 0.0023507
16990.0 0.0023547
17010.0 0.0023588
17030.0 0.0023628
17050.0 0.0023667
17070.0 0.0023706
17090.0 0.0023745
17110.0 0.0023783
17130.0 0.0023819
17150.0 0.0023856
17170.0 0.0023893
17190.0 0.0023928
17210.0 0.0023963
17230.0 0.0023998
17250.0 0.0024032
17270.0 0.0024065
17290.0 0.0024097
17310.0 0.0024129
17330.0 0.002416
17350.0 0.002419
17370.0 0.002422
17390.0 0.0024249
17410.0 0.0024277
17430.0 0.0024304
17450.0 0.0024331
17470.0 0.0024357
17490.0 0.0024381
17510.0 0.0024406
17530.0 0.0024429
17550.0 0.0024451
17570.0 0.0024473
17590.0 0.0024493
17610.0 0.0024513
17630.0 0.0024531
17650.0 0.002455
17670.0 0.0024566
17690.0 0.0024582
17710.0 0.0024597
17730.0 0.0024611
17750.0 0.0024623
17770.0 0.0024635
17790.0 0.0024647
17810.0 0.0024656
17830.0 0.0024665
17850.0 0.0024672
17870.0 0.0024679
17890.0 0.0024684
17910.0 0.0024688
17930.0 0.0024692
17950.0 0.0024694
17970.0 0.0024695
17990.0 0.0024695
18010.0 0.0024694
18030.0 0.0024691
18050.0 0.0024688
18070.0 0.0024683
18090.0 0.0024677
18110.0 0.002467
18130.0 0.0024662
18150.0 0.0024652
18170.0 0.0024641
18190.0 0.0024629
18210.0 0.0024616
18230.0 0.0024602
18250.0 0.0024585
18270.0 0.0024569
18290.0 0.0024551
18310.0 0.0024531
18330.0 0.0024511
18350.0 0.0024489
18370.0 0.0024466
18390.0 0.0024441
18410.0 0.0024415
18430.0 0.0024389
18450.0 0.002436
18470.0 0.002433
18490.0 0.00243
18510.0 0.0024268
18530.0 0.0024234
18550.0 0.00242
18570.0 0.0024164
18590.0 0.0024126
18610.0 0.0024088
18630.0 0.0024048
18650.0 0.0024007
18670.0 0.0023964
18690.0 0.0023921
18710.0 0.0023877
18730.0 0.002383
18750.0 0.0023783
18770.0 0.0023735
18790.0 0.0023685
18810.0 0.0023633
18830.0 0.0023581
18850.0 0.0023528
18870.0 0.0023473
18890.0 0.0023417
18910.0 0.002336
18930.0 0.0023302
18950.0 0.0023242
18970.0 0.0023182
18990.0 0.002312
19010.0 0.0023056
19030.0 0.0022992
19050.0 0.0022927
19070.0 0.002286
19090.0 0.0022793
19110.0 0.0022724
19130.0 0.0022654
19150.0 0.0022583
19170.0 0.0022511
19190.0 0.0022438
19210.0 0.0022363
19230.0 0.0022288
19250.0 0.0022212
19270.0 0.0022135
19290.0 0.0022056
19310.0 0.0021977
19330.0 0.0021897
19350.0 0.0021815
19370.0 0.0021733
19390.0 0.002165
19410.0 0.0021566
19430.0 0.002148
19450.0 0.0021395
19470.0 0.0021308
19490.0 0.002122
19510.0 0.0021132
19530.0 0.0021043
19550.0 0.0020952
19570.0 0.0020861
19590.0 0.0020769
19610.0 0.0020676
19630.0 0.0020583
19650.0 0.0020489
19670.0 0.0020394
19690.0 0.0020298
19710.0 0.0020202
19730.0 0.0020105
19750.0 0.0020008
19770.0 0.0019909
19790.0 0.001981
19810.0 0.0019711
19830.0 0.001961
19850.0 0.0019508
19870.0 0.0019405
19890.0 0.0019298
19910.0 0.0019184
19930.0 0.0019062
19950.0 0.0018928
19970.0 0.0018772
19990.0 0.0018594
20010.0 0.0018395
20030.0 0.0018167
20050.0 0.0017911
20070.0 0.001764
20090.0 0.0017357
20110.0 0.001705
20130.0 0.0016744
20150.0 0.0016444
20170.0 0.001614
20190.0 0.0015835
20210.0 0.0015544
20230.0 0.0015258
20250.0 0.0014971
20270.0 0.0014696
20290.0 0.0014435
20310.0 0.0014177
20330.0 0.0013925
20350.0 0.0013694
20370.0 0.0013471
20390.0 0.0013255
20410.0 0.0013053
20430.0 0.0012867
20450.0 0.0012686
20470.0 0.0012517
20490.0 0.0012362
20510.0 0.0012217
20530.0 0.0012081
20550.0 0.0011957
20570.0 0.0011843
20590.0 0.0011736
20610.0 0.0011637
20630.0 0.0011546
20650.0 0.0011461
20670.0 0.001138
20690.0 0.0011305
20710.0 0.0011232
20730.0 0.0011162
20750.0 0.0011093
20770.0 0.0011025
20790.0 0.0010956
20810.0 0.0010886
20830.0 0.0010814
20850.0 0.0010739
20870.0 0.001066
20890.0 0.0010577
20910.0 0.001049
20930.0 0.0010398
20950.0 0.0010301
20970.0 0.00102
20990.0 0.0010095
21010.0 0.00099831
21030.0 0.00098673
21050.0 0.00097488
21070.0 0.00096258
21090.0 0.00094975
21110.0 0.00093692
21130.0 0.00092393
21150.0 0.00091055
21170.0 0.0008971
21190.0 0.00088383
21210.0 0.0008703
21230.0 0.00085664
21250.0 0.00084334
21270.0 0.00083018
21290.0 0.00081694
21310.0 0.00080396
21330.0 0.00079148
21350.0 0.00077901
21370.0 0.00076674
21390.0 0.00075496
21410.0 0.00074351
21430.0 0.00073207
21450.0 0.00072117
21470.0 0.00071076
21490.0 0.00070056
21510.0 0.00069066
21530.0 0.00068128
21550.0 0.00067221
21570.0 0.00066334
21590.0 0.00065487
21610.0 0.00064677
21630.0 0.00063887
21650.0 0.00063117
21670.0 0.00062385
21690.0 0.0006167
21710.0 0.00060968
21730.0 0.00060286
21750.0 0.0005962
21770.0 0.00058956
21790.0 0.00058301
21810.0 0.00057657
21830.0 0.00057014
21850.0 0.00056368
21870.0 0.00055726
21890.0 0.00055087
21910.0 0.0005444
21930.0 0.00053789
21950.0 0.0005314
21970.0 0.00052485
21990.0 0.00051815
22010.0 0.0005115
22030.0 0.00050482
22050.0 0.00049804
22070.0 0.0004912
22090.0 0.00048443
22110.0 0.00047756
22130.0 0.0004706
22150.0 0.00046368
22170.0 0.00045677
22190.0 0.00044972
22210.0 0.00044266
22230.0 0.00043573
22250.0 0.00042872
22270.0 0.00042164
22290.0 0.00041467
22310.0 0.00040774
22330.0 0.00040066
22350.0 0.00039365
22370.0 0.00038676
22390.0 0.00037982
22410.0 0.0003728
22430.0 0.00036598
22450.0 0.00035922
22470.0 0.00035237
22490.0 0.00034562
22510.0 0.00033904
22530.0 0.00033238
22550.0 0.00032574
22570.0 0.00031932
22590.0 0.000313
22610.0 0.00030667
22630.0 0.00030051
22650.0 0.0002946
22670.0 0.00028872
22690.0 0.00028296
22710.0 0.00027746
22730.0 0.00027214
22750.0 0.00026686
22770.0 0.00026187
22790.0 0.00025712
22810.0 0.00025251
22830.0 0.00024808
22850.0 0.00024393
22870.0 0.00023994
22890.0 0.0002361
22910.0 0.00023249
22930.0 0.00022908
22950.0 0.00022583
22970.0 0.00022274
22990.0 0.00021986
23010.0 0.00021711
23030.0 0.0002145
23050.0 0.00021201
23070.0 0.00020963
23090.0 0.00020733
23110.0 0.00020508
23130.0 0.00020287
23150.0 0.00020066
23170.0 0.00019845
23190.0 0.0001962
23210.0 0.0001939
23230.0 0.00019152
23250.0 0.00018906
23270.0 0.00018651
23290.0 0.00018386
23310.0 0.00018107
23330.0 0.00017819
23350.0 0.00017521
23370.0 0.0001721
23390.0 0.00016889
23410.0 0.00016565
23430.0 0.0001623
23450.0 0.00015886
23470.0 0.00015542
23490.0 0.00015199
23510.0 0.00014851
23530.0 0.00014508
23550.0 0.00014178
23570.0 0.00013854
23590.0 0.00013538
23610.0 0.00013241
23630.0 0.0001296
23650.0 0.00012694
23670.0 0.00012451
23690.0 0.00012234
23710.0 0.00012042
23730.0 0.0001188
23750.0 0.00011747
23770.0 0.00011643
23790.0 0.00011575
23810.0 0.00011537
23830.0 0.00011524
23850.0 0.00011547
23870.0 0.00011601
23890.0 0.00011669
23910.0 0.00011756
23930.0 0.00011869
23950.0 0.00011988
23970.0 0.00012101
23990.0 0.00012227
24010.0 0.00012352
24030.0 0.00012457
24050.0 0.00012549
