#lamb flux
1010.0 1.0898e-05
1030.0 1.1855e-05
1050.0 1.2985e-05
1070.0 1.4258e-05
1090.0 1.5694e-05
1110.0 1.717e-05
1130.0 1.8656e-05
1150.0 2.0213e-05
1170.0 2.1819e-05
1190.0 2.334e-05
1210.0 2.4879e-05
1230.0 2.6466e-05
1250.0 2.8016e-05
1270.0 2.9516e-05
1290.0 3.1094e-05
1310.0 3.2663e-05
1330.0 3.4159e-05
1350.0 3.5667e-05
1370.0 3.7218e-05
1390.0 3.8725e-05
1410.0 4.0183e-05
1430.0 4.1708e-05
1450.0 4.3233e-05
1470.0 4.4707e-05
1490.0 4.6202e-05
1510.0 4.7787e-05
1530.0 4.9294e-05
1550.0 5.0788e-05
1570.0 5.2341e-05
1590.0 5.3905e-05
1610.0 5.541e-05
1630.0 5.6972e-05
1650.0 5.8585e-05
1670.0 6.0156e-05
1690.0 6.1715e-05
1710.0 6.334e-05
1730.0 6.498e-05
1750.0 6.653e-05
1770.0 6.8125e-05
1790.0 6.975e-05
1810.0 7.1321e-05
1830.0 7.2857e-05
1850.0 7.4474e-05
1870.0 7.6035e-05
1890.0 7.7523e-05
1910.0 7.9019e-05
1930.0 8.0524e-05
1950.0 8.1927e-05
1970.0 8.3278e-05
1990.0 8.465e-05
2010.0 8.5958e-05
2030.0 8.7172e-05
2050.0 8.8393e-05
2070.0 8.9611e-05
2090.0 9.0704e-05
2110.0 9.1757e-05
2130.0 9.2819e-05
2150.0 9.3822e-05
2170.0 9.4735e-05
2190.0 9.5675e-05
2210.0 9.6602e-05
2230.0 9.7454e-05
2250.0 9.8285e-05
2270.0 9.9166e-05
2290.0 9.9993e-05
2310.0 0.00010076
2330.0 0.00010156
2350.0 0.00010237
2370.0 0.00010313
2390.0 0.00010392
2410.0 0.00010478
2430.0 0.00010563
2450.0 0.00010649
2470.0 0.00010744
2490.0 0.00010851
2510.0 0.00010964
2530.0 0.00011113
2550.0 0.00011342
2570.0 0.00011697
2590.0 0.00012238
2610.0 0.00013121
2630.0 0.00014395
2650.0 0.00016009
2670.0 0.00017992
2690.0 0.00020278
2710.0 0.00022543
2730.0 0.00024596
2750.0 0.0002639
2770.0 0.00027662
2790.0 0.00028341
2810.0 0.00028487
2830.0 0.00028114
2850.0 0.0002737
2870.0 0.00026378
2890.0 0.00025179
2910.0 0.00023881
2930.0 0.00022598
2950.0 0.0002125
2970.0 0.00019868
2990.0 0.00018541
3010.0 0.00025078
3030.0 0.00023119
3050.0 0.00021183
3070.0 0.00019403
3090.0 0.00017622
3110.0 0.00015922
3130.0 0.00014456
3150.0 0.00013467
3170.0 0.00012678
3190.0 0.00020926
3210.0 0.00058895
3230.0 0.001204
3250.0 0.0015278
3270.0 0.0013491
3290.0 0.0010355
3310.0 0.00085696
3330.0 0.00080293
3350.0 0.00082448
3370.0 0.00086823
3390.0 0.00091475
3410.0 0.00096174
3430.0 0.0010057
3450.0 0.0010534
3470.0 0.0011052
3490.0 0.0011406
3510.0 0.0011042
3530.0 0.0011279
3550.0 0.0014146
3570.0 0.0017764
3590.0 0.0019617
3610.0 0.0020231
3630.0 0.0020731
3650.0 0.0020703
3670.0 0.0021946
3690.0 0.0026262
3710.0 0.0031119
3730.0 0.0034296
3750.0 0.0036553
3770.0 0.0037
3790.0 0.0035568
3810.0 0.0032879
3830.0 0.0028745
3850.0 0.0024368
3870.0 0.002211
3890.0 0.0024733
3910.0 0.0031285
3930.0 0.0037838
3950.0 0.0041732
3970.0 0.004338
3990.0 0.004519
4010.0 0.0046235
4030.0 0.0041714
4050.0 0.003292
4070.0 0.0028409
4090.0 0.0029944
4110.0 0.0032966
4130.0 0.0034663
4150.0 0.0034849
4170.0 0.0034054
4190.0 0.0033475
4210.0 0.0034323
4230.0 0.0036325
4250.0 0.0037953
4270.0 0.0038558
4290.0 0.0038026
4310.0 0.0038271
4330.0 0.0040595
4350.0 0.0043343
4370.0 0.0043142
4390.0 0.0040013
4410.0 0.0035316
4430.0 0.0029566
4450.0 0.0025506
4470.0 0.0025374
4490.0 0.0027716
4510.0 0.0030711
4530.0 0.0033951
4550.0 0.0039022
4570.0 0.0048764
4590.0 0.0062654
4610.0 0.0074006
4630.0 0.0079729
4650.0 0.0084438
4670.0 0.0089012
4690.0 0.0087061
4710.0 0.0075923
4730.0 0.0061195
4750.0 0.0049328
4770.0 0.0042168
4790.0 0.003953
4810.0 0.0039521
4830.0 0.0042285
4850.0 0.004781
4870.0 0.0052757
4890.0 0.005437
4910.0 0.0055648
4930.0 0.0060872
4950.0 0.0067918
4970.0 0.0071554
4990.0 0.0069576
5010.0 0.0062317
5030.0 0.005219
5050.0 0.004362
5070.0 0.0038379
5090.0 0.0036228
5110.0 0.0036229
5130.0 0.0036578
5150.0 0.0036253
5170.0 0.0035453
5190.0 0.0035844
5210.0 0.0038588
5230.0 0.004362
5250.0 0.0051144
5270.0 0.0059062
5290.0 0.0064596
5310.0 0.0069133
5330.0 0.0074844
5350.0 0.0079224
5370.0 0.007872
5390.0 0.0074873
5410.0 0.0072121
5430.0 0.007481
5450.0 0.0084129
5470.0 0.0095649
5490.0 0.010388
5510.0 0.010684
5530.0 0.010602
5550.0 0.010313
5570.0 0.0099444
5590.0 0.009599
5610.0 0.0093594
5630.0 0.009282
5650.0 0.0091403
5670.0 0.008619
5690.0 0.0078435
5710.0 0.0071451
5730.0 0.0066513
5750.0 0.0064998
5770.0 0.0066763
5790.0 0.0068827
5810.0 0.0069745
5830.0 0.0070066
5850.0 0.0069061
5870.0 0.0067226
5890.0 0.0067021
5910.0 0.0068275
5930.0 0.0067609
5950.0 0.0063397
5970.0 0.005637
5990.0 0.0048272
6010.0 0.0042207
6030.0 0.0040425
6050.0 0.0042625
6070.0 0.0044676
6090.0 0.0043177
6110.0 0.0040736
6130.0 0.0041564
6150.0 0.0045072
6170.0 0.0048294
6190.0 0.0050137
6210.0 0.0050709
6230.0 0.0049325
6250.0 0.0044943
6270.0 0.0038682
6290.0 0.0033533
6310.0 0.0031708
6330.0 0.0032672
6350.0 0.0034349
6370.0 0.0036506
6390.0 0.0041121
6410.0 0.0048057
6430.0 0.0053828
6450.0 0.0056705
6470.0 0.0058297
6490.0 0.0059464
6510.0 0.0059945
6530.0 0.0060266
6550.0 0.0061077
6570.0 0.0062094
6590.0 0.0062786
6610.0 0.0062036
6630.0 0.0059254
6650.0 0.0055043
6670.0 0.005103
6690.0 0.0048445
6710.0 0.0046488
6730.0 0.0044417
6750.0 0.0043425
6770.0 0.0044421
6790.0 0.0045848
6810.0 0.0046289
6830.0 0.0045554
6850.0 0.0043771
6870.0 0.0041955
6890.0 0.0040935
6910.0 0.0041048
6930.0 0.0041744
6950.0 0.0042295
6970.0 0.0042777
6990.0 0.0042643
7010.0 0.0041292
7030.0 0.0038488
7050.0 0.0034837
7070.0 0.0032281
7090.0 0.0031943
7110.0 0.0032466
7130.0 0.0031352
7150.0 0.0029116
7170.0 0.0028831
7190.0 0.0031406
7210.0 0.0035014
7230.0 0.0037941
7250.0 0.0039136
7270.0 0.0038287
7290.0 0.0036316
7310.0 0.003481
7330.0 0.0034865
7350.0 0.0035706
7370.0 0.0036387
7390.0 0.0037952
7410.0 0.0041088
7430.0 0.0044678
7450.0 0.0047465
7470.0 0.0048274
7490.0 0.0045962
7510.0 0.0042612
7530.0 0.004067
7550.0 0.0038464
7570.0 0.0036158
7590.0 0.0034967
7610.0 0.0034894
7630.0 0.0035998
7650.0 0.0038381
7670.0 0.004144
7690.0 0.0044194
7710.0 0.0046131
7730.0 0.0047728
7750.0 0.0049013
7770.0 0.0049515
7790.0 0.0050102
7810.0 0.0050016
7830.0 0.0048324
7850.0 0.0046475
7870.0 0.0045379
7890.0 0.0045245
7910.0 0.0045185
7930.0 0.0044035
7950.0 0.0042466
7970.0 0.004084
7990.0 0.0039432
8010.0 0.0037488
8030.0 0.0037463
8050.0 0.0037313
8070.0 0.003673
8090.0 0.0036288
8110.0 0.0035646
8130.0 0.0035592
8150.0 0.0035247
8170.0 0.003455
8190.0 0.0033507
8210.0 0.0032336
8230.0 0.0031231
8250.0 0.0030799
8270.0 0.002896
8290.0 0.0025094
8310.0 0.0020803
8330.0 0.001788
8350.0 0.0017121
8370.0 0.0018931
8390.0 0.0021576
8410.0 0.0022982
8430.0 0.0023804
8450.0 0.0025387
8470.0 0.0027349
8490.0 0.0030027
8510.0 0.0033133
8530.0 0.0036364
8550.0 0.0038908
8570.0 0.0040766
8590.0 0.0042134
8610.0 0.004288
8630.0 0.0042671
8650.0 0.0041874
8670.0 0.0041864
8690.0 0.0043933
8710.0 0.0046759
8730.0 0.0048069
8750.0 0.0047648
8770.0 0.0048059
8790.0 0.0047999
8810.0 0.0045826
8830.0 0.0042461
8850.0 0.0038271
8870.0 0.0035079
8890.0 0.0034068
8910.0 0.0033432
8930.0 0.0031259
8950.0 0.0028895
8970.0 0.0027908
8990.0 0.0027954
9010.0 0.0027444
9030.0 0.0026957
9050.0 0.0026707
9070.0 0.0026574
9090.0 0.0026458
9110.0 0.0026345
9130.0 0.0026232
9150.0 0.0026122
9170.0 0.0026009
9190.0 0.0025915
9210.0 0.0025858
9230.0 0.0025729
9250.0 0.0025612
9270.0 0.0025502
9290.0 0.0025397
9310.0 0.0025295
9330.0 0.0025195
9350.0 0.00251
9370.0 0.0025006
9390.0 0.0024912
9410.0 0.002482
9430.0 0.0024724
9450.0 0.0024595
9470.0 0.0024479
9490.0 0.0024426
9510.0 0.0024357
9530.0 0.0024284
9550.0 0.0024206
9570.0 0.0024126
9590.0 0.0024047
9610.0 0.0023967
9630.0 0.0023887
9650.0 0.0023807
9670.0 0.002373
9690.0 0.0023652
9710.0 0.0023575
9730.0 0.0023499
9750.0 0.0023424
9770.0 0.0023347
9790.0 0.0023272
9810.0 0.0023198
9830.0 0.0023123
9850.0 0.0023047
9870.0 0.0022975
9890.0 0.0022901
9910.0 0.0022826
9930.0 0.0022751
9950.0 0.0022594
9970.0 0.0022544
9990.0 0.0022488
10010.0 0.0022431
10030.0 0.0022367
10050.0 0.0022295
10070.0 0.0022223
10090.0 0.0022152
10110.0 0.0022068
10130.0 0.0021965
10150.0 0.0021892
10170.0 0.0021821
10190.0 0.002174
10210.0 0.0021663
10230.0 0.0021586
10250.0 0.00215
10270.0 0.0021413
10290.0 0.0021332
10310.0 0.0021242
10330.0 0.0021145
10350.0 0.0021055
10370.0 0.0020965
10390.0 0.0020866
10410.0 0.0020766
10430.0 0.0020674
10450.0 0.0020572
10470.0 0.0020466
10490.0 0.0020363
10510.0 0.002026
10530.0 0.0020144
10550.0 0.002003
10570.0 0.0019922
10590.0 0.0019805
10610.0 0.0019683
10630.0 0.0019567
10650.0 0.0019447
10670.0 0.0019316
10690.0 0.0019187
10710.0 0.001906
10730.0 0.0018925
10750.0 0.0018781
10770.0 0.0018648
10790.0 0.0018509
10810.0 0.0018361
10830.0 0.0018214
10850.0 0.0018072
10870.0 0.0017914
10890.0 0.0017753
10910.0 0.0017598
10930.0 0.0017437
10950.0 0.0017266
10970.0 0.0017096
10990.0 0.001693
11010.0 0.0018134
11030.0 0.001795
11050.0 0.0017773
11070.0 0.0017593
11090.0 0.00174
11110.0 0.0017221
11130.0 0.0017045
11150.0 0.0016863
11170.0 0.0016682
11190.0 0.0016512
11210.0 0.0016338
11230.0 0.001616
11250.0 0.0015991
11270.0 0.0015827
11290.0 0.0015659
11310.0 0.0015494
11330.0 0.0015342
11350.0 0.0015188
11370.0 0.0015032
11390.0 0.0014881
11410.0 0.0014731
11430.0 0.0014568
11450.0 0.0014403
11470.0 0.0014236
11490.0 0.0014057
11510.0 0.0013861
11530.0 0.0013664
11550.0 0.0013457
11570.0 0.0013232
11590.0 0.0012999
11610.0 0.0012765
11630.0 0.0012515
11650.0 0.0012254
11670.0 0.0012
11690.0 0.0011744
11710.0 0.0011479
11730.0 0.0011217
11750.0 0.0010966
11770.0 0.0010708
11790.0 0.0010449
11810.0 0.0010201
11830.0 0.00099554
11850.0 0.00097014
11870.0 0.00094576
11890.0 0.00092246
11910.0 0.00089889
11930.0 0.00087555
11950.0 0.00085357
11970.0 0.000832
11990.0 0.00081035
12010.0 0.00079003
12030.0 0.00077094
12050.0 0.00075231
12070.0 0.00073446
12090.0 0.00071863
12110.0 0.00070376
12130.0 0.00068985
12150.0 0.00067757
12170.0 0.00066689
12190.0 0.00065726
12210.0 0.00064931
12230.0 0.00064308
12250.0 0.00063835
12270.0 0.00063518
12290.0 0.00063356
12310.0 0.00063325
12330.0 0.00063439
12350.0 0.00063677
12370.0 0.00063998
12390.0 0.00064412
12410.0 0.00064943
12430.0 0.00065481
12450.0 0.00066041
12470.0 0.0006665
12490.0 0.0006726
12510.0 0.00067814
12530.0 0.0006837
12550.0 0.00068906
12570.0 0.00069357
12590.0 0.00069732
12610.0 0.00070056
12630.0 0.0007028
12650.0 0.00070366
12670.0 0.00070354
12690.0 0.00070224
12710.0 0.00069957
12730.0 0.00069564
12750.0 0.00069039
12770.0 0.00068386
12790.0 0.00067628
12810.0 0.00066757
12830.0 0.00065778
12850.0 0.0006475
12870.0 0.00063672
12890.0 0.00062526
12910.0 0.00061366
12930.0 0.00060223
12950.0 0.00059055
12970.0 0.00057885
12990.0 0.00056779
13010.0 0.00055701
13030.0 0.00054631
13050.0 0.00053608
13070.0 0.00052645
13090.0 0.0005169
13110.0 0.00050763
13130.0 0.0004989
13150.0 0.00049046
13170.0 0.00048205
13190.0 0.00047414
13210.0 0.00046667
13230.0 0.00045933
13250.0 0.00045224
13270.0 0.00044561
13290.0 0.00043919
13310.0 0.0004329
13330.0 0.00042699
13350.0 0.00042142
13370.0 0.000416
13390.0 0.00041078
13410.0 0.00040599
13430.0 0.00040138
13450.0 0.00039691
13470.0 0.0003927
13490.0 0.00038874
13510.0 0.00038479
13530.0 0.00038099
13550.0 0.00037737
13570.0 0.00037379
13590.0 0.00037019
13610.0 0.00036668
13630.0 0.00036323
13650.0 0.00035969
13670.0 0.00035615
13690.0 0.00035269
13710.0 0.0003492
13730.0 0.00034562
13750.0 0.00034219
13770.0 0.00033884
13790.0 0.00033547
13810.0 0.00033219
13830.0 0.00032909
13850.0 0.00032602
13870.0 0.00032301
13890.0 0.00032017
13910.0 0.00031746
13930.0 0.00031476
13950.0 0.00031217
13970.0 0.00030973
13990.0 0.00030729
14010.0 0.00030484
14030.0 0.00030247
14050.0 0.0003001
14070.0 0.0002976
14090.0 0.0002951
14110.0 0.00029261
14130.0 0.00029003
14150.0 0.00028736
14170.0 0.00028478
14190.0 0.0002822
14210.0 0.00027958
14230.0 0.00027706
14250.0 0.00027471
14270.0 0.0002724
14290.0 0.00027024
14310.0 0.00026836
14330.0 0.00026667
14350.0 0.00026516
14370.0 0.00026389
14390.0 0.00026286
14410.0 0.00026197
14430.0 0.00026125
14450.0 0.00026071
14470.0 0.00026027
14490.0 0.00025989
14510.0 0.00025959
14530.0 0.00025936
14550.0 0.00025915
14570.0 0.00025898
14590.0 0.00025889
14610.0 0.00025887
14630.0 0.00025897
14650.0 0.00025924
14670.0 0.00025972
14690.0 0.00026049
14710.0 0.00026163
14730.0 0.00026312
14750.0 0.00026509
14770.0 0.00026764
14790.0 0.00027073
14810.0 0.00027436
14830.0 0.00027889
14850.0 0.0002841
14870.0 0.00028981
14890.0 0.0002962
14910.0 0.00030326
14930.0 0.00031036
14950.0 0.00031732
14970.0 0.00032422
14990.0 0.00033043
15010.0 0.00033565
15030.0 0.00034005
15050.0 0.00034363
15070.0 0.00034628
15090.0 0.00034837
15110.0 0.00035011
15130.0 0.00035159
15150.0 0.00035295
15170.0 0.00035427
15190.0 0.00035558
15210.0 0.0003569
15230.0 0.00035825
15250.0 0.00035962
15270.0 0.00036102
15290.0 0.00036244
15310.0 0.0003639
15330.0 0.00036537
15350.0 0.00036688
15370.0 0.00036841
15390.0 0.00036997
15410.0 0.00037155
15430.0 0.00037316
15450.0 0.00037479
15470.0 0.00037644
15490.0 0.00037812
15510.0 0.00037982
15530.0 0.00038155
15550.0 0.00038329
15570.0 0.00038506
15590.0 0.00038685
15610.0 0.00038866
15630.0 0.00039049
15650.0 0.00039234
15670.0 0.00039421
15690.0 0.0003961
15710.0 0.00039801
15730.0 0.00039993
15750.0 0.00040188
15770.0 0.00040384
15790.0 0.00040581
15810.0 0.0004078
15830.0 0.00040981
15850.0 0.00041183
15870.0 0.00041387
15890.0 0.00041592
15910.0 0.00041798
15930.0 0.00042005
15950.0 0.00042213
15970.0 0.00042423
15990.0 0.00042634
16010.0 0.00042845
16030.0 0.00043057
16050.0 0.00043271
16070.0 0.00043485
16090.0 0.00043699
16110.0 0.00043914
16130.0 0.0004413
16150.0 0.00044346
16170.0 0.00044562
16190.0 0.00044779
16210.0 0.00044996
16230.0 0.00045213
16250.0 0.0004543
16270.0 0.00045648
16290.0 0.00045865
16310.0 0.00046081
16330.0 0.00046298
16350.0 0.00046515
16370.0 0.0004673
16390.0 0.00046946
16410.0 0.0004716
16430.0 0.00047374
16450.0 0.00047588
16470.0 0.000478
16490.0 0.00048012
16510.0 0.00048222
16530.0 0.00048432
16550.0 0.0004864
16570.0 0.00048847
16590.0 0.00049053
16610.0 0.00049257
16630.0 0.0004946
16650.0 0.00049661
16670.0 0.0004986
16690.0 0.00050058
16710.0 0.00050254
16730.0 0.00050448
16750.0 0.0005064
16770.0 0.00050829
16790.0 0.00051017
16810.0 0.00051202
16830.0 0.00051385
16850.0 0.00051565
16870.0 0.00051743
16890.0 0.00051919
16910.0 0.00052091
16930.0 0.00052261
16950.0 0.00052428
16970.0 0.00052592
16990.0 0.00052753
17010.0 0.00052911
17030.0 0.00053067
17050.0 0.00053218
17070.0 0.00053367
17090.0 0.00053512
17110.0 0.00053654
17130.0 0.00053791
17150.0 0.00053926
17170.0 0.00054057
17190.0 0.00054185
17210.0 0.00054308
17230.0 0.00054428
17250.0 0.00054544
17270.0 0.00054656
17290.0 0.00054764
17310.0 0.00054869
17330.0 0.00054968
17350.0 0.00055064
17370.0 0.00055156
17390.0 0.00055244
17410.0 0.00055327
17430.0 0.00055406
17450.0 0.00055481
17470.0 0.00055551
17490.0 0.00055617
17510.0 0.00055678
17530.0 0.00055735
17550.0 0.00055787
17570.0 0.00055835
17590.0 0.00055879
17610.0 0.00055918
17630.0 0.00055952
17650.0 0.00055982
17670.0 0.00056007
17690.0 0.00056027
17710.0 0.00056042
17730.0 0.00056053
17750.0 0.0005606
17770.0 0.00056061
17790.0 0.00056058
17810.0 0.00056051
17830.0 0.00056038
17850.0 0.00056021
17870.0 0.00055999
17890.0 0.00055973
17910.0 0.00055942
17930.0 0.00055906
17950.0 0.00055866
17970.0 0.00055821
17990.0 0.00055771
18010.0 0.00055717
18030.0 0.00055658
18050.0 0.00055595
18070.0 0.00055527
18090.0 0.00055455
18110.0 0.00055378
18130.0 0.00055297
18150.0 0.00055212
18170.0 0.00055122
18190.0 0.00055028
18210.0 0.0005493
18230.0 0.00054827
18250.0 0.0005472
18270.0 0.00054609
18290.0 0.00054494
18310.0 0.00054375
18330.0 0.00054252
18350.0 0.00054125
18370.0 0.00053993
18390.0 0.00053858
18410.0 0.0005372
18430.0 0.00053577
18450.0 0.00053431
18470.0 0.00053281
18490.0 0.00053128
18510.0 0.00052971
18530.0 0.00052811
18550.0 0.00052647
18570.0 0.0005248
18590.0 0.00052309
18610.0 0.00052136
18630.0 0.00051959
18650.0 0.00051779
18670.0 0.00051596
18690.0 0.0005141
18710.0 0.00051221
18730.0 0.00051029
18750.0 0.00050835
18770.0 0.00050638
18790.0 0.00050438
18810.0 0.00050236
18830.0 0.00050031
18850.0 0.00049824
18870.0 0.00049614
18890.0 0.00049403
18910.0 0.00049189
18930.0 0.00048972
18950.0 0.00048754
18970.0 0.00048534
18990.0 0.00048311
19010.0 0.00048087
19030.0 0.00047861
19050.0 0.00047633
19070.0 0.00047404
19090.0 0.00047173
19110.0 0.00046941
19130.0 0.00046706
19150.0 0.00046471
19170.0 0.00046234
19190.0 0.00045996
19210.0 0.00045757
19230.0 0.00045516
19250.0 0.00045275
19270.0 0.00045033
19290.0 0.00044789
19310.0 0.00044545
19330.0 0.000443
19350.0 0.00044054
19370.0 0.00043807
19390.0 0.0004356
19410.0 0.00043312
19430.0 0.00043063
19450.0 0.00042815
19470.0 0.00042565
19490.0 0.00042316
19510.0 0.00042066
19530.0 0.00041816
19550.0 0.00041565
19570.0 0.00041314
19590.0 0.00041064
19610.0 0.00040813
19630.0 0.00040563
19650.0 0.00040312
19670.0 0.00040062
19690.0 0.00039811
19710.0 0.00039561
19730.0 0.00039311
19750.0 0.00039062
19770.0 0.00038812
19790.0 0.00038564
19810.0 0.00038315
19830.0 0.00038066
19850.0 0.00037816
19870.0 0.00037563
19890.0 0.00037303
19910.0 0.00037029
19930.0 0.00036735
19950.0 0.0003641
19970.0 0.00036036
19990.0 0.00035605
20010.0 0.00035123
20030.0 0.00034571
20050.0 0.00033954
20070.0 0.00033302
20090.0 0.00032622
20110.0 0.00031891
20130.0 0.00031168
20150.0 0.00030464
20170.0 0.00029756
20190.0 0.00029055
20210.0 0.00028393
20230.0 0.00027752
20250.0 0.00027117
20270.0 0.00026517
20290.0 0.00025956
20310.0 0.00025411
20330.0 0.00024887
20350.0 0.00024415
20370.0 0.00023969
20390.0 0.00023544
20410.0 0.00023155
20430.0 0.000228
20450.0 0.00022463
20470.0 0.00022153
20490.0 0.00021874
20510.0 0.00021617
20530.0 0.00021378
20550.0 0.00021161
20570.0 0.00020963
20590.0 0.00020778
20610.0 0.00020606
20630.0 0.00020446
20650.0 0.00020293
20670.0 0.00020147
20690.0 0.00020006
20710.0 0.00019868
20730.0 0.00019729
20750.0 0.0001959
20770.0 0.00019448
20790.0 0.00019302
20810.0 0.00019151
20830.0 0.00018994
20850.0 0.00018831
20870.0 0.0001866
20890.0 0.00018481
20910.0 0.00018299
20930.0 0.00018108
20950.0 0.0001791
20970.0 0.00017709
20990.0 0.00017504
21010.0 0.00017292
21030.0 0.00017078
21050.0 0.00016865
21070.0 0.00016649
21090.0 0.0001643
21110.0 0.00016217
21130.0 0.00016006
21150.0 0.00015794
21170.0 0.00015585
21190.0 0.00015384
21210.0 0.00015183
21230.0 0.00014983
21250.0 0.00014793
21270.0 0.00014608
21290.0 0.00014424
21310.0 0.00014247
21330.0 0.0001408
21350.0 0.00013915
21370.0 0.00013755
21390.0 0.00013604
21410.0 0.00013459
21430.0 0.00013318
21450.0 0.00013184
21470.0 0.00013059
21490.0 0.00012938
21510.0 0.00012823
21530.0 0.00012715
21550.0 0.00012613
21570.0 0.00012515
21590.0 0.00012422
21610.0 0.00012334
21630.0 0.00012249
21650.0 0.00012168
21670.0 0.0001209
21690.0 0.00012014
21710.0 0.00011941
21730.0 0.0001187
21750.0 0.00011801
21770.0 0.00011733
21790.0 0.00011666
21810.0 0.000116
21830.0 0.00011536
21850.0 0.00011472
21870.0 0.0001141
21890.0 0.00011347
21910.0 0.00011286
21930.0 0.00011225
21950.0 0.00011164
21970.0 0.00011104
21990.0 0.00011043
22010.0 0.00010982
22030.0 0.00010921
22050.0 0.00010859
22070.0 0.00010796
22090.0 0.00010731
22110.0 0.00010666
22130.0 0.00010599
22150.0 0.00010531
22170.0 0.00010461
22190.0 0.0001039
22210.0 0.00010316
22230.0 0.00010242
22250.0 0.00010166
22270.0 0.00010088
22290.0 0.00010008
22310.0 9.9275e-05
22330.0 9.8429e-05
22350.0 9.7564e-05
22370.0 9.6685e-05
22390.0 9.577e-05
22410.0 9.4807e-05
22430.0 9.3834e-05
22450.0 9.2831e-05
22470.0 9.1771e-05
22490.0 9.0678e-05
22510.0 8.9574e-05
22530.0 8.8404e-05
22550.0 8.7184e-05
22570.0 8.5968e-05
22590.0 8.4727e-05
22610.0 8.3434e-05
22630.0 8.2139e-05
22650.0 8.0875e-05
22670.0 7.9575e-05
22690.0 7.8273e-05
22710.0 7.7017e-05
22730.0 7.5784e-05
22750.0 7.4528e-05
22770.0 7.3342e-05
22790.0 7.2219e-05
22810.0 7.1115e-05
22830.0 7.0051e-05
22850.0 6.9068e-05
22870.0 6.8126e-05
22890.0 6.7211e-05
22910.0 6.6364e-05
22930.0 6.5576e-05
22950.0 6.4818e-05
22970.0 6.4092e-05
22990.0 6.3437e-05
23010.0 6.2807e-05
23030.0 6.2198e-05
23050.0 6.1625e-05
23070.0 6.1084e-05
