#lamb flux
1010.0 7.2149e-06
1030.0 7.8869e-06
1050.0 8.6636e-06
1070.0 9.5411e-06
1090.0 1.0541e-05
1110.0 1.1573e-05
1130.0 1.262e-05
1150.0 1.3725e-05
1170.0 1.4873e-05
1190.0 1.5977e-05
1210.0 1.7106e-05
1230.0 1.8286e-05
1250.0 1.9458e-05
1270.0 2.0615e-05
1290.0 2.1849e-05
1310.0 2.3101e-05
1330.0 2.4326e-05
1350.0 2.5582e-05
1370.0 2.6895e-05
1390.0 2.8201e-05
1410.0 2.9493e-05
1430.0 3.0857e-05
1450.0 3.2242e-05
1470.0 3.3607e-05
1490.0 3.5003e-05
1510.0 3.6484e-05
1530.0 3.7916e-05
1550.0 3.9346e-05
1570.0 4.0827e-05
1590.0 4.2319e-05
1610.0 4.376e-05
1630.0 4.524e-05
1650.0 4.6748e-05
1670.0 4.8209e-05
1690.0 4.964e-05
1710.0 5.1102e-05
1730.0 5.2548e-05
1750.0 5.3888e-05
1770.0 5.523e-05
1790.0 5.6556e-05
1810.0 5.7796e-05
1830.0 5.8962e-05
1850.0 6.0145e-05
1870.0 6.1233e-05
1890.0 6.221e-05
1910.0 6.3141e-05
1930.0 6.4024e-05
1950.0 6.4771e-05
1970.0 6.5422e-05
1990.0 6.6034e-05
2010.0 6.6539e-05
2030.0 6.6917e-05
2050.0 6.7243e-05
2070.0 6.7512e-05
2090.0 6.7631e-05
2110.0 6.7666e-05
2130.0 6.7655e-05
2150.0 6.7547e-05
2170.0 6.7324e-05
2190.0 6.7074e-05
2210.0 6.6767e-05
2230.0 6.6364e-05
2250.0 6.5907e-05
2270.0 6.5446e-05
2290.0 6.4914e-05
2310.0 6.4313e-05
2330.0 6.371e-05
2350.0 6.309e-05
2370.0 6.2414e-05
2390.0 6.173e-05
2410.0 6.1063e-05
2430.0 6.0344e-05
2450.0 5.9574e-05
2470.0 5.8767e-05
2490.0 5.7894e-05
2510.0 5.6931e-05
2530.0 5.5976e-05
2550.0 5.5179e-05
2570.0 5.4761e-05
2590.0 5.4992e-05
2610.0 5.6418e-05
2630.0 5.9304e-05
2650.0 6.3519e-05
2670.0 6.9177e-05
2690.0 7.6137e-05
2710.0 8.3388e-05
2730.0 9.0406e-05
2750.0 9.7373e-05
2770.0 0.00010361
2790.0 0.00010892
2810.0 0.00011378
2830.0 0.0001186
2850.0 0.00012294
2870.0 0.00012724
2890.0 0.00013182
2910.0 0.00013652
2930.0 0.00014106
2950.0 0.00014592
2970.0 0.00015101
2990.0 0.000156
3010.0 0.00035668
3030.0 0.00036856
3050.0 0.0003807
3070.0 0.00039231
3090.0 0.00040445
3110.0 0.00041679
3130.0 0.00042848
3150.0 0.00043958
3170.0 0.00045059
3190.0 0.0004601
3210.0 0.00046735
3230.0 0.00047399
3250.0 0.00046625
3270.0 0.00047138
3290.0 0.00046695
3310.0 0.00050756
3330.0 0.00054483
3350.0 0.00058552
3370.0 0.00063241
3390.0 0.00068523
3410.0 0.00074017
3430.0 0.0007992
3450.0 0.00086441
3470.0 0.00093356
3490.0 0.0010058
3510.0 0.0010822
3530.0 0.0011637
3550.0 0.0012687
3570.0 0.0013898
3590.0 0.0014904
3610.0 0.0016031
3630.0 0.0016456
3650.0 0.0016791
3670.0 0.0016999
3690.0 0.0017476
3710.0 0.0018017
3730.0 0.001772
3750.0 0.0017196
3770.0 0.0016477
3790.0 0.0015638
3810.0 0.0014577
3830.0 0.0012893
3850.0 0.0008055
3870.0 0.0011192
3890.0 0.0015258
3910.0 0.0018827
3930.0 0.0021711
3950.0 0.0023048
3970.0 0.002403
3990.0 0.0028869
4010.0 0.0027294
4030.0 0.0023903
4050.0 0.0021204
4070.0 0.0019089
4090.0 0.0022364
4110.0 0.0023844
4130.0 0.0024045
4150.0 0.0023741
4170.0 0.0022331
4190.0 0.0021099
4210.0 0.0024909
4230.0 0.002822
4250.0 0.0028741
4270.0 0.0027723
4290.0 0.0028244
4310.0 0.002998
4330.0 0.0034028
4350.0 0.003653
4370.0 0.0036016
4390.0 0.0030371
4410.0 0.0026001
4430.0 0.0022044
4450.0 0.0019161
4470.0 0.0019931
4490.0 0.0024862
4510.0 0.0026945
4530.0 0.0029606
4550.0 0.0031859
4570.0 0.0039433
4590.0 0.0057325
4610.0 0.0074883
4630.0 0.0075083
4650.0 0.007032
4670.0 0.0075689
4690.0 0.0085361
4710.0 0.0072157
4730.0 0.0052356
4750.0 0.0040704
4770.0 0.0038049
4790.0 0.003882
4810.0 0.0036084
4830.0 0.0039232
4850.0 0.0047869
4870.0 0.0058666
4890.0 0.0053502
4910.0 0.0045709
4930.0 0.0049255
4950.0 0.0064811
4970.0 0.0085469
4990.0 0.0088456
5010.0 0.0077331
5030.0 0.005941
5050.0 0.0042462
5070.0 0.0035093
5090.0 0.0032739
5110.0 0.0032777
5130.0 0.0034243
5150.0 0.0033678
5170.0 0.0034485
5190.0 0.0032967
5210.0 0.0033613
5230.0 0.0036348
5250.0 0.0039369
5270.0 0.0048917
5290.0 0.0057219
5310.0 0.0057009
5330.0 0.0058914
5350.0 0.0067392
5370.0 0.0073626
5390.0 0.0068129
5410.0 0.0058212
5430.0 0.0054992
5450.0 0.006373
5470.0 0.0083196
5490.0 0.010397
5510.0 0.011383
5530.0 0.011536
5550.0 0.010964
5570.0 0.010346
5590.0 0.010076
5610.0 0.010261
5630.0 0.010465
5650.0 0.010488
5670.0 0.010507
5690.0 0.010284
5710.0 0.0090504
5730.0 0.0076447
5750.0 0.0065273
5770.0 0.0067016
5790.0 0.0073731
5810.0 0.007986
5830.0 0.0083019
5850.0 0.0082601
5870.0 0.0076469
5890.0 0.006712
5910.0 0.0067191
5930.0 0.0074602
5950.0 0.0076147
5970.0 0.0069463
5990.0 0.0060171
6010.0 0.0049218
6030.0 0.0041302
6050.0 0.004161
6070.0 0.0048013
6090.0 0.0050612
6110.0 0.0045003
6130.0 0.0041796
6150.0 0.0045467
6170.0 0.0054868
6190.0 0.0065333
6210.0 0.0069515
6230.0 0.0066527
6250.0 0.0061088
6270.0 0.0052658
6290.0 0.0043663
6310.0 0.0036507
6330.0 0.003367
6350.0 0.0035586
6370.0 0.0037528
6390.0 0.0039751
6410.0 0.0045713
6430.0 0.0057591
6450.0 0.0072588
6470.0 0.0080978
6490.0 0.0079376
6510.0 0.0078135
6530.0 0.0080987
6550.0 0.008189
6570.0 0.0083268
6590.0 0.0083589
6610.0 0.0082102
6630.0 0.008302
6650.0 0.0082615
6670.0 0.007845
6690.0 0.0069562
6710.0 0.0059105
6730.0 0.0058088
6750.0 0.0063004
6770.0 0.0067857
6790.0 0.0069557
6810.0 0.0068944
6830.0 0.0067823
6850.0 0.0066431
6870.0 0.0062391
6890.0 0.0059436
6910.0 0.0056419
6930.0 0.005497
6950.0 0.0059283
6970.0 0.0063681
6990.0 0.0066757
7010.0 0.0067111
7030.0 0.0063122
7050.0 0.0054816
7070.0 0.0044486
7090.0 0.0037917
7110.0 0.0037054
7130.0 0.0039685
7150.0 0.0039489
7170.0 0.0035809
7190.0 0.0035474
7210.0 0.0039294
7230.0 0.0045575
7250.0 0.0051817
7270.0 0.0054122
7290.0 0.0050114
7310.0 0.0044272
7330.0 0.0040631
7350.0 0.0040121
7370.0 0.004133
7390.0 0.0042951
7410.0 0.0045861
7430.0 0.0052706
7450.0 0.0061413
7470.0 0.0069533
7490.0 0.0072775
7510.0 0.0070115
7530.0 0.0058505
7550.0 0.0047957
7570.0 0.0040025
7590.0 0.0035384
7610.0 0.003679
7630.0 0.0042538
7650.0 0.0048531
7670.0 0.005426
7690.0 0.0058476
7710.0 0.0061919
7730.0 0.0065221
7750.0 0.0068308
7770.0 0.006974
7790.0 0.0069295
7810.0 0.0070164
7830.0 0.0072552
7850.0 0.0071684
7870.0 0.0069125
7890.0 0.0064473
7910.0 0.0060184
7930.0 0.0057662
7950.0 0.0056774
7970.0 0.0055899
7990.0 0.0055888
8010.0 0.0056883
8030.0 0.0057014
8050.0 0.0058059
8070.0 0.0057202
8090.0 0.005696
8110.0 0.0054467
8130.0 0.0053956
8150.0 0.0052492
8170.0 0.0050874
8190.0 0.0049988
8210.0 0.0050182
8230.0 0.004751
8250.0 0.0044802
8270.0 0.0039166
8290.0 0.0031406
8310.0 0.0023819
8330.0 0.001809
8350.0 0.0016137
8370.0 0.0018527
8390.0 0.0021875
8410.0 0.0024136
8430.0 0.0026147
8450.0 0.0027426
8470.0 0.0028714
8490.0 0.0031817
8510.0 0.0035663
8530.0 0.0041392
8550.0 0.0048159
8570.0 0.0054279
8590.0 0.0059156
8610.0 0.0062931
8630.0 0.0065104
8650.0 0.0065249
8670.0 0.0065194
8690.0 0.0067319
8710.0 0.0069105
8730.0 0.0070807
8750.0 0.0069636
8770.0 0.0069863
8790.0 0.0068846
8810.0 0.0064067
8830.0 0.0061792
8850.0 0.0057993
8870.0 0.0055029
8890.0 0.0052857
8910.0 0.0053715
8930.0 0.0050632
8950.0 0.0048375
8970.0 0.0047426
8990.0 0.0046388
9010.0 0.0045143
9030.0 0.0044037
9050.0 0.0043756
9070.0 0.0043624
9090.0 0.0043499
9110.0 0.0043379
9130.0 0.004325
9150.0 0.0043119
9170.0 0.0042943
9190.0 0.0042731
9210.0 0.0042899
9230.0 0.0042679
9250.0 0.0042501
9270.0 0.0042336
9290.0 0.004218
9310.0 0.0042028
9330.0 0.0041878
9350.0 0.0041733
9370.0 0.0041586
9390.0 0.0041437
9410.0 0.0041288
9430.0 0.0041137
9450.0 0.0040962
9470.0 0.0040793
9490.0 0.0040663
9510.0 0.004052
9530.0 0.0040373
9550.0 0.0040224
9570.0 0.0040072
9590.0 0.0039918
9610.0 0.0039763
9630.0 0.0039608
9650.0 0.0039453
9670.0 0.0039296
9690.0 0.003914
9710.0 0.0038983
9730.0 0.0038826
9750.0 0.0038669
9770.0 0.0038512
9790.0 0.0038355
9810.0 0.0038197
9830.0 0.003804
9850.0 0.0037883
9870.0 0.0037724
9890.0 0.0037566
9910.0 0.0037408
9930.0 0.0037246
9950.0 0.0036821
9970.0 0.0036741
9990.0 0.0036647
10010.0 0.0036543
10030.0 0.0036418
10050.0 0.0036273
10070.0 0.0036119
10090.0 0.0035976
10110.0 0.0035816
10130.0 0.0035666
10150.0 0.0035512
10170.0 0.0035349
10190.0 0.0035177
10210.0 0.0035017
10230.0 0.0034862
10250.0 0.0034695
10270.0 0.0034531
10290.0 0.0034375
10310.0 0.003421
10330.0 0.0034037
10350.0 0.0033875
10370.0 0.0033714
10390.0 0.0033542
10410.0 0.0033372
10430.0 0.0033213
10450.0 0.0033043
10470.0 0.0032868
10490.0 0.0032701
10510.0 0.0032534
10530.0 0.0032351
10550.0 0.0032174
10570.0 0.0032006
10590.0 0.0031828
10610.0 0.0031645
10630.0 0.0031472
10650.0 0.0031296
10670.0 0.0031106
10690.0 0.0030921
10710.0 0.0030743
10730.0 0.0030554
10750.0 0.0030354
10770.0 0.0030172
10790.0 0.0029985
10810.0 0.0029786
10830.0 0.0029591
10850.0 0.0029403
10870.0 0.0029194
10890.0 0.002898
10910.0 0.0028771
10930.0 0.0028546
10950.0 0.0028293
10970.0 0.0028026
10990.0 0.0027747
11010.0 0.0025729
11030.0 0.0025386
11050.0 0.0025057
11070.0 0.0024727
11090.0 0.0024376
11110.0 0.0024057
11130.0 0.0023752
11150.0 0.0023441
11170.0 0.0023136
11190.0 0.0022855
11210.0 0.0022568
11230.0 0.0022273
11250.0 0.0021993
11270.0 0.0021721
11290.0 0.0021436
11310.0 0.0021154
11330.0 0.0020897
11350.0 0.0020636
11370.0 0.0020371
11390.0 0.0020121
11410.0 0.001988
11430.0 0.0019622
11450.0 0.001937
11470.0 0.0019127
11490.0 0.0018871
11510.0 0.0018598
11530.0 0.0018331
11550.0 0.0018057
11570.0 0.0017757
11590.0 0.0017448
11610.0 0.0017141
11630.0 0.0016807
11650.0 0.0016452
11670.0 0.0016108
11690.0 0.0015758
11710.0 0.001539
11730.0 0.0015027
11750.0 0.0014684
11770.0 0.0014331
11790.0 0.0013982
11810.0 0.0013656
11830.0 0.0013345
11850.0 0.0013029
11870.0 0.001274
11890.0 0.0012477
11910.0 0.0012219
11930.0 0.0011974
11950.0 0.0011753
11970.0 0.0011543
11990.0 0.0011334
12010.0 0.0011143
12030.0 0.0010968
12050.0 0.0010797
12070.0 0.0010631
12090.0 0.0010487
12110.0 0.0010351
12130.0 0.0010221
12150.0 0.0010106
12170.0 0.0010009
12190.0 0.00099174
12210.0 0.00098437
12230.0 0.00097909
12250.0 0.00097553
12270.0 0.00097386
12290.0 0.00097454
12310.0 0.00097744
12330.0 0.00098273
12350.0 0.00099052
12370.0 0.0010005
12390.0 0.0010129
12410.0 0.0010282
12430.0 0.0010449
12450.0 0.0010632
12470.0 0.0010835
12490.0 0.001105
12510.0 0.0011263
12530.0 0.0011484
12550.0 0.0011708
12570.0 0.001192
12590.0 0.001212
12610.0 0.0012313
12630.0 0.0012487
12650.0 0.0012633
12670.0 0.0012759
12690.0 0.0012863
12710.0 0.0012938
12730.0 0.0012988
12750.0 0.0013012
12770.0 0.001301
12790.0 0.0012986
12810.0 0.0012939
12830.0 0.001287
12850.0 0.0012788
12870.0 0.0012693
12890.0 0.0012582
12910.0 0.0012464
12930.0 0.0012343
12950.0 0.0012213
12970.0 0.0012075
12990.0 0.0011942
13010.0 0.0011808
13030.0 0.0011667
13050.0 0.0011527
13070.0 0.0011392
13090.0 0.0011249
13110.0 0.0011103
13130.0 0.0010962
13150.0 0.0010821
13170.0 0.0010674
13190.0 0.0010535
13210.0 0.0010406
13230.0 0.001028
13250.0 0.0010165
13270.0 0.0010067
13290.0 0.00099837
13310.0 0.00099157
13330.0 0.00098702
13350.0 0.00098452
13370.0 0.00098392
13390.0 0.00098522
13410.0 0.00098793
13430.0 0.00099172
13450.0 0.0009962
13470.0 0.0010006
13490.0 0.0010044
13510.0 0.0010072
13530.0 0.0010084
13550.0 0.0010075
13570.0 0.0010044
13590.0 0.00099867
13610.0 0.00099072
13630.0 0.00098086
13650.0 0.00096859
13670.0 0.00095471
13690.0 0.00094011
13710.0 0.00092451
13730.0 0.00090775
13750.0 0.00089199
13770.0 0.00087675
13790.0 0.00086171
13810.0 0.00084768
13830.0 0.00083526
13850.0 0.00082355
13870.0 0.00081285
13890.0 0.00080364
13910.0 0.00079557
13930.0 0.00078822
13950.0 0.00078188
13970.0 0.00077661
13990.0 0.00077186
14010.0 0.00076766
14030.0 0.00076406
14050.0 0.00076083
14070.0 0.00075776
14090.0 0.00075494
14110.0 0.00075226
14130.0 0.00074953
14150.0 0.00074667
14170.0 0.00074378
14190.0 0.00074074
14210.0 0.00073744
14230.0 0.00073403
14250.0 0.00073058
14270.0 0.00072697
14290.0 0.00072334
14310.0 0.00071995
14330.0 0.00071673
14350.0 0.00071371
14370.0 0.00071103
14390.0 0.00070873
14410.0 0.00070672
14430.0 0.00070503
14450.0 0.00070364
14470.0 0.00070245
14490.0 0.00070144
14510.0 0.00070054
14530.0 0.00069969
14550.0 0.00069891
14570.0 0.00069819
14590.0 0.00069754
14610.0 0.00069706
14630.0 0.00069687
14650.0 0.00069698
14670.0 0.00069751
14690.0 0.00069866
14710.0 0.00070054
14730.0 0.00070296
14750.0 0.00070626
14770.0 0.00071061
14790.0 0.00071579
14810.0 0.00072176
14830.0 0.00072934
14850.0 0.00073794
14870.0 0.0007472
14890.0 0.00075755
14910.0 0.00076891
14930.0 0.00078006
14950.0 0.00079062
14970.0 0.00080079
14990.0 0.00080929
15010.0 0.0008156
15030.0 0.00082003
15050.0 0.00082262
15070.0 0.00082324
15090.0 0.00082266
15110.0 0.00082123
15130.0 0.00081924
15150.0 0.00081696
15170.0 0.0008145
15190.0 0.00081195
15210.0 0.00080939
15230.0 0.00080681
15250.0 0.0008042
15270.0 0.00080159
15290.0 0.000799
15310.0 0.00079639
15330.0 0.00079376
15350.0 0.00079115
15370.0 0.00078854
15390.0 0.00078589
15410.0 0.00078326
15430.0 0.00078064
15450.0 0.000778
15470.0 0.00077535
15490.0 0.00077272
15510.0 0.00077009
15530.0 0.00076744
15550.0 0.0007648
15570.0 0.00076217
15590.0 0.00075952
15610.0 0.00075686
15630.0 0.00075423
15650.0 0.00075159
15670.0 0.00074894
15690.0 0.0007463
15710.0 0.00074368
15730.0 0.00074104
15750.0 0.00073839
15770.0 0.00073577
15790.0 0.00073314
15810.0 0.00073049
15830.0 0.00072787
15850.0 0.00072526
15870.0 0.00072264
15890.0 0.00072001
15910.0 0.00071742
15930.0 0.00071481
15950.0 0.00071219
15970.0 0.00070959
15990.0 0.000707
16010.0 0.0007044
16030.0 0.0007018
16050.0 0.00069924
16070.0 0.00069666
16090.0 0.00069408
16110.0 0.00069152
16130.0 0.00068898
16150.0 0.0006864
16170.0 0.00068385
16190.0 0.00068131
16210.0 0.00067878
16230.0 0.00067624
16250.0 0.00067372
16270.0 0.00067121
16290.0 0.00066869
16310.0 0.00066619
16330.0 0.0006637
16350.0 0.00066121
16370.0 0.00065871
16390.0 0.00065624
16410.0 0.00065379
16430.0 0.00065132
16450.0 0.00064886
16470.0 0.00064644
16490.0 0.000644
16510.0 0.00064156
16530.0 0.00063914
16550.0 0.00063674
16570.0 0.00063432
16590.0 0.00063192
16610.0 0.00062955
16630.0 0.00062717
16650.0 0.0006248
16670.0 0.00062245
16690.0 0.00062011
16710.0 0.00061775
16730.0 0.00061541
16750.0 0.0006131
16770.0 0.00061078
16790.0 0.00060846
16810.0 0.00060618
16830.0 0.0006039
16850.0 0.00060161
16870.0 0.00059934
16890.0 0.00059709
16910.0 0.00059484
16930.0 0.00059258
16950.0 0.00059036
16970.0 0.00058815
16990.0 0.00058592
17010.0 0.00058372
17030.0 0.00058155
17050.0 0.00057936
17070.0 0.00057718
17090.0 0.00057502
17110.0 0.00057288
17130.0 0.00057072
17150.0 0.00056859
17170.0 0.00056647
17190.0 0.00056436
17210.0 0.00056225
17230.0 0.00056017
17250.0 0.00055809
17270.0 0.000556
17290.0 0.00055394
17310.0 0.0005519
17330.0 0.00054985
17350.0 0.0005478
17370.0 0.0005458
17390.0 0.00054378
17410.0 0.00054177
17430.0 0.00053979
17450.0 0.00053782
17470.0 0.00053583
17490.0 0.00053386
17510.0 0.00053192
17530.0 0.00052998
17550.0 0.00052803
17570.0 0.00052612
17590.0 0.00052422
17610.0 0.0005223
17630.0 0.00052041
17650.0 0.00051854
17670.0 0.00051667
17690.0 0.00051478
17710.0 0.00051294
17730.0 0.00051111
17750.0 0.00050927
17770.0 0.00050744
17790.0 0.00050564
17810.0 0.00050384
17830.0 0.00050203
17850.0 0.00050026
17870.0 0.00049849
17890.0 0.00049671
17910.0 0.00049496
17930.0 0.00049322
17950.0 0.00049149
17970.0 0.00048976
17990.0 0.00048805
18010.0 0.00048635
18030.0 0.00048464
18050.0 0.00048295
18070.0 0.00048128
18090.0 0.00047961
18110.0 0.00047795
18130.0 0.00047631
18150.0 0.00047467
18170.0 0.00047303
18190.0 0.00047142
18210.0 0.00046981
18230.0 0.0004682
18250.0 0.0004666
18270.0 0.00046502
18290.0 0.00046345
18310.0 0.00046188
18330.0 0.00046033
18350.0 0.00045879
18370.0 0.00045724
18390.0 0.00045571
18410.0 0.00045419
18430.0 0.00045268
18450.0 0.00045117
18470.0 0.00044967
18490.0 0.0004482
18510.0 0.00044672
18530.0 0.00044524
18550.0 0.0004438
18570.0 0.00044234
18590.0 0.00044089
18610.0 0.00043946
18630.0 0.00043804
18650.0 0.00043661
18670.0 0.0004352
18690.0 0.00043381
18710.0 0.00043242
18730.0 0.00043103
18750.0 0.00042965
18770.0 0.0004283
18790.0 0.00042692
18810.0 0.00042557
18830.0 0.00042423
18850.0 0.00042289
18870.0 0.00042156
18890.0 0.00042024
18910.0 0.00041894
18930.0 0.00041763
18950.0 0.00041633
18970.0 0.00041505
18990.0 0.00041376
19010.0 0.00041247
19030.0 0.00041121
19050.0 0.00040996
19070.0 0.0004087
19090.0 0.00040746
19110.0 0.00040623
19130.0 0.000405
19150.0 0.00040377
19170.0 0.00040256
19190.0 0.00040135
19210.0 0.00040014
19230.0 0.00039895
19250.0 0.00039777
19270.0 0.00039659
19290.0 0.00039541
19310.0 0.00039426
19330.0 0.0003931
19350.0 0.00039194
19370.0 0.00039079
19390.0 0.00038966
19410.0 0.00038853
19430.0 0.00038739
19450.0 0.00038628
19470.0 0.00038518
19490.0 0.00038406
19510.0 0.00038297
19530.0 0.00038188
19550.0 0.00038079
19570.0 0.0003797
19590.0 0.00037864
19610.0 0.00037757
19630.0 0.00037651
19650.0 0.00037545
19670.0 0.00037442
19690.0 0.00037337
19710.0 0.00037233
19730.0 0.0003713
19750.0 0.00037028
19770.0 0.00036925
19790.0 0.00036824
19810.0 0.00036724
19830.0 0.00036623
19850.0 0.0003652
19870.0 0.00036417
19890.0 0.00036306
19910.0 0.00036181
19930.0 0.00036038
19950.0 0.00035865
19970.0 0.00035644
19990.0 0.00035366
20010.0 0.00035038
20030.0 0.00034638
20050.0 0.00034169
20070.0 0.00033661
20090.0 0.0003312
20110.0 0.00032521
20130.0 0.00031923
20150.0 0.0003134
20170.0 0.00030747
20190.0 0.00030155
20210.0 0.00029599
20230.0 0.00029059
20250.0 0.00028519
20270.0 0.00028012
20290.0 0.00027539
20310.0 0.00027078
20330.0 0.0002663
20350.0 0.00026234
20370.0 0.00025859
20390.0 0.000255
20410.0 0.00025175
20430.0 0.00024884
20450.0 0.00024607
20470.0 0.00024359
20490.0 0.00024146
20510.0 0.00023957
20530.0 0.00023791
20550.0 0.00023655
20570.0 0.00023547
20590.0 0.00023459
20610.0 0.00023395
20630.0 0.00023353
20650.0 0.0002333
20670.0 0.00023326
20690.0 0.00023336
20710.0 0.00023358
20730.0 0.00023393
20750.0 0.00023436
20770.0 0.00023481
20790.0 0.00023531
20810.0 0.00023584
20830.0 0.00023633
20850.0 0.00023677
20870.0 0.00023717
20890.0 0.00023749
20910.0 0.00023768
20930.0 0.00023776
20950.0 0.00023772
20970.0 0.00023752
20990.0 0.00023718
21010.0 0.00023668
21030.0 0.00023601
21050.0 0.00023521
21070.0 0.00023425
21090.0 0.00023311
21110.0 0.00023188
21130.0 0.00023055
21150.0 0.00022907
21170.0 0.00022753
21190.0 0.00022596
21210.0 0.0002243
21230.0 0.00022257
21250.0 0.00022089
21270.0 0.00021922
21290.0 0.00021753
21310.0 0.00021588
21330.0 0.00021436
21350.0 0.00021284
21370.0 0.0002114
21390.0 0.00021008
21410.0 0.00020887
21430.0 0.00020771
21450.0 0.00020671
21470.0 0.00020586
21490.0 0.00020513
21510.0 0.00020454
21530.0 0.00020411
21550.0 0.00020382
21570.0 0.00020369
21590.0 0.00020371
21610.0 0.00020388
21630.0 0.00020421
21650.0 0.00020472
21670.0 0.00020532
21690.0 0.00020606
21710.0 0.00020695
21730.0 0.00020793
21750.0 0.00020896
21770.0 0.00021014
21790.0 0.00021138
21810.0 0.00021261
21830.0 0.00021387
21850.0 0.00021519
21870.0 0.00021645
21890.0 0.00021764
21910.0 0.00021884
21930.0 0.00021997
21950.0 0.00022098
21970.0 0.00022192
21990.0 0.0002228
22010.0 0.00022353
22030.0 0.00022413
22050.0 0.00022463
22070.0 0.00022499
22090.0 0.00022521
22110.0 0.0002253
22130.0 0.00022526
22150.0 0.00022508
22170.0 0.00022476
22190.0 0.0002243
22210.0 0.00022369
22230.0 0.00022297
22250.0 0.0002221
22270.0 0.00022108
22290.0 0.00021995
22310.0 0.00021871
22330.0 0.00021728
22350.0 0.00021574
22370.0 0.00021413
22390.0 0.00021236
22410.0 0.00021042
22430.0 0.00020846
22450.0 0.00020641
22470.0 0.00020419
22490.0 0.0002019
22510.0 0.00019961
22530.0 0.00019717
22550.0 0.00019462
22570.0 0.00019214
22590.0 0.00018963
22610.0 0.00018703
22630.0 0.00018447
22650.0 0.00018202
22670.0 0.00017953
22690.0 0.00017706
22710.0 0.00017474
22730.0 0.0001725
22750.0 0.00017024
22770.0 0.00016815
22790.0 0.00016623
22810.0 0.00016435
22830.0 0.00016258
22850.0 0.00016098
22870.0 0.00015947
22890.0 0.00015801
22910.0 0.0001567
22930.0 0.0001555
22950.0 0.00015435
22970.0 0.00015327
22990.0 0.00015231
23010.0 0.0001514
23030.0 0.00015053
23050.0 0.00014971
23070.0 0.00014895
23090.0 0.00014818
23110.0 0.00014743
23130.0 0.00014672
23150.0 0.000146
