#lamb flux
1010.0 7.5275e-06
1030.0 7.9876e-06
1050.0 8.5168e-06
1070.0 9.1126e-06
1090.0 9.7894e-06
1110.0 1.0484e-05
1130.0 1.1183e-05
1150.0 1.1915e-05
1170.0 1.267e-05
1190.0 1.3387e-05
1210.0 1.4113e-05
1230.0 1.4864e-05
1250.0 1.56e-05
1270.0 1.6315e-05
1290.0 1.707e-05
1310.0 1.7825e-05
1330.0 1.855e-05
1350.0 1.9283e-05
1370.0 2.004e-05
1390.0 2.0779e-05
1410.0 2.1496e-05
1430.0 2.2245e-05
1450.0 2.2996e-05
1470.0 2.3721e-05
1490.0 2.4455e-05
1510.0 2.523e-05
1530.0 2.5965e-05
1550.0 2.6691e-05
1570.0 2.7442e-05
1590.0 2.8194e-05
1610.0 2.8913e-05
1630.0 2.9655e-05
1650.0 3.0417e-05
1670.0 3.1155e-05
1690.0 3.1884e-05
1710.0 3.2642e-05
1730.0 3.3405e-05
1750.0 3.4123e-05
1770.0 3.4863e-05
1790.0 3.5619e-05
1810.0 3.6351e-05
1830.0 3.7072e-05
1850.0 3.7839e-05
1870.0 3.8587e-05
1890.0 3.9311e-05
1910.0 4.0052e-05
1930.0 4.0812e-05
1950.0 4.154e-05
1970.0 4.2262e-05
1990.0 4.3014e-05
2010.0 4.3755e-05
2030.0 4.4474e-05
2050.0 4.5217e-05
2070.0 4.5983e-05
2090.0 4.6709e-05
2110.0 4.7438e-05
2130.0 4.8192e-05
2150.0 4.8937e-05
2170.0 4.9655e-05
2190.0 5.0405e-05
2210.0 5.1165e-05
2230.0 5.1902e-05
2250.0 5.2641e-05
2270.0 5.3419e-05
2290.0 5.418e-05
2310.0 5.4918e-05
2330.0 5.5685e-05
2350.0 5.6465e-05
2370.0 5.7223e-05
2390.0 5.7994e-05
2410.0 5.8805e-05
2430.0 5.9593e-05
2450.0 6.0354e-05
2470.0 6.1102e-05
2490.0 6.1799e-05
2510.0 6.2398e-05
2530.0 6.2987e-05
2550.0 6.3722e-05
2570.0 6.4844e-05
2590.0 6.6689e-05
2610.0 6.9963e-05
2630.0 7.5083e-05
2650.0 8.1996e-05
2670.0 9.0945e-05
2690.0 0.00010185
2710.0 0.00011345
2730.0 0.00012502
2750.0 0.00013678
2770.0 0.00014775
2790.0 0.00015754
2810.0 0.00016675
2830.0 0.00017591
2850.0 0.00018437
2870.0 0.00019273
2890.0 0.00020145
2910.0 0.00021028
2930.0 0.00021886
2950.0 0.00022782
2970.0 0.00023704
2990.0 0.00024601
3010.0 0.00052811
3030.0 0.00054742
3050.0 0.00056692
3070.0 0.00058559
3090.0 0.00060517
3110.0 0.00062554
3130.0 0.00064565
3150.0 0.0006656
3170.0 0.00068598
3190.0 0.00070362
3210.0 0.00071729
3230.0 0.00072803
3250.0 0.00064161
3270.0 0.00055579
3290.0 0.00042447
3310.0 0.00047565
3330.0 0.00051227
3350.0 0.00054711
3370.0 0.00058167
3390.0 0.00061627
3410.0 0.00065088
3430.0 0.00068541
3450.0 0.00072004
3470.0 0.00075453
3490.0 0.00078373
3510.0 0.00079356
3530.0 0.00083038
3550.0 0.0010145
3570.0 0.0012861
3590.0 0.0014553
3610.0 0.0016565
3630.0 0.001543
3650.0 0.0014114
3670.0 0.0013603
3690.0 0.0016169
3710.0 0.0020519
3730.0 0.0022057
3750.0 0.0022899
3770.0 0.0023125
3790.0 0.0022742
3810.0 0.0020641
3830.0 0.0015986
3850.0 0.0012767
3870.0 0.0012437
3890.0 0.0016973
3910.0 0.0023078
3930.0 0.0027058
3950.0 0.0028551
3970.0 0.0028405
3990.0 0.0032414
4010.0 0.0036234
4030.0 0.0033894
4050.0 0.002965
4070.0 0.0025084
4090.0 0.0024935
4110.0 0.002825
4130.0 0.0028671
4150.0 0.0028902
4170.0 0.0027232
4190.0 0.0025965
4210.0 0.0026285
4230.0 0.0030211
4250.0 0.0030507
4270.0 0.0030306
4290.0 0.0030019
4310.0 0.0030044
4330.0 0.0033195
4350.0 0.003823
4370.0 0.0038849
4390.0 0.003362
4410.0 0.0027771
4430.0 0.002381
4450.0 0.0020486
4470.0 0.0019849
4490.0 0.0023731
4510.0 0.0026624
4530.0 0.0029187
4550.0 0.0031373
4570.0 0.0037064
4590.0 0.005285
4610.0 0.0070797
4630.0 0.0073331
4650.0 0.0069615
4670.0 0.0073985
4690.0 0.0081161
4710.0 0.0071764
4730.0 0.0052844
4750.0 0.0040215
4770.0 0.0036612
4790.0 0.0036751
4810.0 0.0034452
4830.0 0.0037588
4850.0 0.0047721
4870.0 0.0059273
4890.0 0.0052975
4910.0 0.0046565
4930.0 0.0051661
4950.0 0.0067872
4970.0 0.0088059
4990.0 0.0090757
5010.0 0.0078192
5030.0 0.0058671
5050.0 0.0042068
5070.0 0.0035375
5090.0 0.0033554
5110.0 0.0034047
5130.0 0.0035424
5150.0 0.0034955
5170.0 0.0035625
5190.0 0.0034494
5210.0 0.0035594
5230.0 0.0037977
5250.0 0.0041752
5270.0 0.0051313
5290.0 0.0058419
5310.0 0.0058553
5330.0 0.0060793
5350.0 0.0068406
5370.0 0.0072535
5390.0 0.0067092
5410.0 0.0057274
5430.0 0.0054308
5450.0 0.0062493
5470.0 0.0080371
5490.0 0.0099443
5510.0 0.010901
5530.0 0.011092
5550.0 0.010537
5570.0 0.0097778
5590.0 0.0094155
5610.0 0.0094927
5630.0 0.0096763
5650.0 0.0096544
5670.0 0.0094701
5690.0 0.0091664
5710.0 0.0081901
5730.0 0.0068203
5750.0 0.0056968
5770.0 0.0057027
5790.0 0.006235
5810.0 0.0066728
5830.0 0.0068563
5850.0 0.0068136
5870.0 0.0062637
5890.0 0.0054522
5910.0 0.0053045
5930.0 0.0057194
5950.0 0.0058733
5970.0 0.0053495
5990.0 0.0045766
6010.0 0.0037628
6030.0 0.00316
6050.0 0.0031119
6070.0 0.0035372
6090.0 0.0037241
6110.0 0.0034053
6130.0 0.0031518
6150.0 0.0033482
6170.0 0.0040088
6190.0 0.0047829
6210.0 0.0052007
6230.0 0.0050209
6250.0 0.004602
6270.0 0.0039824
6290.0 0.0033014
6310.0 0.0027326
6330.0 0.0024683
6350.0 0.0025708
6370.0 0.002787
6390.0 0.0030166
6410.0 0.0034323
6430.0 0.0042259
6450.0 0.0053221
6470.0 0.0060583
6490.0 0.0060737
6510.0 0.0059302
6530.0 0.0060426
6550.0 0.0061775
6570.0 0.006232
6590.0 0.0062323
6610.0 0.006063
6630.0 0.0060716
6650.0 0.0060921
6670.0 0.0058576
6690.0 0.0052526
6710.0 0.0044402
6730.0 0.0042514
6750.0 0.0045689
6770.0 0.004968
6790.0 0.0051213
6810.0 0.0050636
6830.0 0.0049944
6850.0 0.0048856
6870.0 0.0046066
6890.0 0.0043407
6910.0 0.0041485
6930.0 0.0039985
6950.0 0.0042444
6970.0 0.0046196
6990.0 0.0048724
7010.0 0.0049293
7030.0 0.0046586
7050.0 0.0040442
7070.0 0.0032787
7090.0 0.0027856
7110.0 0.002687
7130.0 0.0028343
7150.0 0.0028694
7170.0 0.0026392
7190.0 0.0025876
7210.0 0.0028508
7230.0 0.0032738
7250.0 0.0037419
7270.0 0.0039404
7290.0 0.0037101
7310.0 0.003292
7330.0 0.0030127
7350.0 0.0029489
7370.0 0.0030261
7390.0 0.0031625
7410.0 0.0033886
7430.0 0.0038517
7450.0 0.0044776
7470.0 0.0051122
7490.0 0.0054079
7510.0 0.0052491
7530.0 0.0045568
7550.0 0.0037234
7570.0 0.0031057
7590.0 0.0027452
7610.0 0.0028323
7630.0 0.0032814
7650.0 0.0037835
7670.0 0.0042922
7690.0 0.004728
7710.0 0.005049
7730.0 0.005322
7750.0 0.0055798
7770.0 0.0058105
7790.0 0.0058464
7810.0 0.0059225
7830.0 0.0061229
7850.0 0.0061474
7870.0 0.0059971
7890.0 0.0055821
7910.0 0.0052552
7930.0 0.0050202
7950.0 0.0050265
7970.0 0.0050041
7990.0 0.0050635
8010.0 0.0050559
8030.0 0.0050865
8050.0 0.0052328
8070.0 0.0051675
8090.0 0.0051788
8110.0 0.0049891
8130.0 0.0049695
8150.0 0.0048431
8170.0 0.0047174
8190.0 0.0046625
8210.0 0.0047062
8230.0 0.0044266
8250.0 0.0041588
8270.0 0.003641
8290.0 0.002943
8310.0 0.0022878
8330.0 0.0017614
8350.0 0.001558
8370.0 0.0017579
8390.0 0.0020362
8410.0 0.0022541
8430.0 0.0025083
8450.0 0.0026495
8470.0 0.0027808
8490.0 0.0030986
8510.0 0.0034609
8530.0 0.0040302
8550.0 0.0047366
8570.0 0.0053768
8590.0 0.0058946
8610.0 0.0063387
8630.0 0.0066611
8650.0 0.0067239
8670.0 0.0067529
8690.0 0.0069903
8710.0 0.0071355
8730.0 0.0072923
8750.0 0.0071573
8770.0 0.0071933
8790.0 0.0071058
8810.0 0.0066283
8830.0 0.0064614
8850.0 0.0061056
8870.0 0.0058416
8890.0 0.0055889
8910.0 0.0057401
8930.0 0.0054096
8950.0 0.0052177
8970.0 0.0051497
8990.0 0.005038
9010.0 0.0049516
9030.0 0.0048211
9050.0 0.0047919
9070.0 0.0047787
9090.0 0.0047657
9110.0 0.0047535
9130.0 0.0047399
9150.0 0.0047259
9170.0 0.0047057
9190.0 0.0046784
9210.0 0.0047017
9230.0 0.0046774
9250.0 0.0046579
9270.0 0.0046396
9290.0 0.0046221
9310.0 0.004605
9330.0 0.004588
9350.0 0.0045712
9370.0 0.0045543
9390.0 0.0045371
9410.0 0.0045199
9430.0 0.0045022
9450.0 0.0044827
9470.0 0.0044636
9490.0 0.0044475
9510.0 0.0044302
9530.0 0.0044126
9550.0 0.0043947
9570.0 0.0043765
9590.0 0.0043582
9610.0 0.0043397
9630.0 0.0043211
9650.0 0.0043025
9670.0 0.0042838
9690.0 0.004265
9710.0 0.0042463
9730.0 0.0042274
9750.0 0.0042086
9770.0 0.0041897
9790.0 0.0041709
9810.0 0.004152
9830.0 0.0041331
9850.0 0.0041143
9870.0 0.0040954
9890.0 0.0040765
9910.0 0.0040576
9930.0 0.0040384
9950.0 0.0039942
9970.0 0.0039829
9990.0 0.0039702
10010.0 0.0039568
10030.0 0.0039413
10050.0 0.0039239
10070.0 0.0039052
10090.0 0.0038884
10110.0 0.0038699
10130.0 0.0038523
10150.0 0.0038344
10170.0 0.0038158
10190.0 0.0037963
10210.0 0.0037781
10230.0 0.0037603
10250.0 0.0037414
10270.0 0.0037229
10290.0 0.0037053
10310.0 0.0036869
10330.0 0.0036677
10350.0 0.0036497
10370.0 0.0036319
10390.0 0.0036131
10410.0 0.0035945
10430.0 0.0035771
10450.0 0.0035588
10470.0 0.00354
10490.0 0.003522
10510.0 0.0035043
10530.0 0.0034849
10550.0 0.0034663
10570.0 0.0034486
10590.0 0.0034301
10610.0 0.0034111
10630.0 0.0033932
10650.0 0.0033751
10670.0 0.0033557
10690.0 0.003337
10710.0 0.0033189
10730.0 0.0032998
10750.0 0.0032799
10770.0 0.0032617
10790.0 0.0032431
10810.0 0.0032235
10830.0 0.0032043
10850.0 0.0031859
10870.0 0.0031654
10890.0 0.0031444
10910.0 0.0031237
10930.0 0.0031013
10950.0 0.0030754
10970.0 0.0030475
10990.0 0.0030176
11010.0 0.0027234
11030.0 0.0026873
11050.0 0.0026523
11070.0 0.0026166
11090.0 0.0025781
11110.0 0.0025425
11130.0 0.0025079
11150.0 0.0024721
11170.0 0.0024366
11190.0 0.0024034
11210.0 0.0023693
11230.0 0.0023342
11250.0 0.0023007
11270.0 0.0022683
11290.0 0.0022345
11310.0 0.0022013
11330.0 0.0021715
11350.0 0.0021417
11370.0 0.002112
11390.0 0.0020848
11410.0 0.0020591
11430.0 0.0020322
11450.0 0.0020068
11470.0 0.0019828
11490.0 0.0019581
11510.0 0.001932
11530.0 0.0019069
11550.0 0.0018812
11570.0 0.0018528
11590.0 0.0018234
11610.0 0.0017938
11630.0 0.0017613
11650.0 0.0017261
11670.0 0.0016917
11690.0 0.0016563
11710.0 0.0016185
11730.0 0.0015809
11750.0 0.0015451
11770.0 0.001508
11790.0 0.0014711
11810.0 0.0014367
11830.0 0.0014038
11850.0 0.0013703
11870.0 0.0013399
11890.0 0.0013125
11910.0 0.0012858
11930.0 0.0012604
11950.0 0.001238
11970.0 0.0012168
11990.0 0.0011959
12010.0 0.001177
12030.0 0.0011599
12050.0 0.0011432
12070.0 0.001127
12090.0 0.0011132
12110.0 0.0011001
12130.0 0.0010876
12150.0 0.0010766
12170.0 0.0010673
12190.0 0.0010585
12210.0 0.0010516
12230.0 0.0010468
12250.0 0.001044
12270.0 0.0010432
12290.0 0.0010451
12310.0 0.0010496
12330.0 0.0010569
12350.0 0.0010671
12370.0 0.0010799
12390.0 0.0010955
12410.0 0.0011145
12430.0 0.001135
12450.0 0.0011572
12470.0 0.0011815
12490.0 0.0012068
12510.0 0.0012317
12530.0 0.0012572
12550.0 0.0012828
12570.0 0.0013068
12590.0 0.0013292
12610.0 0.0013506
12630.0 0.0013699
12650.0 0.0013862
12670.0 0.0014005
12690.0 0.0014124
12710.0 0.0014215
12730.0 0.0014282
12750.0 0.0014324
12770.0 0.0014341
12790.0 0.0014337
12810.0 0.0014311
12830.0 0.0014262
12850.0 0.00142
12870.0 0.0014124
12890.0 0.0014029
12910.0 0.0013924
12930.0 0.0013814
12950.0 0.0013689
12970.0 0.0013552
12990.0 0.0013417
13010.0 0.0013276
13030.0 0.0013122
13050.0 0.0012965
13070.0 0.0012811
13090.0 0.0012644
13110.0 0.0012472
13130.0 0.0012304
13150.0 0.0012135
13170.0 0.0011958
13190.0 0.0011794
13210.0 0.0011643
13230.0 0.0011498
13250.0 0.0011369
13270.0 0.0011264
13290.0 0.0011178
13310.0 0.0011114
13330.0 0.0011078
13350.0 0.0011068
13370.0 0.001108
13390.0 0.0011114
13410.0 0.0011161
13430.0 0.0011219
13450.0 0.0011281
13470.0 0.0011339
13490.0 0.0011385
13510.0 0.0011417
13530.0 0.0011425
13550.0 0.0011407
13570.0 0.0011362
13590.0 0.0011286
13610.0 0.0011185
13630.0 0.0011063
13650.0 0.0010915
13670.0 0.001075
13690.0 0.0010581
13710.0 0.0010402
13730.0 0.0010213
13750.0 0.0010037
13770.0 0.00098683
13790.0 0.00097029
13810.0 0.00095493
13830.0 0.00094133
13850.0 0.00092846
13870.0 0.00091659
13890.0 0.00090625
13910.0 0.00089703
13930.0 0.00088845
13950.0 0.00088083
13970.0 0.00087433
13990.0 0.00086831
14010.0 0.00086283
14030.0 0.00085803
14050.0 0.0008537
14070.0 0.00084958
14090.0 0.00084589
14110.0 0.00084252
14130.0 0.00083929
14150.0 0.00083615
14170.0 0.0008332
14190.0 0.00083032
14210.0 0.00082743
14230.0 0.00082463
14250.0 0.00082198
14270.0 0.0008194
14290.0 0.00081699
14310.0 0.00081487
14330.0 0.000813
14350.0 0.00081143
14370.0 0.00081015
14390.0 0.00080913
14410.0 0.00080835
14430.0 0.00080775
14450.0 0.00080719
14470.0 0.00080663
14490.0 0.00080604
14510.0 0.00080528
14530.0 0.00080431
14550.0 0.00080321
14570.0 0.00080197
14590.0 0.00080065
14610.0 0.00079939
14630.0 0.00079833
14650.0 0.00079758
14670.0 0.00079728
14690.0 0.0007977
14710.0 0.00079902
14730.0 0.00080106
14750.0 0.00080424
14770.0 0.00080879
14790.0 0.00081445
14810.0 0.00082118
14830.0 0.00082995
14850.0 0.00084001
14870.0 0.00085087
14890.0 0.000863
14910.0 0.00087629
14930.0 0.00088918
14950.0 0.00090125
14970.0 0.00091271
14990.0 0.00092205
15010.0 0.0009287
15030.0 0.00093306
15050.0 0.00093519
15070.0 0.00093499
15090.0 0.00093335
15110.0 0.00093072
15130.0 0.00092742
15150.0 0.00092379
15170.0 0.00091995
15190.0 0.000916
15210.0 0.00091204
15230.0 0.00090806
15250.0 0.00090404
15270.0 0.00090002
15290.0 0.00089604
15310.0 0.00089203
15330.0 0.000888
15350.0 0.000884
15370.0 0.00088
15390.0 0.00087595
15410.0 0.00087193
15430.0 0.00086793
15450.0 0.00086391
15470.0 0.00085988
15490.0 0.00085589
15510.0 0.0008519
15530.0 0.00084788
15550.0 0.00084388
15570.0 0.00083991
15590.0 0.00083591
15610.0 0.00083191
15630.0 0.00082795
15650.0 0.000824
15670.0 0.00082002
15690.0 0.00081608
15710.0 0.00081216
15730.0 0.00080822
15750.0 0.00080429
15770.0 0.0008004
15790.0 0.00079651
15810.0 0.00079259
15830.0 0.00078872
15850.0 0.00078487
15870.0 0.00078101
15890.0 0.00077717
15910.0 0.00077336
15930.0 0.00076956
15950.0 0.00076574
15970.0 0.00076196
15990.0 0.0007582
16010.0 0.00075444
16030.0 0.00075068
16050.0 0.00074699
16070.0 0.00074328
16090.0 0.00073958
16110.0 0.00073591
16130.0 0.00073228
16150.0 0.00072861
16170.0 0.00072498
16190.0 0.00072139
16210.0 0.0007178
16230.0 0.00071422
16250.0 0.00071067
16270.0 0.00070716
16290.0 0.00070363
16310.0 0.00070013
16330.0 0.00069666
16350.0 0.00069321
16370.0 0.00068974
16390.0 0.00068633
16410.0 0.00068294
16430.0 0.00067955
16450.0 0.00067618
16470.0 0.00067286
16490.0 0.00066953
16510.0 0.00066621
16530.0 0.00066294
16550.0 0.00065968
16570.0 0.00065642
16590.0 0.00065319
16610.0 0.00065001
16630.0 0.00064683
16650.0 0.00064365
16670.0 0.00064053
16690.0 0.00063742
16710.0 0.00063429
16730.0 0.00063121
16750.0 0.00062817
16770.0 0.00062512
16790.0 0.00062209
16810.0 0.00061911
16830.0 0.00061614
16850.0 0.00061317
16870.0 0.00061024
16890.0 0.00060734
16910.0 0.00060444
16930.0 0.00060155
16950.0 0.00059871
16970.0 0.00059588
16990.0 0.00059306
17010.0 0.00059027
17030.0 0.00058752
17050.0 0.00058476
17070.0 0.00058202
17090.0 0.00057932
17110.0 0.00057664
17130.0 0.00057394
17150.0 0.0005713
17170.0 0.00056869
17190.0 0.00056607
17210.0 0.00056348
17230.0 0.00056092
17250.0 0.00055838
17270.0 0.00055583
17290.0 0.00055333
17310.0 0.00055085
17330.0 0.00054837
17350.0 0.0005459
17370.0 0.00054349
17390.0 0.00054108
17410.0 0.00053868
17430.0 0.00053631
17450.0 0.00053397
17470.0 0.00053162
17490.0 0.00052929
17510.0 0.00052701
17530.0 0.00052473
17550.0 0.00052246
17570.0 0.00052022
17590.0 0.00051801
17610.0 0.0005158
17630.0 0.00051361
17650.0 0.00051145
17670.0 0.0005093
17690.0 0.00050714
17710.0 0.00050504
17730.0 0.00050295
17750.0 0.00050086
17770.0 0.00049879
17790.0 0.00049677
17810.0 0.00049473
17830.0 0.00049271
17850.0 0.00049072
17870.0 0.00048875
17890.0 0.00048677
17910.0 0.00048482
17930.0 0.00048291
17950.0 0.000481
17970.0 0.0004791
17990.0 0.00047723
18010.0 0.00047537
18030.0 0.00047351
18050.0 0.00047167
18070.0 0.00046987
18090.0 0.00046807
18110.0 0.00046627
18130.0 0.00046451
18150.0 0.00046277
18170.0 0.00046102
18190.0 0.00045929
18210.0 0.0004576
18230.0 0.00045589
18250.0 0.0004542
18270.0 0.00045255
18290.0 0.0004509
18310.0 0.00044925
18330.0 0.00044763
18350.0 0.00044604
18370.0 0.00044444
18390.0 0.00044285
18410.0 0.00044129
18430.0 0.00043974
18450.0 0.00043819
18470.0 0.00043666
18490.0 0.00043516
18510.0 0.00043366
18530.0 0.00043216
18550.0 0.00043071
18570.0 0.00042924
18590.0 0.00042778
18610.0 0.00042635
18630.0 0.00042493
18650.0 0.00042351
18670.0 0.00042211
18690.0 0.00042074
18710.0 0.00041936
18730.0 0.00041799
18750.0 0.00041664
18770.0 0.00041532
18790.0 0.00041397
18810.0 0.00041265
18830.0 0.00041136
18850.0 0.00041006
18870.0 0.00040877
18890.0 0.00040751
18910.0 0.00040626
18930.0 0.000405
18950.0 0.00040376
18970.0 0.00040254
18990.0 0.00040132
19010.0 0.00040009
19030.0 0.00039891
19050.0 0.00039773
19070.0 0.00039654
19090.0 0.00039538
19110.0 0.00039424
19130.0 0.00039308
19150.0 0.00039194
19170.0 0.00039082
19190.0 0.0003897
19210.0 0.00038858
19230.0 0.00038748
19250.0 0.00038641
19270.0 0.00038532
19290.0 0.00038425
19310.0 0.0003832
19330.0 0.00038215
19350.0 0.00038109
19370.0 0.00038005
19390.0 0.00037903
19410.0 0.00037801
19430.0 0.00037699
19450.0 0.000376
19470.0 0.00037501
19490.0 0.00037402
19510.0 0.00037304
19530.0 0.00037209
19550.0 0.00037112
19570.0 0.00037015
19590.0 0.00036922
19610.0 0.00036828
19630.0 0.00036734
19650.0 0.00036643
19670.0 0.00036552
19690.0 0.00036461
19710.0 0.0003637
19730.0 0.00036282
19750.0 0.00036193
19770.0 0.00036104
19790.0 0.00036017
19810.0 0.00035931
19830.0 0.00035844
19850.0 0.00035756
19870.0 0.00035667
19890.0 0.00035572
19910.0 0.00035462
19930.0 0.00035336
19950.0 0.00035182
19970.0 0.00034981
19990.0 0.00034725
20010.0 0.00034423
20030.0 0.00034049
20050.0 0.00033607
20070.0 0.00033127
20090.0 0.00032612
20110.0 0.00032036
20130.0 0.00031458
20150.0 0.00030892
20170.0 0.00030312
20190.0 0.00029729
20210.0 0.00029181
20230.0 0.00028647
20250.0 0.00028112
20270.0 0.00027611
20290.0 0.00027147
20310.0 0.00026699
20330.0 0.0002627
20350.0 0.00025901
20370.0 0.0002556
20390.0 0.00025244
20410.0 0.00024971
20430.0 0.00024741
20450.0 0.00024535
20470.0 0.00024367
20490.0 0.00024238
20510.0 0.00024141
20530.0 0.00024074
20550.0 0.00024038
20570.0 0.00024028
20590.0 0.00024043
20610.0 0.00024079
20630.0 0.00024131
20650.0 0.00024198
20670.0 0.00024281
20690.0 0.00024369
20710.0 0.00024458
20730.0 0.00024552
20750.0 0.00024645
20770.0 0.00024728
20790.0 0.00024806
20810.0 0.00024876
20830.0 0.00024932
20850.0 0.00024973
20870.0 0.00025
20890.0 0.0002501
20910.0 0.00025001
20930.0 0.00024975
20950.0 0.0002493
20970.0 0.00024868
20990.0 0.0002479
21010.0 0.00024693
21030.0 0.0002458
21050.0 0.00024457
21070.0 0.00024321
21090.0 0.00024168
21110.0 0.00024014
21130.0 0.00023856
21150.0 0.00023689
21170.0 0.00023521
21190.0 0.00023359
21210.0 0.00023194
21230.0 0.00023031
21250.0 0.00022882
21270.0 0.00022741
21290.0 0.00022606
21310.0 0.00022484
21330.0 0.0002238
21350.0 0.00022286
21370.0 0.00022206
21390.0 0.00022143
21410.0 0.00022095
21430.0 0.00022062
21450.0 0.00022045
21470.0 0.00022044
21490.0 0.00022058
21510.0 0.00022087
21530.0 0.00022128
21550.0 0.00022182
21570.0 0.00022252
21590.0 0.00022333
21610.0 0.00022422
21630.0 0.00022525
21650.0 0.00022641
21670.0 0.00022758
21690.0 0.00022885
21710.0 0.00023023
21730.0 0.00023164
21750.0 0.00023305
21770.0 0.00023459
21790.0 0.00023615
21810.0 0.00023767
21830.0 0.00023922
21850.0 0.00024081
21870.0 0.00024235
21890.0 0.0002438
21910.0 0.00024527
21930.0 0.00024669
21950.0 0.000248
21970.0 0.00024925
21990.0 0.00025046
22010.0 0.00025151
22030.0 0.00025243
22050.0 0.00025326
22070.0 0.00025395
22090.0 0.00025447
22110.0 0.00025484
22130.0 0.00025505
22150.0 0.00025508
22170.0 0.00025494
22190.0 0.00025459
22210.0 0.00025405
22230.0 0.00025334
22250.0 0.00025243
22270.0 0.0002513
22290.0 0.00025001
22310.0 0.00024857
22330.0 0.00024687
22350.0 0.00024503
22370.0 0.00024308
22390.0 0.00024094
22410.0 0.00023858
22430.0 0.00023621
22450.0 0.00023375
22470.0 0.0002311
22490.0 0.0002284
22510.0 0.00022573
22530.0 0.0002229
22550.0 0.00021999
22570.0 0.00021719
22590.0 0.00021439
22610.0 0.00021152
22630.0 0.00020872
22650.0 0.00020609
22670.0 0.00020343
22690.0 0.00020082
22710.0 0.00019838
22730.0 0.00019605
22750.0 0.00019369
22770.0 0.00019153
22790.0 0.00018954
22810.0 0.0001876
22830.0 0.00018575
22850.0 0.00018409
22870.0 0.00018251
22890.0 0.00018097
22910.0 0.00017957
22930.0 0.00017828
22950.0 0.00017704
22970.0 0.00017584
22990.0 0.0001748
23010.0 0.0001738
23030.0 0.00017283
23050.0 0.00017193
23070.0 0.00017111
23090.0 0.00017028
23110.0 0.0001695
23130.0 0.00016878
23150.0 0.00016808
