#lamb flux
1010.0 1.1735e-05
1030.0 1.3051e-05
1050.0 1.4322e-05
1070.0 1.5757e-05
1090.0 1.7462e-05
1110.0 1.9202e-05
1130.0 2.0954e-05
1150.0 2.2793e-05
1170.0 2.4706e-05
1190.0 2.655e-05
1210.0 2.8457e-05
1230.0 3.0478e-05
1250.0 3.2507e-05
1270.0 3.4556e-05
1290.0 3.679e-05
1310.0 3.9108e-05
1330.0 4.143e-05
1350.0 4.3854e-05
1370.0 4.6414e-05
1390.0 4.8986e-05
1410.0 5.1545e-05
1430.0 5.4226e-05
1450.0 5.6927e-05
1470.0 5.9557e-05
1490.0 6.2196e-05
1510.0 6.4924e-05
1530.0 6.7492e-05
1550.0 6.9974e-05
1570.0 7.246e-05
1590.0 7.4867e-05
1610.0 7.7079e-05
1630.0 7.9228e-05
1650.0 8.1324e-05
1670.0 8.323e-05
1690.0 8.4986e-05
1710.0 8.6702e-05
1730.0 8.8307e-05
1750.0 8.9664e-05
1770.0 9.0971e-05
1790.0 9.2219e-05
1810.0 9.3313e-05
1830.0 9.4302e-05
1850.0 9.5358e-05
1870.0 9.6327e-05
1890.0 9.7217e-05
1910.0 9.8155e-05
1930.0 9.9167e-05
1950.0 0.00010014
1970.0 0.00010114
1990.0 0.00010229
2010.0 0.00010348
2030.0 0.00010468
2050.0 0.00010601
2070.0 0.00010745
2090.0 0.00010883
2110.0 0.00011023
2130.0 0.0001117
2150.0 0.00011311
2170.0 0.00011442
2190.0 0.00011572
2210.0 0.00011696
2230.0 0.00011801
2250.0 0.00011893
2270.0 0.00011978
2290.0 0.00012043
2310.0 0.00012083
2330.0 0.00012112
2350.0 0.00012124
2370.0 0.00012111
2390.0 0.00012081
2410.0 0.00012039
2430.0 0.00011972
2450.0 0.00011881
2470.0 0.00011771
2490.0 0.00011641
2510.0 0.00011492
2530.0 0.00011352
2550.0 0.00011263
2570.0 0.00011274
2590.0 0.00011443
2610.0 0.00011897
2630.0 0.00012675
2650.0 0.00013722
2670.0 0.00015046
2690.0 0.00016576
2710.0 0.00018036
2730.0 0.00019262
2750.0 0.00020201
2770.0 0.00020627
2790.0 0.00020477
2810.0 0.00019776
2830.0 0.00018499
2850.0 0.00016811
2870.0 0.0001481
2890.0 0.0001251
2910.0 0.00010036
2930.0 7.5359e-05
2950.0 4.8876e-05
2970.0 2.1315e-05
2990.0 8.2037e-06
3010.0 1.5326e-05
3030.0 1.5326e-05
3050.0 1.5326e-05
3070.0 1.5326e-05
3090.0 1.5326e-05
3110.0 1.5326e-05
3130.0 1.5326e-05
3150.0 1.5326e-05
3170.0 1.5326e-05
3190.0 1.5326e-05
3210.0 9.9729e-05
3230.0 0.0008679
3250.0 0.0013906
3270.0 0.0012536
3290.0 0.0010471
3310.0 0.00079032
3330.0 0.00074992
3350.0 0.00081792
3370.0 0.00092354
3390.0 0.0010371
3410.0 0.0011587
3430.0 0.0013213
3450.0 0.0014761
3470.0 0.0016355
3490.0 0.0016697
3510.0 0.0014345
3530.0 0.0013172
3550.0 0.0015512
3570.0 0.0017982
3590.0 0.0019796
3610.0 0.0019849
3630.0 0.0023081
3650.0 0.0024337
3670.0 0.0025397
3690.0 0.0026882
3710.0 0.0027058
3730.0 0.0027979
3750.0 0.0027831
3770.0 0.0027708
3790.0 0.0026678
3810.0 0.0025064
3830.0 0.0023725
3850.0 0.0014868
3870.0 0.0015704
3890.0 0.0017982
3910.0 0.0023656
3930.0 0.0030627
3950.0 0.0033182
3970.0 0.0035601
3990.0 0.0041292
4010.0 0.0038899
4030.0 0.0034414
4050.0 0.0024642
4070.0 0.0021668
4090.0 0.002902
4110.0 0.0030599
4130.0 0.003331
4150.0 0.0032518
4170.0 0.0030767
4190.0 0.0028177
4210.0 0.0034663
4230.0 0.0037105
4250.0 0.0040234
4270.0 0.003899
4290.0 0.0037767
4310.0 0.0039594
4330.0 0.0045934
4350.0 0.0049711
4370.0 0.0050223
4390.0 0.0046458
4410.0 0.0042301
4430.0 0.0033078
4450.0 0.0026561
4470.0 0.002768
4490.0 0.0031876
4510.0 0.0033577
4530.0 0.0033611
4550.0 0.0033765
4570.0 0.0047396
4590.0 0.0070663
4610.0 0.0083455
4630.0 0.0085746
4650.0 0.0094157
4670.0 0.011021
4690.0 0.011792
4710.0 0.0099699
4730.0 0.0076283
4750.0 0.0059187
4770.0 0.005009
4790.0 0.0045114
4810.0 0.0042692
4830.0 0.0047273
4850.0 0.0056759
4870.0 0.0062889
4890.0 0.0065237
4910.0 0.0062821
4930.0 0.0068886
4950.0 0.0082954
4970.0 0.0094564
4990.0 0.0096971
5010.0 0.0088743
5030.0 0.0073419
5050.0 0.0057235
5070.0 0.0046435
5090.0 0.0042399
5110.0 0.004205
5130.0 0.0042768
5150.0 0.00423
5170.0 0.0039463
5190.0 0.0037072
5210.0 0.0036927
5230.0 0.0042015
5250.0 0.0050836
5270.0 0.006072
5290.0 0.0068175
5310.0 0.0073202
5330.0 0.0081262
5350.0 0.0089613
5370.0 0.0091145
5390.0 0.0082431
5410.0 0.0073539
5430.0 0.00727
5450.0 0.0084553
5470.0 0.010277
5490.0 0.011765
5510.0 0.012386
5530.0 0.012195
5550.0 0.011662
5570.0 0.011216
5590.0 0.010756
5610.0 0.010497
5630.0 0.010459
5650.0 0.010478
5670.0 0.010137
5690.0 0.0090906
5710.0 0.0077466
5730.0 0.0069718
5750.0 0.0067279
5770.0 0.0068957
5790.0 0.0070948
5810.0 0.0072766
5830.0 0.0073306
5850.0 0.0070117
5870.0 0.0066529
5890.0 0.0065391
5910.0 0.0067524
5930.0 0.0069208
5950.0 0.0064819
5970.0 0.0056697
5990.0 0.0046361
6010.0 0.0037732
6030.0 0.0035291
6050.0 0.00384
6070.0 0.0040591
6090.0 0.0038203
6110.0 0.0033909
6130.0 0.0034946
6150.0 0.0040506
6170.0 0.0046016
6190.0 0.004984
6210.0 0.0050709
6230.0 0.0050038
6250.0 0.0045578
6270.0 0.0037942
6290.0 0.0031324
6310.0 0.0028059
6330.0 0.0027645
6350.0 0.0028121
6370.0 0.0028865
6390.0 0.0032995
6410.0 0.0041108
6430.0 0.0049708
6450.0 0.0054683
6470.0 0.005619
6490.0 0.005625
6510.0 0.0057187
6530.0 0.0058462
6550.0 0.0058504
6570.0 0.0060605
6590.0 0.0062313
6610.0 0.00631
6630.0 0.006138
6650.0 0.0056925
6670.0 0.0051992
6690.0 0.0047903
6710.0 0.0045618
6730.0 0.0044544
6750.0 0.0044733
6770.0 0.004595
6790.0 0.004762
6810.0 0.0048677
6830.0 0.0047822
6850.0 0.0045343
6870.0 0.0042493
6890.0 0.0041518
6910.0 0.0040748
6930.0 0.0042151
6950.0 0.0044239
6970.0 0.0045355
6990.0 0.0045994
7010.0 0.0044554
7030.0 0.0040928
7050.0 0.0036314
7070.0 0.0032849
7090.0 0.0031354
7110.0 0.0031239
7130.0 0.0029999
7150.0 0.0026608
7170.0 0.0025435
7190.0 0.0028166
7210.0 0.0032811
7230.0 0.0037523
7250.0 0.0039374
7270.0 0.0038668
7290.0 0.0035812
7310.0 0.0033285
7330.0 0.0032271
7350.0 0.0032488
7370.0 0.0033049
7390.0 0.0034699
7410.0 0.0038538
7430.0 0.0044191
7450.0 0.0049364
7470.0 0.0051569
7490.0 0.0049838
7510.0 0.004626
7530.0 0.004145
7550.0 0.0038247
7570.0 0.0034716
7590.0 0.0032995
7610.0 0.0033682
7630.0 0.0036092
7650.0 0.0039712
7670.0 0.004363
7690.0 0.004666
7710.0 0.0049527
7730.0 0.005233
7750.0 0.0054672
7770.0 0.0054521
7790.0 0.0055067
7810.0 0.0055813
7830.0 0.0055113
7850.0 0.005334
7870.0 0.0052028
7890.0 0.0052687
7910.0 0.0051946
7930.0 0.0051124
7950.0 0.0048706
7970.0 0.0047231
7990.0 0.0045505
8010.0 0.0045463
8030.0 0.0045863
8050.0 0.0046138
8070.0 0.0045646
8090.0 0.0045375
8110.0 0.0044042
8130.0 0.0044098
8150.0 0.004369
8170.0 0.0042713
8190.0 0.0041789
8210.0 0.004144
8230.0 0.0040539
8250.0 0.0040001
8270.0 0.0036695
8290.0 0.0030383
8310.0 0.0023277
8330.0 0.0018404
8350.0 0.001739
8370.0 0.002057
8390.0 0.0024747
8410.0 0.0026635
8430.0 0.0027306
8450.0 0.0028861
8470.0 0.0031128
8490.0 0.0034916
8510.0 0.0039776
8530.0 0.0045373
8550.0 0.0050356
8570.0 0.0054345
8590.0 0.0057397
8610.0 0.0059075
8630.0 0.0059043
8650.0 0.0058397
8670.0 0.0058508
8690.0 0.0061708
8710.0 0.0066023
8730.0 0.0068733
8750.0 0.0068589
8770.0 0.0069675
8790.0 0.0069629
8810.0 0.0065715
8830.0 0.0061682
8850.0 0.0056379
8870.0 0.0052151
8890.0 0.0050903
8910.0 0.0050866
8930.0 0.0048028
8950.0 0.0044688
8970.0 0.004332
8990.0 0.0043127
9010.0 0.0041637
9030.0 0.004072
9050.0 0.0040357
9070.0 0.0040188
9090.0 0.0040043
9110.0 0.0039903
9130.0 0.0039763
9150.0 0.0039627
9170.0 0.0039477
9190.0 0.0039371
9210.0 0.003939
9230.0 0.0039191
9250.0 0.0039024
9270.0 0.0038875
9290.0 0.0038739
9310.0 0.0038607
9330.0 0.003848
9350.0 0.0038362
9370.0 0.0038246
9390.0 0.0038127
9410.0 0.0038013
9430.0 0.0037895
9450.0 0.0037724
9470.0 0.0037573
9490.0 0.0037517
9510.0 0.0037433
9530.0 0.0037343
9550.0 0.0037248
9570.0 0.003715
9590.0 0.0037051
9610.0 0.0036951
9630.0 0.0036851
9650.0 0.0036751
9670.0 0.0036653
9690.0 0.0036555
9710.0 0.0036457
9730.0 0.003636
9750.0 0.0036264
9770.0 0.0036167
9790.0 0.0036071
9810.0 0.0035975
9830.0 0.0035879
9850.0 0.0035784
9870.0 0.0035688
9890.0 0.0035591
9910.0 0.0035494
9930.0 0.0035393
9950.0 0.0035048
9970.0 0.0035023
9990.0 0.0034983
10010.0 0.0034935
10030.0 0.0034865
10050.0 0.0034777
10070.0 0.0034686
10090.0 0.0034595
10110.0 0.0034484
10130.0 0.0034372
10150.0 0.003427
10170.0 0.0034161
10190.0 0.0034039
10210.0 0.0033928
10230.0 0.0033819
10250.0 0.0033696
10270.0 0.0033573
10290.0 0.0033458
10310.0 0.0033331
10330.0 0.0033192
10350.0 0.0033064
10370.0 0.0032935
10390.0 0.0032792
10410.0 0.0032648
10430.0 0.0032515
10450.0 0.0032368
10470.0 0.0032212
10490.0 0.0032063
10510.0 0.0031912
10530.0 0.003174
10550.0 0.0031573
10570.0 0.0031414
10590.0 0.0031241
10610.0 0.0031059
10630.0 0.0030886
10650.0 0.0030708
10670.0 0.0030511
10690.0 0.0030318
10710.0 0.0030129
10730.0 0.0029926
10750.0 0.0029708
10770.0 0.0029508
10790.0 0.0029299
10810.0 0.0029074
10830.0 0.0028851
10850.0 0.0028636
10870.0 0.0028394
10890.0 0.0028148
10910.0 0.0027909
10930.0 0.002766
10950.0 0.0027389
10970.0 0.0027117
10990.0 0.0026849
11010.0 0.0028782
11030.0 0.0028466
11050.0 0.0028159
11070.0 0.0027845
11090.0 0.0027508
11110.0 0.0027196
11130.0 0.0026894
11150.0 0.0026584
11170.0 0.0026277
11190.0 0.002599
11210.0 0.0025698
11230.0 0.0025398
11250.0 0.0025112
11270.0 0.0024834
11290.0 0.0024543
11310.0 0.0024253
11330.0 0.0023983
11350.0 0.0023704
11370.0 0.0023417
11390.0 0.0023135
11410.0 0.0022853
11430.0 0.0022544
11450.0 0.0022229
11470.0 0.0021911
11490.0 0.0021569
11510.0 0.0021198
11530.0 0.0020826
11550.0 0.002044
11570.0 0.0020021
11590.0 0.0019592
11610.0 0.0019166
11630.0 0.0018715
11650.0 0.0018247
11670.0 0.0017799
11690.0 0.0017353
11710.0 0.0016896
11730.0 0.0016453
11750.0 0.0016035
11770.0 0.0015613
11790.0 0.0015199
11810.0 0.001481
11830.0 0.0014434
11850.0 0.0014053
11870.0 0.0013696
11890.0 0.0013361
11910.0 0.0013028
11930.0 0.0012702
11950.0 0.0012399
11970.0 0.0012104
11990.0 0.001181
12010.0 0.0011533
12030.0 0.0011274
12050.0 0.0011021
12070.0 0.0010778
12090.0 0.0010562
12110.0 0.001036
12130.0 0.001017
12150.0 0.0010003
12170.0 0.00098594
12190.0 0.00097306
12210.0 0.00096259
12230.0 0.0009546
12250.0 0.00094877
12270.0 0.00094525
12290.0 0.000944
12310.0 0.00094468
12330.0 0.00094761
12350.0 0.00095251
12370.0 0.00095878
12390.0 0.00096672
12410.0 0.00097683
12430.0 0.00098737
12450.0 0.00099866
12470.0 0.0010112
12490.0 0.0010243
12510.0 0.0010368
12530.0 0.0010499
12550.0 0.001063
12570.0 0.0010748
12590.0 0.0010855
12610.0 0.0010956
12630.0 0.0011038
12650.0 0.0011095
12670.0 0.0011133
12690.0 0.0011149
12710.0 0.0011137
12730.0 0.0011101
12750.0 0.0011039
12770.0 0.0010953
12790.0 0.0010845
12810.0 0.0010716
12830.0 0.0010566
12850.0 0.0010407
12870.0 0.0010239
12890.0 0.0010059
12910.0 0.00098771
12930.0 0.00096984
12950.0 0.00095161
12970.0 0.00093347
12990.0 0.00091646
13010.0 0.00089998
13030.0 0.00088373
13050.0 0.00086828
13070.0 0.0008538
13090.0 0.00083942
13110.0 0.00082541
13130.0 0.00081213
13150.0 0.00079917
13170.0 0.00078603
13190.0 0.00077347
13210.0 0.00076143
13230.0 0.00074938
13250.0 0.00073757
13270.0 0.00072646
13290.0 0.00071569
13310.0 0.00070518
13330.0 0.00069556
13350.0 0.0006868
13370.0 0.0006787
13390.0 0.00067145
13410.0 0.00066535
13430.0 0.00066003
13450.0 0.00065547
13470.0 0.00065163
13490.0 0.00064831
13510.0 0.00064529
13530.0 0.00064239
13550.0 0.00063942
13570.0 0.00063617
13590.0 0.00063242
13610.0 0.00062815
13630.0 0.00062334
13650.0 0.00061776
13670.0 0.00061156
13690.0 0.00060499
13710.0 0.00059793
13730.0 0.00059029
13750.0 0.00058287
13770.0 0.00057553
13790.0 0.00056817
13810.0 0.00056117
13830.0 0.00055479
13850.0 0.00054871
13870.0 0.00054308
13890.0 0.00053812
13910.0 0.00053367
13930.0 0.00052956
13950.0 0.00052588
13970.0 0.00052263
13990.0 0.00051953
14010.0 0.00051653
14030.0 0.00051365
14050.0 0.00051074
14070.0 0.00050759
14090.0 0.00050431
14110.0 0.00050087
14130.0 0.00049709
14150.0 0.00049294
14170.0 0.00048868
14190.0 0.0004842
14210.0 0.00047937
14230.0 0.00047448
14250.0 0.00046969
14270.0 0.00046476
14290.0 0.0004599
14310.0 0.00045552
14330.0 0.00045144
14350.0 0.00044765
14370.0 0.00044442
14390.0 0.00044176
14410.0 0.00043951
14430.0 0.00043778
14450.0 0.00043657
14470.0 0.00043578
14490.0 0.00043534
14510.0 0.00043527
14530.0 0.00043547
14550.0 0.00043592
14570.0 0.00043663
14590.0 0.00043757
14610.0 0.0004388
14630.0 0.00044041
14650.0 0.00044238
14670.0 0.00044476
14690.0 0.00044773
14710.0 0.00045134
14730.0 0.00045538
14750.0 0.00046013
14770.0 0.0004657
14790.0 0.00047187
14810.0 0.00047863
14830.0 0.00048659
14850.0 0.0004953
14870.0 0.00050451
14890.0 0.00051457
14910.0 0.00052546
14930.0 0.00053628
14950.0 0.00054677
14970.0 0.00055711
14990.0 0.00056632
15010.0 0.00057399
15030.0 0.00058035
15050.0 0.00058541
15070.0 0.00058902
15090.0 0.00059175
15110.0 0.0005939
15130.0 0.00059566
15150.0 0.00059721
15170.0 0.00059868
15190.0 0.00060012
15210.0 0.00060157
15230.0 0.00060304
15250.0 0.00060454
15270.0 0.00060606
15290.0 0.00060763
15310.0 0.00060921
15330.0 0.00061082
15350.0 0.00061247
15370.0 0.00061414
15390.0 0.00061583
15410.0 0.00061755
15430.0 0.0006193
15450.0 0.00062107
15470.0 0.00062286
15490.0 0.00062468
15510.0 0.00062653
15530.0 0.00062839
15550.0 0.00063027
15570.0 0.00063218
15590.0 0.00063411
15610.0 0.00063605
15630.0 0.00063803
15650.0 0.00064001
15670.0 0.00064201
15690.0 0.00064404
15710.0 0.00064608
15730.0 0.00064813
15750.0 0.0006502
15770.0 0.00065229
15790.0 0.00065439
15810.0 0.00065649
15830.0 0.00065862
15850.0 0.00066076
15870.0 0.0006629
15890.0 0.00066506
15910.0 0.00066723
15930.0 0.0006694
15950.0 0.00067158
15970.0 0.00067377
15990.0 0.00067597
16010.0 0.00067817
16030.0 0.00068037
16050.0 0.00068259
16070.0 0.0006848
16090.0 0.00068702
16110.0 0.00068923
16130.0 0.00069146
16150.0 0.00069367
16170.0 0.00069588
16190.0 0.0006981
16210.0 0.00070031
16230.0 0.00070251
16250.0 0.00070471
16270.0 0.00070691
16290.0 0.00070909
16310.0 0.00071127
16330.0 0.00071345
16350.0 0.00071561
16370.0 0.00071775
16390.0 0.00071989
16410.0 0.00072202
16430.0 0.00072413
16450.0 0.00072623
16470.0 0.00072832
16490.0 0.00073039
16510.0 0.00073243
16530.0 0.00073447
16550.0 0.00073648
16570.0 0.00073847
16590.0 0.00074044
16610.0 0.0007424
16630.0 0.00074432
16650.0 0.00074622
16670.0 0.00074811
16690.0 0.00074996
16710.0 0.00075178
16730.0 0.00075358
16750.0 0.00075535
16770.0 0.00075709
16790.0 0.00075879
16810.0 0.00076048
16830.0 0.00076212
16850.0 0.00076373
16870.0 0.00076531
16890.0 0.00076686
16910.0 0.00076836
16930.0 0.00076983
16950.0 0.00077127
16970.0 0.00077266
16990.0 0.00077402
17010.0 0.00077533
17030.0 0.00077662
17050.0 0.00077785
17070.0 0.00077904
17090.0 0.00078019
17110.0 0.0007813
17130.0 0.00078235
17150.0 0.00078337
17170.0 0.00078435
17190.0 0.00078527
17210.0 0.00078615
17230.0 0.00078698
17250.0 0.00078777
17270.0 0.00078849
17290.0 0.00078918
17310.0 0.00078982
17330.0 0.0007904
17350.0 0.00079093
17370.0 0.00079142
17390.0 0.00079185
17410.0 0.00079223
17430.0 0.00079256
17450.0 0.00079284
17470.0 0.00079305
17490.0 0.00079322
17510.0 0.00079334
17530.0 0.0007934
17550.0 0.0007934
17570.0 0.00079336
17590.0 0.00079326
17610.0 0.0007931
17630.0 0.00079289
17650.0 0.00079263
17670.0 0.00079231
17690.0 0.00079192
17710.0 0.0007915
17730.0 0.00079101
17750.0 0.00079047
17770.0 0.00078987
17790.0 0.00078923
17810.0 0.00078852
17830.0 0.00078776
17850.0 0.00078695
17870.0 0.00078608
17890.0 0.00078515
17910.0 0.00078417
17930.0 0.00078315
17950.0 0.00078206
17970.0 0.00078092
17990.0 0.00077974
18010.0 0.0007785
18030.0 0.0007772
18050.0 0.00077585
18070.0 0.00077446
18090.0 0.00077301
18110.0 0.00077151
18130.0 0.00076997
18150.0 0.00076837
18170.0 0.00076672
18190.0 0.00076503
18210.0 0.00076329
18230.0 0.0007615
18250.0 0.00075966
18270.0 0.00075778
18290.0 0.00075586
18310.0 0.00075388
18330.0 0.00075186
18350.0 0.00074981
18370.0 0.00074771
18390.0 0.00074556
18410.0 0.00074338
18430.0 0.00074115
18450.0 0.00073888
18470.0 0.00073657
18490.0 0.00073424
18510.0 0.00073185
18530.0 0.00072943
18550.0 0.00072698
18570.0 0.00072449
18590.0 0.00072196
18610.0 0.00071941
18630.0 0.00071682
18650.0 0.0007142
18670.0 0.00071154
18690.0 0.00070886
18710.0 0.00070615
18730.0 0.0007034
18750.0 0.00070063
18770.0 0.00069784
18790.0 0.00069501
18810.0 0.00069216
18830.0 0.00068929
18850.0 0.00068639
18870.0 0.00068347
18890.0 0.00068053
18910.0 0.00067757
18930.0 0.00067459
18950.0 0.00067158
18970.0 0.00066857
18990.0 0.00066553
19010.0 0.00066246
19030.0 0.0006594
19050.0 0.00065631
19070.0 0.00065321
19090.0 0.00065009
19110.0 0.00064697
19130.0 0.00064383
19150.0 0.00064067
19170.0 0.00063751
19190.0 0.00063435
19210.0 0.00063116
19230.0 0.00062797
19250.0 0.00062478
19270.0 0.00062158
19290.0 0.00061837
19310.0 0.00061516
19330.0 0.00061194
19350.0 0.00060871
19370.0 0.00060549
19390.0 0.00060227
19410.0 0.00059904
19430.0 0.00059581
19450.0 0.00059258
19470.0 0.00058935
19490.0 0.00058612
19510.0 0.0005829
19530.0 0.00057968
19550.0 0.00057645
19570.0 0.00057323
19590.0 0.00057002
19610.0 0.00056681
19630.0 0.0005636
19650.0 0.00056041
19670.0 0.00055722
19690.0 0.00055403
19710.0 0.00055085
19730.0 0.00054768
19750.0 0.00054452
19770.0 0.00054136
19790.0 0.00053822
19810.0 0.00053508
19830.0 0.00053194
19850.0 0.00052879
19870.0 0.0005256
19890.0 0.00052231
19910.0 0.00051883
19930.0 0.00051505
19950.0 0.00051083
19970.0 0.0005059
19990.0 0.00050012
20010.0 0.00049362
20030.0 0.0004861
20050.0 0.00047761
20070.0 0.0004686
20090.0 0.00045918
20110.0 0.00044902
20130.0 0.00043898
20150.0 0.00042922
20170.0 0.00041942
20190.0 0.00040973
20210.0 0.00040063
20230.0 0.00039183
20250.0 0.0003831
20270.0 0.0003749
20290.0 0.00036721
20310.0 0.00035974
20330.0 0.0003525
20350.0 0.00034597
20370.0 0.00033974
20390.0 0.00033373
20410.0 0.00032816
20430.0 0.00032304
20450.0 0.00031806
20470.0 0.00031342
20490.0 0.00030918
20510.0 0.00030522
20530.0 0.00030147
20550.0 0.00029805
20570.0 0.00029494
20590.0 0.00029201
20610.0 0.00028932
20630.0 0.00028688
20650.0 0.00028462
20670.0 0.00028252
20690.0 0.00028061
20710.0 0.00027883
20730.0 0.00027716
20750.0 0.0002756
20770.0 0.00027411
20790.0 0.00027267
20810.0 0.00027127
20830.0 0.00026988
20850.0 0.00026848
20870.0 0.00026707
20890.0 0.00026562
20910.0 0.00026412
20930.0 0.00026255
20950.0 0.00026091
20970.0 0.0002592
20990.0 0.00025741
21010.0 0.00025551
21030.0 0.00025353
21050.0 0.00025148
21070.0 0.00024933
21090.0 0.00024707
21110.0 0.00024477
21130.0 0.00024242
21150.0 0.00023997
21170.0 0.00023748
21190.0 0.00023499
21210.0 0.00023241
21230.0 0.00022978
21250.0 0.00022718
21270.0 0.00022459
21290.0 0.00022195
21310.0 0.00021933
21330.0 0.0002168
21350.0 0.00021425
21370.0 0.00021172
21390.0 0.00020929
21410.0 0.00020694
21430.0 0.00020458
21450.0 0.00020236
21470.0 0.00020027
21490.0 0.00019825
21510.0 0.00019633
21530.0 0.00019458
21550.0 0.00019295
21570.0 0.00019142
21590.0 0.00019005
21610.0 0.00018881
21630.0 0.00018771
21650.0 0.00018674
21670.0 0.0001859
21690.0 0.00018517
21710.0 0.00018456
21730.0 0.00018405
21750.0 0.00018362
21770.0 0.00018328
21790.0 0.00018302
21810.0 0.00018278
21830.0 0.00018259
21850.0 0.00018244
21870.0 0.00018228
21890.0 0.0001821
21910.0 0.00018193
21930.0 0.00018174
21950.0 0.00018149
21970.0 0.00018122
21990.0 0.00018091
22010.0 0.00018053
22030.0 0.00018009
22050.0 0.00017961
22070.0 0.00017908
22090.0 0.00017849
22110.0 0.00017785
22130.0 0.00017717
22150.0 0.00017645
22170.0 0.00017569
22190.0 0.0001749
22210.0 0.00017407
22230.0 0.00017322
22250.0 0.00017234
22270.0 0.00017142
22290.0 0.00017047
22310.0 0.0001695
22330.0 0.00016846
22350.0 0.00016738
22370.0 0.00016626
22390.0 0.00016506
22410.0 0.00016376
22430.0 0.00016241
22450.0 0.00016097
22470.0 0.00015941
22490.0 0.00015776
22510.0 0.00015605
22530.0 0.00015419
22550.0 0.0001522
22570.0 0.00015018
22590.0 0.00014809
22610.0 0.00014587
22630.0 0.00014362
22650.0 0.0001414
22670.0 0.00013911
22690.0 0.00013679
22710.0 0.00013455
22730.0 0.00013234
22750.0 0.00013009
22770.0 0.00012798
22790.0 0.000126
22810.0 0.00012405
22830.0 0.00012219
22850.0 0.0001205
22870.0 0.00011889
22890.0 0.00011735
22910.0 0.00011594
22930.0 0.00011466
22950.0 0.00011344
22970.0 0.00011228
22990.0 0.00011126
23010.0 0.00011029
23030.0 0.00010935
23050.0 0.00010848
23070.0 0.00010765
23090.0 0.0001068
23110.0 0.00010598
