#lamb flux
1010.0 1.0203e-05
1030.0 1.0664e-05
1050.0 1.1197e-05
1070.0 1.1798e-05
1090.0 1.2481e-05
1110.0 1.3183e-05
1130.0 1.3892e-05
1150.0 1.4637e-05
1170.0 1.5408e-05
1190.0 1.6143e-05
1210.0 1.689e-05
1230.0 1.7666e-05
1250.0 1.843e-05
1270.0 1.9176e-05
1290.0 1.9968e-05
1310.0 2.0764e-05
1330.0 2.1533e-05
1350.0 2.2315e-05
1370.0 2.3127e-05
1390.0 2.3925e-05
1410.0 2.4706e-05
1430.0 2.5527e-05
1450.0 2.6353e-05
1470.0 2.7158e-05
1490.0 2.7978e-05
1510.0 2.8846e-05
1530.0 2.9677e-05
1550.0 3.0502e-05
1570.0 3.1358e-05
1590.0 3.2218e-05
1610.0 3.3047e-05
1630.0 3.3901e-05
1650.0 3.4777e-05
1670.0 3.5627e-05
1690.0 3.6466e-05
1710.0 3.7334e-05
1730.0 3.8204e-05
1750.0 3.9021e-05
1770.0 3.9855e-05
1790.0 4.07e-05
1810.0 4.1511e-05
1830.0 4.23e-05
1850.0 4.3128e-05
1870.0 4.3924e-05
1890.0 4.4683e-05
1910.0 4.5447e-05
1930.0 4.6219e-05
1950.0 4.6943e-05
1970.0 4.7647e-05
1990.0 4.837e-05
2010.0 4.9071e-05
2030.0 4.9737e-05
2050.0 5.042e-05
2070.0 5.1118e-05
2090.0 5.177e-05
2110.0 5.2421e-05
2130.0 5.3097e-05
2150.0 5.3767e-05
2170.0 5.4414e-05
2190.0 5.5103e-05
2210.0 5.5815e-05
2230.0 5.6519e-05
2250.0 5.7245e-05
2270.0 5.8034e-05
2290.0 5.8834e-05
2310.0 5.9643e-05
2330.0 6.0517e-05
2350.0 6.1446e-05
2370.0 6.2395e-05
2390.0 6.3409e-05
2410.0 6.4518e-05
2430.0 6.5666e-05
2450.0 6.6852e-05
2470.0 6.8103e-05
2490.0 6.9384e-05
2510.0 7.0645e-05
2530.0 7.1988e-05
2550.0 7.3586e-05
2570.0 7.5707e-05
2590.0 7.8736e-05
2610.0 8.3513e-05
2630.0 9.0567e-05
2650.0 9.9903e-05
2670.0 0.00011189
2690.0 0.00012654
2710.0 0.00014242
2730.0 0.0001587
2750.0 0.00017567
2770.0 0.00019217
2790.0 0.00020769
2810.0 0.00022296
2830.0 0.00023863
2850.0 0.00025385
2870.0 0.00026938
2890.0 0.00028586
2910.0 0.00030297
2930.0 0.00032023
2950.0 0.00033855
2970.0 0.00035778
2990.0 0.00037717
3010.0 0.00070125
3030.0 0.00073787
3050.0 0.00077477
3070.0 0.00080951
3090.0 0.00084193
3110.0 0.0008673
3130.0 0.00087936
3150.0 0.00087162
3170.0 0.00083131
3190.0 0.00075468
3210.0 0.00064181
3230.0 0.0005109
3250.0 0.00060787
3270.0 0.00037488
3290.0 0.00063935
3310.0 0.00028294
3330.0 0.00030281
3350.0 0.00037099
3370.0 0.00044557
3390.0 0.00052319
3410.0 0.00060045
3430.0 0.00068025
3450.0 0.00075957
3470.0 0.00083337
3490.0 0.00088378
3510.0 0.0010215
3530.0 0.0012944
3550.0 0.0013909
3570.0 0.0013871
3590.0 0.0018243
3610.0 0.0015118
3630.0 0.001905
3650.0 0.0019928
3670.0 0.0023547
3690.0 0.0024147
3710.0 0.0021663
3730.0 0.0026577
3750.0 0.0027697
3770.0 0.002815
3790.0 0.0026056
3810.0 0.0022594
3830.0 0.0024493
3850.0 0.0023314
3870.0 0.002733
3890.0 0.0027948
3910.0 0.0029153
3930.0 0.0033164
3950.0 0.0036835
3970.0 0.0045769
3990.0 0.0042983
4010.0 0.0036239
4030.0 0.0040299
4050.0 0.0039124
4070.0 0.0040944
4090.0 0.0038832
4110.0 0.0032156
4130.0 0.0037058
4150.0 0.0034601
4170.0 0.003597
4190.0 0.0035831
4210.0 0.0040616
4230.0 0.0033651
4250.0 0.0038265
4270.0 0.0038218
4290.0 0.0038736
4310.0 0.0043694
4330.0 0.0045473
4350.0 0.0040704
4370.0 0.0038184
4390.0 0.0039979
4410.0 0.0037597
4430.0 0.0030453
4450.0 0.0029511
4470.0 0.0031931
4490.0 0.0027869
4510.0 0.0032069
4530.0 0.0035097
4550.0 0.0044345
4570.0 0.0061148
4590.0 0.0066963
4610.0 0.0059995
4630.0 0.0077217
4650.0 0.0095372
4670.0 0.0092111
4690.0 0.0070137
4710.0 0.0068805
4730.0 0.0072311
4750.0 0.0062332
4770.0 0.0049937
4790.0 0.0040045
4810.0 0.004955
4830.0 0.0055871
4850.0 0.0056725
4870.0 0.0039785
4890.0 0.006132
4910.0 0.0073104
4930.0 0.0078897
4950.0 0.0085015
4970.0 0.0073797
4990.0 0.0079899
5010.0 0.0080209
5030.0 0.007494
5050.0 0.0067139
5070.0 0.0051075
5090.0 0.0044119
5110.0 0.0042258
5130.0 0.0039625
5150.0 0.0043485
5170.0 0.0040159
5190.0 0.0045544
5210.0 0.0045803
5230.0 0.004939
5250.0 0.0060199
5270.0 0.0058654
5290.0 0.0060717
5310.0 0.0075768
5330.0 0.0084305
5350.0 0.0079217
5370.0 0.0074741
5390.0 0.0077073
5410.0 0.0084252
5430.0 0.0088774
5450.0 0.0097079
5470.0 0.010572
5490.0 0.011234
5510.0 0.012703
5530.0 0.013039
5550.0 0.013302
5570.0 0.013404
5590.0 0.013119
5610.0 0.012686
5630.0 0.012426
5650.0 0.012488
5670.0 0.0123
5690.0 0.010995
5710.0 0.010177
5730.0 0.009564
5750.0 0.0096136
5770.0 0.0086864
5790.0 0.0083624
5810.0 0.0086067
5830.0 0.0088934
5850.0 0.0083533
5870.0 0.0080898
5890.0 0.0086177
5910.0 0.008267
5930.0 0.0074281
5950.0 0.0068413
5970.0 0.0068066
5990.0 0.0060963
6010.0 0.0054911
6030.0 0.0053166
6050.0 0.005078
6070.0 0.0044102
6090.0 0.0042033
6110.0 0.0047294
6130.0 0.0050884
6150.0 0.0053831
6170.0 0.0056185
6190.0 0.0057812
6210.0 0.0058735
6230.0 0.0062523
6250.0 0.0057661
6270.0 0.0051787
6290.0 0.0045872
6310.0 0.0041751
6330.0 0.0039205
6350.0 0.0036224
6370.0 0.0037044
6390.0 0.0042656
6410.0 0.0051414
6430.0 0.0060079
6450.0 0.0062585
6470.0 0.0065344
6490.0 0.0074532
6510.0 0.0080169
6530.0 0.0077922
6550.0 0.0076966
6570.0 0.0077939
6590.0 0.0076194
6610.0 0.0079561
6630.0 0.0076774
6650.0 0.0071796
6670.0 0.0066332
6690.0 0.0061971
6710.0 0.0066269
6730.0 0.0062083
6750.0 0.0058314
6770.0 0.0056768
6790.0 0.0058977
6810.0 0.0061889
6830.0 0.0060485
6850.0 0.0056876
6870.0 0.0056538
6890.0 0.0054496
6910.0 0.0051747
6930.0 0.0055846
6950.0 0.0054401
6970.0 0.0054237
6990.0 0.0055507
7010.0 0.0054039
7030.0 0.0050722
7050.0 0.0046787
7070.0 0.0045214
7090.0 0.0041377
7110.0 0.0037394
7130.0 0.0033202
7150.0 0.0031194
7170.0 0.0035937
7190.0 0.0037931
7210.0 0.0038534
7230.0 0.0041536
7250.0 0.0041864
7270.0 0.0041626
7290.0 0.0043032
7310.0 0.0043892
7330.0 0.0042027
7350.0 0.0040114
7370.0 0.0039617
7390.0 0.0041801
7410.0 0.0047355
7430.0 0.0052207
7450.0 0.0057441
7470.0 0.0059683
7490.0 0.0061186
7510.0 0.0058664
7530.0 0.0056589
7550.0 0.0052595
7570.0 0.0045781
7590.0 0.004411
7610.0 0.0043807
7630.0 0.0044157
7650.0 0.0049661
7670.0 0.0055022
7690.0 0.0060214
7710.0 0.0065961
7730.0 0.0070378
7750.0 0.0073883
7770.0 0.007468
7790.0 0.0079332
7810.0 0.0081896
7830.0 0.007947
7850.0 0.0080144
7870.0 0.0077049
7890.0 0.0077557
7910.0 0.0073592
7930.0 0.0073102
7950.0 0.0068403
7970.0 0.0069825
7990.0 0.0068356
8010.0 0.0067336
8030.0 0.0067508
8050.0 0.0070223
8070.0 0.0068712
8090.0 0.0069018
8110.0 0.0066977
8130.0 0.0066942
8150.0 0.0064812
8170.0 0.0063164
8190.0 0.006251
8210.0 0.0063144
8230.0 0.0057881
8250.0 0.0053651
8270.0 0.0046983
8290.0 0.003849
8310.0 0.003144
8330.0 0.0024741
8350.0 0.0021354
8370.0 0.0023025
8390.0 0.0025133
8410.0 0.0027422
8430.0 0.0032017
8450.0 0.0034065
8470.0 0.003583
8490.0 0.0040391
8510.0 0.0044517
8530.0 0.0051669
8550.0 0.0061138
8570.0 0.0069164
8590.0 0.0075453
8610.0 0.008198
8630.0 0.0088264
8650.0 0.0089581
8670.0 0.0090311
8690.0 0.0093631
8710.0 0.0094025
8730.0 0.0094735
8750.0 0.0091591
8770.0 0.0091875
8790.0 0.0090723
8810.0 0.0084344
8830.0 0.008339
8850.0 0.0078912
8870.0 0.007594
8890.0 0.0071259
8910.0 0.0074612
8930.0 0.0069511
8950.0 0.0067784
8970.0 0.0067428
8990.0 0.0065602
9010.0 0.0065671
9030.0 0.0063553
9050.0 0.0063192
9070.0 0.0063059
9090.0 0.0062921
9110.0 0.0062796
9130.0 0.0062642
9150.0 0.0062476
9170.0 0.0062194
9190.0 0.0061738
9210.0 0.0062222
9230.0 0.0061894
9250.0 0.006164
9270.0 0.0061398
9290.0 0.0061164
9310.0 0.0060935
9330.0 0.0060706
9350.0 0.0060475
9370.0 0.0060241
9390.0 0.0060004
9410.0 0.0059762
9430.0 0.0059513
9450.0 0.0059253
9470.0 0.0058992
9490.0 0.0058744
9510.0 0.0058489
9530.0 0.005823
9550.0 0.0057966
9570.0 0.0057698
9590.0 0.0057429
9610.0 0.0057158
9630.0 0.0056884
9650.0 0.0056609
9670.0 0.0056334
9690.0 0.0056056
9710.0 0.0055778
9730.0 0.0055501
9750.0 0.0055222
9770.0 0.0054943
9790.0 0.0054664
9810.0 0.0054386
9830.0 0.0054107
9850.0 0.005383
9870.0 0.0053553
9890.0 0.0053276
9910.0 0.0053001
9930.0 0.0052723
9950.0 0.0052215
9970.0 0.0052012
9990.0 0.0051798
10010.0 0.005158
10030.0 0.0051343
10050.0 0.0051085
10070.0 0.0050799
10090.0 0.0050561
10110.0 0.0050308
10130.0 0.0050062
10150.0 0.0049817
10170.0 0.0049564
10190.0 0.0049304
10210.0 0.0049058
10230.0 0.0048818
10250.0 0.0048569
10270.0 0.0048325
10290.0 0.0048093
10310.0 0.0047854
10330.0 0.004761
10350.0 0.004738
10370.0 0.0047154
10390.0 0.0046921
10410.0 0.0046692
10430.0 0.0046478
10450.0 0.0046256
10470.0 0.0046031
10490.0 0.0045819
10510.0 0.004561
10530.0 0.0045387
10550.0 0.0045175
10570.0 0.0044974
10590.0 0.0044768
10610.0 0.0044559
10630.0 0.0044363
10650.0 0.0044168
10670.0 0.0043963
10690.0 0.0043767
10710.0 0.0043579
10730.0 0.0043385
10750.0 0.0043184
10770.0 0.0043003
10790.0 0.004282
10810.0 0.0042629
10830.0 0.0042445
10850.0 0.0042269
10870.0 0.0042074
10890.0 0.0041871
10910.0 0.0041665
10930.0 0.0041431
10950.0 0.0041143
10970.0 0.0040808
10990.0 0.0040425
11010.0 0.0038292
11030.0 0.0037789
11050.0 0.0037242
11070.0 0.0036637
11090.0 0.0035951
11110.0 0.0035279
11130.0 0.0034609
11150.0 0.0033913
11170.0 0.003322
11190.0 0.0032573
11210.0 0.003192
11230.0 0.0031264
11250.0 0.0030649
11270.0 0.0030067
11290.0 0.0029481
11310.0 0.0028924
11330.0 0.0028431
11350.0 0.0027954
11370.0 0.0027495
11390.0 0.0027084
11410.0 0.0026706
11430.0 0.0026324
11450.0 0.0025969
11470.0 0.002564
11490.0 0.0025307
11510.0 0.0024958
11530.0 0.0024622
11550.0 0.0024278
11570.0 0.0023897
11590.0 0.0023501
11610.0 0.0023099
11630.0 0.0022654
11650.0 0.0022172
11670.0 0.0021696
11690.0 0.0021206
11710.0 0.0020683
11730.0 0.0020162
11750.0 0.0019667
11770.0 0.0019155
11790.0 0.0018649
11810.0 0.001818
11830.0 0.0017734
11850.0 0.0017285
11870.0 0.001688
11890.0 0.0016517
11910.0 0.0016167
11930.0 0.0015838
11950.0 0.0015549
11970.0 0.0015277
11990.0 0.001501
12010.0 0.0014769
12030.0 0.001455
12050.0 0.0014334
12070.0 0.0014124
12090.0 0.0013942
12110.0 0.0013767
12130.0 0.0013596
12150.0 0.0013443
12170.0 0.0013312
12190.0 0.0013186
12210.0 0.0013083
12230.0 0.001301
12250.0 0.0012964
12270.0 0.0012947
12290.0 0.0012969
12310.0 0.0013029
12330.0 0.0013129
12350.0 0.0013273
12370.0 0.0013455
12390.0 0.0013676
12410.0 0.0013945
12430.0 0.0014235
12450.0 0.0014547
12470.0 0.0014886
12490.0 0.0015238
12510.0 0.0015582
12530.0 0.0015932
12550.0 0.0016279
12570.0 0.0016604
12590.0 0.0016908
12610.0 0.0017197
12630.0 0.0017459
12650.0 0.0017685
12670.0 0.0017887
12690.0 0.0018062
12710.0 0.0018205
12730.0 0.001832
12750.0 0.0018408
12770.0 0.0018469
12790.0 0.0018506
12810.0 0.0018518
12830.0 0.0018504
12850.0 0.0018473
12870.0 0.0018423
12890.0 0.001835
12910.0 0.001826
12930.0 0.001816
12950.0 0.0018038
12970.0 0.0017895
12990.0 0.0017748
13010.0 0.0017587
13030.0 0.0017404
13050.0 0.0017213
13070.0 0.0017019
13090.0 0.0016805
13110.0 0.001658
13130.0 0.0016358
13150.0 0.0016134
13170.0 0.0015897
13190.0 0.0015677
13210.0 0.0015477
13230.0 0.0015286
13250.0 0.0015115
13270.0 0.0014978
13290.0 0.0014868
13310.0 0.0014785
13330.0 0.001474
13350.0 0.0014726
13370.0 0.0014738
13390.0 0.0014775
13410.0 0.0014827
13430.0 0.0014888
13450.0 0.001495
13470.0 0.0015003
13490.0 0.001504
13510.0 0.0015054
13530.0 0.0015038
13550.0 0.0014993
13570.0 0.0014913
13590.0 0.0014797
13610.0 0.0014655
13630.0 0.0014493
13650.0 0.0014301
13670.0 0.0014096
13690.0 0.0013889
13710.0 0.0013675
13730.0 0.0013451
13750.0 0.0013247
13770.0 0.0013052
13790.0 0.0012862
13810.0 0.0012684
13830.0 0.0012526
13850.0 0.0012373
13870.0 0.0012229
13890.0 0.0012099
13910.0 0.0011979
13930.0 0.0011861
13950.0 0.001175
13970.0 0.001165
13990.0 0.0011552
14010.0 0.0011458
14030.0 0.0011371
14050.0 0.0011291
14070.0 0.0011212
14090.0 0.001114
14110.0 0.0011077
14130.0 0.0011018
14150.0 0.0010966
14170.0 0.0010921
14190.0 0.0010883
14210.0 0.001085
14230.0 0.0010825
14250.0 0.0010806
14270.0 0.0010794
14290.0 0.0010789
14310.0 0.001079
14330.0 0.0010798
14350.0 0.0010812
14370.0 0.0010831
14390.0 0.0010851
14410.0 0.0010876
14430.0 0.0010902
14450.0 0.0010926
14470.0 0.0010948
14490.0 0.0010968
14510.0 0.0010983
14530.0 0.0010991
14550.0 0.0010997
14570.0 0.0010998
14590.0 0.0010996
14610.0 0.0010994
14630.0 0.0010994
14650.0 0.0010996
14670.0 0.0011004
14690.0 0.0011023
14710.0 0.0011053
14730.0 0.0011093
14750.0 0.001115
14770.0 0.0011226
14790.0 0.0011317
14810.0 0.0011421
14830.0 0.0011554
14850.0 0.0011703
14870.0 0.0011858
14890.0 0.0012028
14910.0 0.001221
14930.0 0.001238
14950.0 0.0012535
14970.0 0.0012678
14990.0 0.0012788
15010.0 0.001286
15030.0 0.0012898
15050.0 0.0012906
15070.0 0.0012882
15090.0 0.0012839
15110.0 0.0012782
15130.0 0.0012717
15150.0 0.0012648
15170.0 0.0012575
15190.0 0.0012501
15210.0 0.0012428
15230.0 0.0012354
15250.0 0.0012279
15270.0 0.0012204
15290.0 0.0012131
15310.0 0.0012056
15330.0 0.0011982
15350.0 0.0011908
15370.0 0.0011834
15390.0 0.001176
15410.0 0.0011686
15430.0 0.0011613
15450.0 0.0011539
15470.0 0.0011466
15490.0 0.0011393
15510.0 0.001132
15530.0 0.0011247
15550.0 0.0011174
15570.0 0.0011102
15590.0 0.001103
15610.0 0.0010958
15630.0 0.0010887
15650.0 0.0010816
15670.0 0.0010744
15690.0 0.0010674
15710.0 0.0010604
15730.0 0.0010534
15750.0 0.0010464
15770.0 0.0010394
15790.0 0.0010326
15810.0 0.0010256
15830.0 0.0010188
15850.0 0.0010121
15870.0 0.0010053
15890.0 0.00099856
15910.0 0.00099192
15930.0 0.00098529
15950.0 0.00097866
15970.0 0.00097211
15990.0 0.00096562
16010.0 0.00095913
16030.0 0.00095267
16050.0 0.00094633
16070.0 0.00094
16090.0 0.00093368
16110.0 0.00092744
16130.0 0.00092128
16150.0 0.00091507
16170.0 0.00090894
16190.0 0.0009029
16210.0 0.00089689
16230.0 0.00089088
16250.0 0.00088497
16270.0 0.00087912
16290.0 0.00087327
16310.0 0.00086747
16330.0 0.00086176
16350.0 0.00085607
16370.0 0.00085038
16390.0 0.00084481
16410.0 0.00083928
16430.0 0.00083377
16450.0 0.00082831
16470.0 0.00082295
16490.0 0.00081759
16510.0 0.00081225
16530.0 0.00080701
16550.0 0.00080182
16570.0 0.00079663
16590.0 0.0007915
16610.0 0.00078647
16630.0 0.00078145
16650.0 0.00077647
16670.0 0.00077157
16690.0 0.00076671
16710.0 0.00076185
16730.0 0.00075707
16750.0 0.00075236
16770.0 0.00074766
16790.0 0.000743
16810.0 0.00073843
16830.0 0.0007339
16850.0 0.00072938
16870.0 0.00072493
16890.0 0.00072055
16910.0 0.00071617
16930.0 0.00071182
16950.0 0.00070757
16970.0 0.00070335
16990.0 0.00069915
17010.0 0.00069501
17030.0 0.00069095
17050.0 0.00068688
17070.0 0.00068285
17090.0 0.00067891
17110.0 0.00067499
17130.0 0.00067108
17150.0 0.00066724
17170.0 0.00066347
17190.0 0.00065971
17210.0 0.00065598
17230.0 0.00065234
17250.0 0.00064871
17270.0 0.00064509
17290.0 0.00064154
17310.0 0.00063805
17330.0 0.00063456
17350.0 0.0006311
17370.0 0.00062774
17390.0 0.00062438
17410.0 0.00062105
17430.0 0.00061778
17450.0 0.00061456
17470.0 0.00061132
17490.0 0.00060813
17510.0 0.00060502
17530.0 0.00060193
17550.0 0.00059884
17570.0 0.00059583
17590.0 0.00059286
17610.0 0.00058988
17630.0 0.00058695
17650.0 0.00058408
17670.0 0.00058123
17690.0 0.00057836
17710.0 0.00057559
17730.0 0.00057285
17750.0 0.00057011
17770.0 0.00056742
17790.0 0.00056479
17810.0 0.00056214
17830.0 0.00055952
17850.0 0.00055697
17870.0 0.00055444
17890.0 0.00055191
17910.0 0.00054942
17930.0 0.000547
17950.0 0.00054458
17970.0 0.00054217
17990.0 0.00053982
18010.0 0.0005375
18030.0 0.00053516
18050.0 0.00053288
18070.0 0.00053065
18090.0 0.00052841
18110.0 0.00052619
18130.0 0.00052404
18150.0 0.0005219
18170.0 0.00051976
18190.0 0.00051766
18210.0 0.00051561
18230.0 0.00051355
18250.0 0.0005115
18270.0 0.00050952
18290.0 0.00050755
18310.0 0.00050558
18330.0 0.00050366
18350.0 0.00050177
18370.0 0.00049987
18390.0 0.000498
18410.0 0.00049618
18430.0 0.00049436
18450.0 0.00049253
18470.0 0.00049076
18490.0 0.00048903
18510.0 0.00048728
18530.0 0.00048556
18550.0 0.00048389
18570.0 0.00048222
18590.0 0.00048054
18610.0 0.00047891
18630.0 0.00047731
18650.0 0.00047569
18670.0 0.0004741
18690.0 0.00047256
18710.0 0.00047102
18730.0 0.00046948
18750.0 0.00046798
18770.0 0.00046651
18790.0 0.00046501
18810.0 0.00046355
18830.0 0.00046213
18850.0 0.0004607
18870.0 0.00045927
18890.0 0.0004579
18910.0 0.00045654
18930.0 0.00045516
18950.0 0.00045381
18970.0 0.0004525
18990.0 0.00045118
19010.0 0.00044985
19030.0 0.00044858
19050.0 0.00044732
19070.0 0.00044605
19090.0 0.0004448
19110.0 0.0004436
19130.0 0.00044236
19150.0 0.00044114
19170.0 0.00043996
19190.0 0.00043879
19210.0 0.0004376
19230.0 0.00043644
19250.0 0.00043532
19270.0 0.00043419
19290.0 0.00043306
19310.0 0.00043197
19330.0 0.00043088
19350.0 0.00042977
19370.0 0.00042869
19390.0 0.00042765
19410.0 0.00042659
19430.0 0.00042553
19450.0 0.00042452
19470.0 0.00042351
19490.0 0.00042248
19510.0 0.00042148
19530.0 0.00042051
19550.0 0.00041951
19570.0 0.00041851
19590.0 0.00041757
19610.0 0.00041662
19630.0 0.00041565
19650.0 0.00041472
19670.0 0.00041382
19690.0 0.00041288
19710.0 0.00041196
19730.0 0.00041107
19750.0 0.00041017
19770.0 0.00040925
19790.0 0.00040838
19810.0 0.00040752
19830.0 0.00040663
19850.0 0.00040574
19870.0 0.00040486
19890.0 0.00040388
19910.0 0.00040275
19930.0 0.00040146
19950.0 0.00039986
19970.0 0.00039773
19990.0 0.00039501
20010.0 0.00039178
20030.0 0.00038774
20050.0 0.00038291
20070.0 0.00037763
20090.0 0.00037191
20110.0 0.00036543
20130.0 0.00035888
20150.0 0.0003524
20170.0 0.0003457
20190.0 0.0003389
20210.0 0.00033248
20230.0 0.0003262
20250.0 0.00031988
20270.0 0.00031398
20290.0 0.00030856
20310.0 0.00030337
20330.0 0.00029847
20350.0 0.00029437
20370.0 0.00029071
20390.0 0.00028747
20410.0 0.00028486
20430.0 0.00028286
20450.0 0.00028132
20470.0 0.00028036
20490.0 0.00027996
20510.0 0.00028005
20530.0 0.00028064
20550.0 0.00028167
20570.0 0.00028303
20590.0 0.00028477
20610.0 0.00028681
20630.0 0.00028899
20650.0 0.00029136
20670.0 0.00029395
20690.0 0.00029647
20710.0 0.00029892
20730.0 0.00030138
20750.0 0.0003037
20770.0 0.00030575
20790.0 0.00030763
20810.0 0.00030929
20830.0 0.00031062
20850.0 0.00031163
20870.0 0.00031236
20890.0 0.00031274
20910.0 0.00031278
20930.0 0.00031252
20950.0 0.00031193
20970.0 0.00031108
20990.0 0.00031
21010.0 0.0003086
21030.0 0.00030701
21050.0 0.00030529
21070.0 0.00030339
21090.0 0.00030129
21110.0 0.0002992
21130.0 0.00029709
21150.0 0.00029487
21170.0 0.00029269
21190.0 0.00029063
21210.0 0.00028856
21230.0 0.00028656
21250.0 0.00028478
21270.0 0.00028317
21290.0 0.00028168
21310.0 0.00028043
21330.0 0.00027945
21350.0 0.00027868
21370.0 0.00027815
21390.0 0.00027789
21410.0 0.00027789
21430.0 0.00027815
21450.0 0.00027867
21470.0 0.00027942
21490.0 0.0002804
21510.0 0.00028163
21530.0 0.00028299
21550.0 0.00028454
21570.0 0.00028631
21590.0 0.00028819
21610.0 0.00029014
21630.0 0.00029226
21650.0 0.00029453
21670.0 0.00029675
21690.0 0.00029905
21710.0 0.00030149
21730.0 0.00030392
21750.0 0.00030631
21770.0 0.00030887
21790.0 0.00031144
21810.0 0.00031394
21830.0 0.00031648
21850.0 0.00031911
21870.0 0.00032167
21890.0 0.00032414
21910.0 0.00032669
21930.0 0.00032921
21950.0 0.0003316
21970.0 0.00033396
21990.0 0.00033634
22010.0 0.00033852
22030.0 0.00034055
22050.0 0.00034249
22070.0 0.00034426
22090.0 0.00034577
22110.0 0.0003471
22130.0 0.0003482
22150.0 0.000349
22170.0 0.00034951
22190.0 0.00034972
22210.0 0.00034958
22230.0 0.00034911
22250.0 0.00034829
22270.0 0.00034708
22290.0 0.00034556
22310.0 0.00034373
22330.0 0.00034144
22350.0 0.00033884
22370.0 0.00033602
22390.0 0.00033284
22410.0 0.00032928
22430.0 0.00032565
22450.0 0.00032184
22470.0 0.00031771
22490.0 0.00031348
22510.0 0.00030929
22530.0 0.00030486
22550.0 0.0003003
22570.0 0.00029594
22590.0 0.0002916
22610.0 0.00028719
22630.0 0.00028292
22650.0 0.00027895
22670.0 0.00027496
22690.0 0.00027109
22710.0 0.00026752
22730.0 0.00026413
22750.0 0.00026073
22770.0 0.00025767
22790.0 0.00025487
22810.0 0.00025216
22830.0 0.00024961
22850.0 0.00024734
22870.0 0.00024519
22890.0 0.00024312
22910.0 0.00024124
22930.0 0.00023953
22950.0 0.0002379
22970.0 0.00023634
22990.0 0.000235
23010.0 0.00023374
23030.0 0.00023254
23050.0 0.00023147
23070.0 0.00023051
23090.0 0.00022959
23110.0 0.00022876
23130.0 0.00022804
23150.0 0.00022738
23170.0 0.00022676
23190.0 0.00022623
23210.0 0.00022577
23230.0 0.00022534
23250.0 0.00022497
23270.0 0.00022466
23290.0 0.00022441
