#lamb flux
1010.0 1.7919e-08
1030.0 1.9818e-08
1050.0 2.2003e-08
1070.0 2.4462e-08
1090.0 2.7256e-08
1110.0 3.0121e-08
1130.0 3.3005e-08
1150.0 3.6026e-08
1170.0 3.9142e-08
1190.0 4.2096e-08
1210.0 4.5091e-08
1230.0 4.8186e-08
1250.0 5.1217e-08
1270.0 5.4162e-08
1290.0 5.7273e-08
1310.0 6.0382e-08
1330.0 6.3363e-08
1350.0 6.6378e-08
1370.0 6.9491e-08
1390.0 7.2526e-08
1410.0 7.5471e-08
1430.0 7.855e-08
1450.0 8.1629e-08
1470.0 8.4604e-08
1490.0 8.7612e-08
1510.0 9.079e-08
1530.0 9.3801e-08
1550.0 9.6772e-08
1570.0 9.9846e-08
1590.0 1.0292e-07
1610.0 1.0587e-07
1630.0 1.089e-07
1650.0 1.1201e-07
1670.0 1.1503e-07
1690.0 1.1801e-07
1710.0 1.211e-07
1730.0 1.2422e-07
1750.0 1.2715e-07
1770.0 1.3017e-07
1790.0 1.3325e-07
1810.0 1.3624e-07
1830.0 1.3919e-07
1850.0 1.4231e-07
1870.0 1.4537e-07
1890.0 1.4832e-07
1910.0 1.5134e-07
1930.0 1.5444e-07
1950.0 1.574e-07
1970.0 1.6034e-07
1990.0 1.6339e-07
2010.0 1.664e-07
2030.0 1.6931e-07
2050.0 1.7231e-07
2070.0 1.754e-07
2090.0 1.7831e-07
2110.0 1.8123e-07
2130.0 1.8424e-07
2150.0 1.872e-07
2170.0 1.9003e-07
2190.0 1.9298e-07
2210.0 1.9595e-07
2230.0 1.9881e-07
2250.0 2.0166e-07
2270.0 2.0464e-07
2290.0 2.0753e-07
2310.0 2.1031e-07
2330.0 2.132e-07
2350.0 2.1617e-07
2370.0 2.1912e-07
2390.0 2.2233e-07
2410.0 2.2612e-07
2430.0 2.3048e-07
2450.0 2.357e-07
2470.0 2.4238e-07
2490.0 2.508e-07
2510.0 2.6038e-07
2530.0 2.719e-07
2550.0 2.8633e-07
2570.0 3.0428e-07
2590.0 3.2762e-07
2610.0 3.6257e-07
2630.0 4.1247e-07
2650.0 4.7772e-07
2670.0 5.6208e-07
2690.0 6.6575e-07
2710.0 7.7641e-07
2730.0 8.8576e-07
2750.0 9.9346e-07
2770.0 1.0871e-06
2790.0 1.1615e-06
2810.0 1.2206e-06
2830.0 1.2667e-06
2850.0 1.2982e-06
2870.0 1.3213e-06
2890.0 1.3396e-06
2910.0 1.3542e-06
2930.0 1.3661e-06
2950.0 1.3775e-06
2970.0 1.3886e-06
2990.0 1.3991e-06
3010.0 3.9546e-05
3030.0 3.9842e-05
3050.0 4.0127e-05
3070.0 4.0372e-05
3090.0 4.0582e-05
3110.0 4.0713e-05
3130.0 4.0708e-05
3150.0 4.0527e-05
3170.0 4.0093e-05
3190.0 3.9411e-05
3210.0 3.8547e-05
3230.0 3.7557e-05
3250.0 3.6581e-05
3270.0 3.5867e-05
3290.0 3.5471e-05
3310.0 3.5535e-05
3330.0 3.6049e-05
3350.0 3.6945e-05
3370.0 3.8224e-05
3390.0 3.9835e-05
3410.0 4.1589e-05
3430.0 4.3558e-05
3450.0 4.5824e-05
3470.0 4.83e-05
3490.0 5.0923e-05
3510.0 5.3888e-05
3530.0 5.7063e-05
3550.0 6.0278e-05
3570.0 6.3632e-05
3590.0 6.7279e-05
3610.0 7.1037e-05
3630.0 7.4783e-05
3650.0 7.867e-05
3670.0 8.2218e-05
3690.0 8.4871e-05
3710.0 8.6391e-05
3730.0 8.6441e-05
3750.0 8.5238e-05
3770.0 8.4766e-05
3790.0 8.4262e-05
3810.0 8.2191e-05
3830.0 8.4735e-05
3850.0 9.4744e-05
3870.0 0.00010024
3890.0 9.9781e-05
3910.0 0.00010021
3930.0 0.00010284
3950.0 0.00010447
3970.0 9.518e-05
3990.0 8.1898e-05
4010.0 0.00024546
4030.0 0.00029741
4050.0 0.00034096
4070.0 0.00029584
4090.0 0.00026794
4110.0 0.00023643
4130.0 0.00021761
4150.0 0.00023147
4170.0 0.00022801
4190.0 0.00024304
4210.0 0.00024082
4230.0 0.00025472
4250.0 0.00030134
4270.0 0.00030489
4290.0 0.00028095
4310.0 0.00029193
4330.0 0.00031052
4350.0 0.00034817
4370.0 0.00039623
4390.0 0.00037182
4410.0 0.00027471
4430.0 0.00023256
4450.0 0.00021369
4470.0 0.00016402
4490.0 0.000177
4510.0 0.00026735
4530.0 0.00030834
4550.0 0.00031101
4570.0 0.00034997
4590.0 0.00039865
4610.0 0.00053768
4630.0 0.00069834
4650.0 0.00075734
4670.0 0.00070137
4690.0 0.00066923
4710.0 0.00070742
4730.0 0.00066761
4750.0 0.00049912
4770.0 0.00036613
4790.0 0.00034189
4810.0 0.00032588
4830.0 0.00029834
4850.0 0.00032737
4870.0 0.00043249
4890.0 0.00051003
4910.0 0.00044749
4930.0 0.00039596
4950.0 0.00043502
4970.0 0.00055789
4990.0 0.00075607
5010.0 0.00086976
5030.0 0.00076693
5050.0 0.00051888
5070.0 0.00034196
5090.0 0.00027574
5110.0 0.00028357
5130.0 0.00032729
5150.0 0.00035459
5170.0 0.00034927
5190.0 0.00032637
5210.0 0.00034113
5230.0 0.00035861
5250.0 0.00038648
5270.0 0.00041698
5290.0 0.00046211
5310.0 0.00053788
5330.0 0.00059524
5350.0 0.00059144
5370.0 0.00062125
5390.0 0.0007129
5410.0 0.00071226
5430.0 0.0006299
5450.0 0.00057873
5470.0 0.00061451
5490.0 0.00075076
5510.0 0.00093872
5530.0 0.0010767
5550.0 0.0010406
5570.0 0.000946
5590.0 0.00082256
5610.0 0.00075859
5630.0 0.00073559
5650.0 0.00070059
5670.0 0.00066386
5690.0 0.00059349
5710.0 0.00057867
5730.0 0.00053304
5750.0 0.00037583
5770.0 0.00029321
5790.0 0.00033227
5810.0 0.00037519
5830.0 0.00046041
5850.0 0.00054807
5870.0 0.00060809
5890.0 0.0006184
5910.0 0.00060669
5930.0 0.0005775
5950.0 0.00058847
5970.0 0.00067079
5990.0 0.00063072
6010.0 0.00052873
6030.0 0.0004467
6050.0 0.00038902
6070.0 0.00038689
6090.0 0.00041952
6110.0 0.0004691
6130.0 0.00047628
6150.0 0.0004098
6170.0 0.00036049
6190.0 0.00040569
6210.0 0.00053631
6230.0 0.00070379
6250.0 0.0007623
6270.0 0.00066615
6290.0 0.00056047
6310.0 0.00043754
6330.0 0.00033524
6350.0 0.00029903
6370.0 0.00031446
6390.0 0.00036353
6410.0 0.00044825
6430.0 0.00052343
6450.0 0.00059894
6470.0 0.0006858
6490.0 0.0008284
6510.0 0.00092626
6530.0 0.00090872
6550.0 0.00082173
6570.0 0.00069757
6590.0 0.00062902
6610.0 0.00054238
6630.0 0.00049137
6650.0 0.00046449
6670.0 0.00045124
6690.0 0.00040772
6710.0 0.00037063
6730.0 0.00026695
6750.0 0.00026466
6770.0 0.00028766
6790.0 0.00033065
6810.0 0.00030255
6830.0 0.00031154
6850.0 0.00029139
6870.0 0.00026619
6890.0 0.00025558
6910.0 0.00027235
6930.0 0.0002551
6950.0 0.00026245
6970.0 0.00027605
6990.0 0.00031334
7010.0 0.00031601
7030.0 0.00032103
7050.0 0.00030615
7070.0 0.00029171
7090.0 0.00029256
7110.0 0.00030103
7130.0 0.00032395
7150.0 0.00034406
7170.0 0.00037965
7190.0 0.00041734
7210.0 0.00041009
7230.0 0.00042158
7250.0 0.00045306
7270.0 0.00049372
7290.0 0.000586
7310.0 0.00063586
7330.0 0.00061461
7350.0 0.00055588
7370.0 0.00048367
7390.0 0.00046922
7410.0 0.00049863
7430.0 0.00055417
7450.0 0.00060359
7470.0 0.00059805
7490.0 0.0005453
7510.0 0.00061769
7530.0 0.00061093
7550.0 0.00054911
7570.0 0.00042896
7590.0 0.00029489
7610.0 0.00025311
7630.0 0.00028758
7650.0 0.00034002
7670.0 0.00042318
7690.0 0.00046568
7710.0 0.0004853
7730.0 0.00050998
7750.0 0.00057251
7770.0 0.00058152
7790.0 0.00053415
7810.0 0.00048738
7830.0 0.0005026
7850.0 0.00048857
7870.0 0.00044794
7890.0 0.00037635
7910.0 0.00030592
7930.0 0.00029211
7950.0 0.00026612
7970.0 0.00024634
7990.0 0.00024494
8010.0 1.8141e-05
8030.0 1.7905e-05
8050.0 1.7663e-05
8070.0 1.7895e-05
8090.0 1.9227e-05
8110.0 1.89e-05
8130.0 1.559e-05
8150.0 1.5183e-05
8170.0 1.3078e-05
8190.0 1.2394e-05
8210.0 1.6095e-05
8230.0 1.7919e-05
8250.0 1.6151e-05
8270.0 1.4057e-05
8290.0 1.3703e-05
8310.0 1.0546e-05
8330.0 7.1082e-06
8350.0 5.0446e-06
8370.0 3.1783e-06
8390.0 5.8099e-06
8410.0 6.7701e-06
8430.0 8.3451e-06
8450.0 9.7995e-06
8470.0 1.218e-05
8490.0 1.2094e-05
8510.0 1.1897e-05
8530.0 1.2416e-05
8550.0 1.6751e-05
8570.0 1.9831e-05
8590.0 2.1397e-05
8610.0 2.7029e-05
8630.0 3.2561e-05
8650.0 3.4062e-05
8670.0 3.6198e-05
8690.0 3.6401e-05
8710.0 3.2966e-05
8730.0 3.0663e-05
8750.0 2.7066e-05
8770.0 2.5682e-05
8790.0 2.5231e-05
8810.0 2.4177e-05
8830.0 1.9333e-05
8850.0 1.4153e-05
8870.0 1.0837e-05
8890.0 1.0595e-05
8910.0 1.2142e-05
8930.0 1.381e-05
8950.0 1.4075e-05
8970.0 1.4141e-05
8990.0 1.2612e-05
9010.0 0.00013217
9030.0 0.00011976
9050.0 0.00012034
9070.0 0.00012129
9090.0 0.00012212
9110.0 0.00012315
9130.0 0.00012395
9150.0 0.00012456
9170.0 0.00012522
9190.0 0.00012592
9210.0 0.00012666
9230.0 0.00012745
9250.0 0.00012824
9270.0 0.00012906
9290.0 0.00012991
9310.0 0.00013076
9330.0 0.00013163
9350.0 0.00013253
9370.0 0.00013345
9390.0 0.00013437
9410.0 0.00013532
9430.0 0.00013629
9450.0 0.00013727
9470.0 0.00013826
9490.0 0.00013928
9510.0 0.00014032
9530.0 0.00014136
9550.0 0.00014243
9570.0 0.00014353
9590.0 0.00014462
9610.0 0.00014574
9630.0 0.00014689
9650.0 0.00014804
9670.0 0.0001492
9690.0 0.00015039
9710.0 0.0001516
9730.0 0.00015281
9750.0 0.00015404
9770.0 0.0001553
9790.0 0.00015656
9810.0 0.00015783
9830.0 0.00015913
9850.0 0.00016044
9870.0 0.00016175
9890.0 0.00016308
9910.0 0.00016443
9930.0 0.00016578
9950.0 0.00016714
9970.0 0.00016853
9990.0 0.00016993
10010.0 0.00014746
10030.0 0.00014867
10050.0 0.0001499
10070.0 0.00015118
10090.0 0.00015238
10110.0 0.00015362
10130.0 0.00015486
10150.0 0.00015609
10170.0 0.00015734
10190.0 0.00015861
10210.0 0.00015987
10230.0 0.00016112
10250.0 0.00016239
10270.0 0.00016367
10290.0 0.00016492
10310.0 0.00016619
10330.0 0.00016748
10350.0 0.00016874
10370.0 0.00017
10390.0 0.00017127
10410.0 0.00017254
10430.0 0.00017378
10450.0 0.00017504
10470.0 0.0001763
10490.0 0.00017753
10510.0 0.00017876
10530.0 0.00018001
10550.0 0.00018124
10570.0 0.00018244
10590.0 0.00018365
10610.0 0.00018486
10630.0 0.00018603
10650.0 0.0001872
10670.0 0.00018838
10690.0 0.00018954
10710.0 0.00019067
10730.0 0.00019181
10750.0 0.00019294
10770.0 0.00019403
10790.0 0.00019512
10810.0 0.0001962
10830.0 0.00019724
10850.0 0.00019824
10870.0 0.0001992
10890.0 0.00020005
10910.0 0.0002007
10930.0 0.00020107
10950.0 0.00020098
10970.0 0.0002003
10990.0 0.00019896
11010.0 0.00019673
11030.0 0.0001936
11050.0 0.00018979
11070.0 0.00018522
11090.0 0.00017974
11110.0 0.00017408
11130.0 0.00016816
11150.0 0.0001618
11170.0 0.00015523
11190.0 0.00014887
11210.0 0.00014229
11230.0 0.00013555
11250.0 0.00012911
11270.0 0.00012293
11290.0 0.00011673
11310.0 0.00011086
11330.0 0.00010569
11350.0 0.0001008
11370.0 9.6292e-05
11390.0 9.2387e-05
11410.0 8.8971e-05
11430.0 8.5797e-05
11450.0 8.3063e-05
11470.0 8.0697e-05
11490.0 7.8497e-05
11510.0 7.6377e-05
11530.0 7.441e-05
11550.0 7.2455e-05
11570.0 7.037e-05
11590.0 6.8211e-05
11610.0 6.6013e-05
11630.0 6.3621e-05
11650.0 6.106e-05
11670.0 5.8536e-05
11690.0 5.5976e-05
11710.0 5.3335e-05
11730.0 5.0777e-05
11750.0 4.8409e-05
11770.0 4.6087e-05
11790.0 4.391e-05
11810.0 4.1994e-05
11830.0 4.0281e-05
11850.0 3.8703e-05
11870.0 3.7382e-05
11890.0 3.6285e-05
11910.0 3.5321e-05
11930.0 3.4492e-05
11950.0 3.3801e-05
11970.0 3.3185e-05
11990.0 3.2602e-05
12010.0 3.2063e-05
12030.0 3.1543e-05
12050.0 3.1006e-05
12070.0 3.0447e-05
12090.0 2.9908e-05
12110.0 2.9361e-05
12130.0 2.8813e-05
12150.0 2.8308e-05
12170.0 2.7867e-05
12190.0 2.7486e-05
12210.0 2.722e-05
12230.0 2.7091e-05
12250.0 2.7112e-05
12270.0 2.7316e-05
12290.0 2.7703e-05
12310.0 2.8257e-05
12330.0 2.9032e-05
12350.0 3e-05
12370.0 3.1102e-05
12390.0 3.2373e-05
12410.0 3.3862e-05
12430.0 3.5375e-05
12450.0 3.6942e-05
12470.0 3.8609e-05
12490.0 4.0282e-05
12510.0 4.1852e-05
12530.0 4.3414e-05
12550.0 4.4921e-05
12570.0 4.6251e-05
12590.0 4.7419e-05
12610.0 4.8459e-05
12630.0 4.9289e-05
12650.0 4.9861e-05
12670.0 5.0237e-05
12690.0 5.0388e-05
12710.0 5.0305e-05
12730.0 5.0013e-05
12750.0 4.9493e-05
12770.0 4.8779e-05
12790.0 4.7913e-05
12810.0 4.688e-05
12830.0 4.5683e-05
12850.0 4.4433e-05
12870.0 4.311e-05
12890.0 4.1679e-05
12910.0 4.0224e-05
12930.0 3.879e-05
12950.0 3.7294e-05
12970.0 3.5771e-05
12990.0 3.433e-05
13010.0 3.2907e-05
13030.0 3.1468e-05
13050.0 3.0086e-05
13070.0 2.8792e-05
13090.0 2.7492e-05
13110.0 2.6236e-05
13130.0 2.5077e-05
13150.0 2.3979e-05
13170.0 2.2905e-05
13190.0 2.1949e-05
13210.0 2.1107e-05
13230.0 2.0338e-05
13250.0 1.9676e-05
13270.0 1.9153e-05
13290.0 1.8747e-05
13310.0 1.8467e-05
13330.0 1.8339e-05
13350.0 1.8354e-05
13370.0 1.8519e-05
13390.0 1.8842e-05
13410.0 1.9279e-05
13430.0 1.9847e-05
13450.0 2.0549e-05
13470.0 2.1328e-05
13490.0 2.2153e-05
13510.0 2.3084e-05
13530.0 2.4027e-05
13550.0 2.493e-05
13570.0 2.582e-05
13590.0 2.6688e-05
13610.0 2.746e-05
13630.0 2.8134e-05
13650.0 2.8749e-05
13670.0 2.926e-05
13690.0 2.9655e-05
13710.0 2.996e-05
13730.0 3.0178e-05
13750.0 3.0287e-05
13770.0 3.0312e-05
13790.0 3.0257e-05
13810.0 3.0123e-05
13830.0 2.9926e-05
13850.0 2.9659e-05
13870.0 2.9322e-05
13890.0 2.8936e-05
13910.0 2.8501e-05
13930.0 2.7998e-05
13950.0 2.7449e-05
13970.0 2.6887e-05
13990.0 2.6276e-05
14010.0 2.5625e-05
14030.0 2.4977e-05
14050.0 2.4323e-05
14070.0 2.3633e-05
14090.0 2.2971e-05
14110.0 2.235e-05
14130.0 2.1747e-05
14150.0 2.118e-05
14170.0 2.0696e-05
14190.0 2.0278e-05
14210.0 1.9923e-05
14230.0 1.966e-05
14250.0 1.949e-05
14270.0 1.9407e-05
14290.0 1.9425e-05
14310.0 1.9533e-05
14330.0 1.9728e-05
14350.0 2.0014e-05
14370.0 2.037e-05
14390.0 2.0775e-05
14410.0 2.1252e-05
14430.0 2.1775e-05
14450.0 2.231e-05
14470.0 2.2865e-05
14490.0 2.3455e-05
14510.0 2.4019e-05
14530.0 2.4555e-05
14550.0 2.509e-05
14570.0 2.5605e-05
14590.0 2.6073e-05
14610.0 2.6525e-05
14630.0 2.6973e-05
14650.0 2.7391e-05
14670.0 2.7794e-05
14690.0 2.8214e-05
14710.0 2.8656e-05
14730.0 2.9097e-05
14750.0 2.9587e-05
14770.0 3.0142e-05
14790.0 3.0744e-05
14810.0 3.1396e-05
14830.0 3.2168e-05
14850.0 3.3008e-05
14870.0 3.3884e-05
14890.0 3.4829e-05
14910.0 3.5833e-05
14930.0 3.6798e-05
14950.0 3.77e-05
14970.0 3.8554e-05
14990.0 3.927e-05
15010.0 3.9817e-05
15030.0 4.0223e-05
15050.0 4.0491e-05
15070.0 4.0622e-05
15090.0 4.0668e-05
15110.0 4.0655e-05
15130.0 4.0604e-05
15150.0 4.0535e-05
15170.0 4.0454e-05
15190.0 4.0367e-05
15210.0 4.0281e-05
15230.0 4.0195e-05
15250.0 4.0107e-05
15270.0 4.0019e-05
15290.0 3.9936e-05
15310.0 3.985e-05
15330.0 3.9764e-05
15350.0 3.9681e-05
15370.0 3.9599e-05
15390.0 3.9513e-05
15410.0 3.9429e-05
15430.0 3.9348e-05
15450.0 3.9265e-05
15470.0 3.9181e-05
15490.0 3.9101e-05
15510.0 3.9022e-05
15530.0 3.8939e-05
15550.0 3.8859e-05
15570.0 3.8781e-05
15590.0 3.87e-05
15610.0 3.8617e-05
15630.0 3.854e-05
15650.0 3.8462e-05
15670.0 3.8381e-05
15690.0 3.8303e-05
15710.0 3.8227e-05
15730.0 3.8148e-05
15750.0 3.8069e-05
15770.0 3.7993e-05
15790.0 3.7916e-05
15810.0 3.7835e-05
15830.0 3.7759e-05
15850.0 3.7684e-05
15870.0 3.7606e-05
15890.0 3.7529e-05
15910.0 3.7454e-05
15930.0 3.7379e-05
15950.0 3.73e-05
15970.0 3.7224e-05
15990.0 3.715e-05
16010.0 3.7072e-05
16030.0 3.6994e-05
16050.0 3.6921e-05
16070.0 3.6846e-05
16090.0 3.6769e-05
16110.0 3.6694e-05
16130.0 3.6621e-05
16150.0 3.6542e-05
16170.0 3.6465e-05
16190.0 3.6392e-05
16210.0 3.6316e-05
16230.0 3.6239e-05
16250.0 3.6164e-05
16270.0 3.6091e-05
16290.0 3.6014e-05
16310.0 3.5937e-05
16330.0 3.5864e-05
16350.0 3.5788e-05
16370.0 3.5708e-05
16390.0 3.5634e-05
16410.0 3.556e-05
16430.0 3.5482e-05
16450.0 3.5406e-05
16470.0 3.5332e-05
16490.0 3.5255e-05
16510.0 3.5177e-05
16530.0 3.5101e-05
16550.0 3.5026e-05
16570.0 3.4947e-05
16590.0 3.4869e-05
16610.0 3.4795e-05
16630.0 3.4718e-05
16650.0 3.4639e-05
16670.0 3.4563e-05
16690.0 3.4487e-05
16710.0 3.4406e-05
16730.0 3.4328e-05
16750.0 3.4252e-05
16770.0 3.4174e-05
16790.0 3.4093e-05
16810.0 3.4017e-05
16830.0 3.3939e-05
16850.0 3.3859e-05
16870.0 3.378e-05
16890.0 3.3703e-05
16910.0 3.3622e-05
16930.0 3.354e-05
16950.0 3.3462e-05
16970.0 3.3383e-05
16990.0 3.3301e-05
17010.0 3.3221e-05
17030.0 3.3143e-05
17050.0 3.3061e-05
17070.0 3.2979e-05
17090.0 3.2899e-05
17110.0 3.2819e-05
17130.0 3.2734e-05
17150.0 3.2652e-05
17170.0 3.2573e-05
17190.0 3.249e-05
17210.0 3.2406e-05
17230.0 3.2326e-05
17250.0 3.2244e-05
17270.0 3.2158e-05
17290.0 3.2075e-05
17310.0 3.1993e-05
17330.0 3.1908e-05
17350.0 3.1822e-05
17370.0 3.1741e-05
17390.0 3.1657e-05
17410.0 3.1571e-05
17430.0 3.1487e-05
17450.0 3.1405e-05
17470.0 3.1316e-05
17490.0 3.123e-05
17510.0 3.1146e-05
17530.0 3.1061e-05
17550.0 3.0973e-05
17570.0 3.0888e-05
17590.0 3.0804e-05
17610.0 3.0715e-05
17630.0 3.0628e-05
17650.0 3.0543e-05
17670.0 3.0456e-05
17690.0 3.0364e-05
17710.0 3.0279e-05
17730.0 3.0192e-05
17750.0 3.0103e-05
17770.0 3.0014e-05
17790.0 2.9929e-05
17810.0 2.984e-05
17830.0 2.9749e-05
17850.0 2.9661e-05
17870.0 2.9573e-05
17890.0 2.9482e-05
17910.0 2.9391e-05
17930.0 2.9305e-05
17950.0 2.9214e-05
17970.0 2.9123e-05
17990.0 2.9035e-05
18010.0 2.8946e-05
18030.0 2.8852e-05
18050.0 2.8762e-05
18070.0 2.8673e-05
18090.0 2.8581e-05
18110.0 2.8488e-05
18130.0 2.84e-05
18150.0 2.8309e-05
18170.0 2.8216e-05
18190.0 2.8125e-05
18210.0 2.8035e-05
18230.0 2.7942e-05
18250.0 2.7847e-05
18270.0 2.7757e-05
18290.0 2.7666e-05
18310.0 2.7572e-05
18330.0 2.748e-05
18350.0 2.739e-05
18370.0 2.7296e-05
18390.0 2.7202e-05
18410.0 2.7111e-05
18430.0 2.7018e-05
18450.0 2.6922e-05
18470.0 2.6829e-05
18490.0 2.6738e-05
18510.0 2.6644e-05
18530.0 2.655e-05
18550.0 2.6459e-05
18570.0 2.6365e-05
18590.0 2.6269e-05
18610.0 2.6176e-05
18630.0 2.6084e-05
18650.0 2.5988e-05
18670.0 2.5892e-05
18690.0 2.5801e-05
18710.0 2.5707e-05
18730.0 2.5612e-05
18750.0 2.5519e-05
18770.0 2.5427e-05
18790.0 2.5329e-05
18810.0 2.5234e-05
18830.0 2.5142e-05
18850.0 2.5047e-05
18870.0 2.4951e-05
18890.0 2.4858e-05
18910.0 2.4765e-05
18930.0 2.4669e-05
18950.0 2.4574e-05
18970.0 2.4481e-05
18990.0 2.4386e-05
19010.0 2.4288e-05
19030.0 2.4195e-05
19050.0 2.4102e-05
19070.0 2.4006e-05
19090.0 2.3911e-05
19110.0 2.3819e-05
19130.0 2.3723e-05
19150.0 2.3626e-05
19170.0 2.3533e-05
19190.0 2.3439e-05
19210.0 2.3342e-05
19230.0 2.3247e-05
19250.0 2.3155e-05
19270.0 2.3059e-05
19290.0 2.2964e-05
19310.0 2.2871e-05
19330.0 2.2777e-05
19350.0 2.2679e-05
19370.0 2.2585e-05
19390.0 2.2492e-05
19410.0 2.2397e-05
19430.0 2.23e-05
19450.0 2.2208e-05
19470.0 2.2114e-05
19490.0 2.2018e-05
19510.0 2.1924e-05
19530.0 2.1832e-05
19550.0 2.1735e-05
19570.0 2.1639e-05
19590.0 2.1547e-05
19610.0 2.1453e-05
19630.0 2.1357e-05
19650.0 2.1264e-05
19670.0 2.1172e-05
19690.0 2.1076e-05
19710.0 2.0981e-05
19730.0 2.0889e-05
19750.0 2.0795e-05
19770.0 2.0698e-05
19790.0 2.0605e-05
19810.0 2.0513e-05
19830.0 2.0417e-05
19850.0 2.0322e-05
19870.0 2.0227e-05
19890.0 2.0126e-05
19910.0 2.0015e-05
19930.0 1.9897e-05
19950.0 1.9761e-05
19970.0 1.9594e-05
19990.0 1.9392e-05
20010.0 1.7253e-05
20030.0 1.7004e-05
20050.0 1.6711e-05
20070.0 1.6395e-05
20090.0 1.6054e-05
20110.0 1.5669e-05
20130.0 1.5279e-05
20150.0 1.4892e-05
20170.0 1.4491e-05
20190.0 1.4085e-05
20210.0 1.3701e-05
20230.0 1.3326e-05
20250.0 1.2951e-05
20270.0 1.2603e-05
20290.0 1.2285e-05
20310.0 1.1982e-05
20330.0 1.17e-05
20350.0 1.1466e-05
20370.0 1.1257e-05
20390.0 1.1075e-05
20410.0 1.0928e-05
20430.0 1.0814e-05
20450.0 1.0724e-05
20470.0 1.0664e-05
20490.0 1.0631e-05
20510.0 1.0622e-05
20530.0 1.0635e-05
20550.0 1.0668e-05
20570.0 1.0716e-05
20590.0 1.078e-05
20610.0 1.0859e-05
20630.0 1.0945e-05
20650.0 1.1041e-05
20670.0 1.1152e-05
20690.0 1.1264e-05
20710.0 1.1381e-05
20730.0 1.1506e-05
20750.0 1.1637e-05
20770.0 1.1766e-05
20790.0 1.1901e-05
20810.0 1.2044e-05
20830.0 1.2186e-05
20850.0 1.2329e-05
20870.0 1.2482e-05
20890.0 1.2638e-05
20910.0 1.2789e-05
20930.0 1.2945e-05
20950.0 1.3107e-05
20970.0 1.3265e-05
20990.0 1.3421e-05
21010.0 1.3584e-05
21030.0 1.3744e-05
21050.0 1.3897e-05
21070.0 1.405e-05
21090.0 1.4203e-05
21110.0 1.4342e-05
21130.0 1.4473e-05
21150.0 1.46e-05
21170.0 1.4715e-05
21190.0 1.4814e-05
21210.0 1.4903e-05
21230.0 1.4977e-05
21250.0 1.503e-05
21270.0 1.5063e-05
21290.0 1.5076e-05
21310.0 1.5064e-05
21330.0 1.5028e-05
21350.0 1.4966e-05
21370.0 1.4874e-05
21390.0 1.4758e-05
21410.0 1.4615e-05
21430.0 1.4435e-05
21450.0 1.4232e-05
21470.0 1.4011e-05
21490.0 1.3761e-05
21510.0 1.3487e-05
21530.0 1.3209e-05
21550.0 1.2917e-05
21570.0 1.2606e-05
21590.0 1.2301e-05
21610.0 1.2005e-05
21630.0 1.1709e-05
21650.0 1.142e-05
21670.0 1.117e-05
21690.0 1.0939e-05
21710.0 1.073e-05
21730.0 1.056e-05
21750.0 1.0429e-05
21770.0 1.0328e-05
21790.0 1.0271e-05
21810.0 1.0255e-05
21830.0 1.0278e-05
21850.0 1.0342e-05
21870.0 1.0442e-05
21890.0 1.0571e-05
21910.0 1.0737e-05
21930.0 1.0932e-05
21950.0 1.1143e-05
21970.0 1.1377e-05
21990.0 1.1639e-05
22010.0 1.1901e-05
22030.0 1.2167e-05
22050.0 1.2447e-05
22070.0 1.2728e-05
22090.0 1.2994e-05
22110.0 1.3262e-05
22130.0 1.353e-05
22150.0 1.378e-05
22170.0 1.4016e-05
22190.0 1.425e-05
22210.0 1.4468e-05
22230.0 1.4659e-05
22250.0 1.4839e-05
22270.0 1.5005e-05
22290.0 1.5147e-05
22310.0 1.5269e-05
22330.0 1.5376e-05
22350.0 1.5459e-05
22370.0 1.5517e-05
22390.0 1.5554e-05
22410.0 1.5566e-05
22430.0 1.5551e-05
22450.0 1.5511e-05
22470.0 1.5441e-05
22490.0 1.5344e-05
22510.0 1.5223e-05
22530.0 1.5068e-05
22550.0 1.4879e-05
22570.0 1.467e-05
22590.0 1.4434e-05
22610.0 1.4163e-05
22630.0 1.3869e-05
