#lamb flux
1010.0 2.0556e-05
1030.0 2.3878e-05
1050.0 2.6232e-05
1070.0 2.6985e-05
1090.0 2.5558e-05
1110.0 2.0746e-05
1130.0 1.2577e-05
1150.0 5.2398e-06
1170.0 1e-99
1190.0 1e-99
1210.0 1e-99
1230.0 1e-99
1250.0 1e-99
1270.0 1e-99
1290.0 1e-99
1310.0 1e-99
1330.0 1e-99
1350.0 1e-99
1370.0 1e-99
1390.0 1e-99
1410.0 1e-99
1430.0 1e-99
1450.0 1e-99
1470.0 1e-99
1490.0 1e-99
1510.0 1e-99
1530.0 1e-99
1550.0 2.2175e-05
1570.0 7.7775e-05
1590.0 0.00013478
1610.0 0.00019186
1630.0 0.00024852
1650.0 0.00030424
1670.0 0.00035796
1690.0 0.00040938
1710.0 0.00045885
1730.0 0.00050594
1750.0 0.00054958
1770.0 0.000591
1790.0 0.00063022
1810.0 0.0006665
1830.0 0.00070015
1850.0 0.0007326
1870.0 0.00076256
1890.0 0.00078997
1910.0 0.00081583
1930.0 0.00084038
1950.0 0.0008624
1970.0 0.00088262
1990.0 0.00090203
2010.0 0.00091974
2030.0 0.00093547
2050.0 0.00095047
2070.0 0.00096463
2090.0 0.00097658
2110.0 0.00098739
2130.0 0.00099767
2150.0 0.0010067
2170.0 0.001014
2190.0 0.0010212
2210.0 0.0010278
2230.0 0.001033
2250.0 0.0010377
2270.0 0.0010426
2290.0 0.0010466
2310.0 0.0010497
2330.0 0.0010531
2350.0 0.0010564
2370.0 0.0010591
2390.0 0.001062
2410.0 0.0010657
2430.0 0.0010695
2450.0 0.0010739
2470.0 0.0010807
2490.0 0.0010914
2510.0 0.0011065
2530.0 0.0011299
2550.0 0.0011668
2570.0 0.0012194
2590.0 0.0012909
2610.0 0.0013942
2630.0 0.00153
2650.0 0.0016926
2670.0 0.001889
2690.0 0.0021201
2710.0 0.0023652
2730.0 0.0026151
2750.0 0.0028775
2770.0 0.0031308
2790.0 0.0033613
2810.0 0.0035745
2830.0 0.003771
2850.0 0.0039352
2870.0 0.0040798
2890.0 0.004213
2910.0 0.0043364
2930.0 0.0044533
2950.0 0.0045712
2970.0 0.0046915
2990.0 0.0048126
3010.0 0.0049356
3030.0 0.0050623
3050.0 0.00519
3070.0 0.0053148
3090.0 0.0054405
3110.0 0.005568
3130.0 0.0057002
3150.0 0.0059049
3170.0 0.0061518
3190.0 0.0064826
3210.0 0.0069131
3230.0 0.0074602
3250.0 0.0080323
3270.0 0.0083507
3290.0 0.0092272
3310.0 0.011768
3330.0 0.012314
3350.0 0.012372
3370.0 0.012397
3390.0 0.012427
3410.0 0.012481
3430.0 0.012555
3450.0 0.012632
3470.0 0.012694
3490.0 0.012783
3510.0 0.013003
3530.0 0.013
3550.0 0.012527
3570.0 0.011959
3590.0 0.011878
3610.0 0.012528
3630.0 0.011915
3650.0 0.01105
3670.0 0.010384
3690.0 0.010354
3710.0 0.010862
3730.0 0.011197
3750.0 0.011339
3770.0 0.011744
3790.0 0.012233
3810.0 0.011812
3830.0 0.011148
3850.0 0.010798
3870.0 0.010739
3890.0 0.010481
3910.0 0.010187
3930.0 0.010237
3950.0 0.010648
3970.0 0.011136
3990.0 0.01161
4010.0 0.011283
4030.0 0.010964
4050.0 0.010925
4070.0 0.010939
4090.0 0.010919
4110.0 0.010733
4130.0 0.010372
4150.0 0.010054
4170.0 0.0099925
4190.0 0.0095207
4210.0 0.0089613
4230.0 0.0083054
4250.0 0.0076975
4270.0 0.0073349
4290.0 0.0069449
4310.0 0.0068614
4330.0 0.0070835
4350.0 0.0071202
4370.0 0.0074213
4390.0 0.0077933
4410.0 0.0081439
4430.0 0.0079425
4450.0 0.0074722
4470.0 0.0071139
4490.0 0.0069081
4510.0 0.006859
4530.0 0.0069104
4550.0 0.0069754
4570.0 0.0070776
4590.0 0.0072797
4610.0 0.0077329
4630.0 0.0080355
4650.0 0.008271
4670.0 0.0081262
4690.0 0.0077495
4710.0 0.0073207
4730.0 0.0070914
4750.0 0.0069344
4770.0 0.0071191
4790.0 0.0070551
4810.0 0.0068801
4830.0 0.0071276
4850.0 0.0071266
4870.0 0.007415
4890.0 0.0070313
4910.0 0.0066084
4930.0 0.0061097
4950.0 0.0056919
4970.0 0.0052102
4990.0 0.0048119
5010.0 0.0047916
5030.0 0.0049205
5050.0 0.0047963
5070.0 0.0049015
5090.0 0.0051029
5110.0 0.0050645
5130.0 0.0050317
5150.0 0.0049906
5170.0 0.00505
5190.0 0.0051392
5210.0 0.004983
5230.0 0.0049009
5250.0 0.0047679
5270.0 0.0045906
5290.0 0.0045413
5310.0 0.004538
5330.0 0.0043695
5350.0 0.0043456
5370.0 0.0042269
5390.0 0.0040737
5410.0 0.0040067
5430.0 0.0038823
5450.0 0.0040101
5470.0 0.0040607
5490.0 0.0039227
5510.0 0.0040302
5530.0 0.0040604
5550.0 0.0041419
5570.0 0.0040847
5590.0 0.0039145
5610.0 0.0038842
5630.0 0.0039582
5650.0 0.0039129
5670.0 0.003841
5690.0 0.0037137
5710.0 0.0037894
5730.0 0.0038316
5750.0 0.0036896
5770.0 0.0035475
5790.0 0.0032028
5810.0 0.0027475
5830.0 0.0030707
5850.0 0.0035886
5870.0 0.0037812
5890.0 0.0038663
5910.0 0.0038955
5930.0 0.0039767
5950.0 0.0039474
5970.0 0.0039624
5990.0 0.0039391
6010.0 0.0039028
6030.0 0.0038175
6050.0 0.003837
6070.0 0.00395
6090.0 0.0039264
6110.0 0.0038431
6130.0 0.0038075
6150.0 0.0037111
6170.0 0.0036004
6190.0 0.0035911
6210.0 0.0035103
6230.0 0.0034909
6250.0 0.0034784
6270.0 0.0034634
6290.0 0.0034561
6310.0 0.0034416
6330.0 0.0034066
6350.0 0.0033503
6370.0 0.0033137
6390.0 0.003344
6410.0 0.0032682
6430.0 0.0032394
6450.0 0.0031865
6470.0 0.0031321
6490.0 0.0031015
6510.0 0.0031201
6530.0 0.0030489
6550.0 0.0030012
6570.0 0.0029986
6590.0 0.0029795
6610.0 0.0029692
6630.0 0.002868
6650.0 0.0028143
6670.0 0.0028037
6690.0 0.0027691
6710.0 0.0027116
6730.0 0.0026937
6750.0 0.0027087
6770.0 0.0029019
6790.0 0.0033896
6810.0 0.0031488
6830.0 0.0026588
6850.0 0.0025623
6870.0 0.0025044
6890.0 0.0024897
6910.0 0.0024759
6930.0 0.0024709
6950.0 0.0024179
6970.0 0.0023332
6990.0 0.0022862
7010.0 0.002298
7030.0 0.0022619
7050.0 0.0021983
7070.0 0.0021981
7090.0 0.0022298
7110.0 0.0022667
7130.0 0.0022218
7150.0 0.0021874
7170.0 0.0021674
7190.0 0.0021949
7210.0 0.0021367
7230.0 0.0020847
7250.0 0.0020826
7270.0 0.0020625
7290.0 0.0020414
7310.0 0.0020797
7330.0 0.0020364
7350.0 0.0019668
7370.0 0.0018744
7390.0 0.0017968
7410.0 0.0018329
7430.0 0.0018146
7450.0 0.0017987
7470.0 0.0017569
7490.0 0.0017074
7510.0 0.001689
7530.0 0.0016579
7550.0 0.0017878
7570.0 0.0017741
7590.0 0.0015953
7610.0 0.0015036
7630.0 0.0016017
7650.0 0.0015789
7670.0 0.0016367
7690.0 0.0017455
7710.0 0.0017479
7730.0 0.0016819
7750.0 0.0018058
7770.0 0.0016605
7790.0 0.0015675
7810.0 0.0016883
7830.0 0.0016946
7850.0 0.0017782
7870.0 0.0017419
7890.0 0.0017677
7910.0 0.0017325
7930.0 0.0017668
7950.0 0.0018734
7970.0 0.0018195
7990.0 0.0016345
8010.0 0.0017421
8030.0 0.0017164
8050.0 0.001686
8070.0 0.0016402
8090.0 0.001479
8110.0 0.0014762
8130.0 0.0016178
8150.0 0.0016932
8170.0 0.0017227
8190.0 0.0017807
8210.0 0.0017351
8230.0 0.0017241
8250.0 0.0017214
8270.0 0.0016947
8290.0 0.0016616
8310.0 0.0015825
8330.0 0.0015727
8350.0 0.0016072
8370.0 0.0016193
8390.0 0.001598
8410.0 0.0015771
8430.0 0.0015387
8450.0 0.001527
8470.0 0.0016059
8490.0 0.0016197
8510.0 0.0015412
8530.0 0.0014975
8550.0 0.0014844
8570.0 0.0014232
8590.0 0.001413
8610.0 0.0014362
8630.0 0.0014541
8650.0 0.001449
8670.0 0.0014424
8690.0 0.0014205
8710.0 0.001364
8730.0 0.0013468
8750.0 0.0013207
8770.0 0.0013235
8790.0 0.0013295
8810.0 0.001283
8830.0 0.0012815
8850.0 0.0013099
8870.0 0.0012457
8890.0 0.0011823
8910.0 0.0011515
8930.0 0.0011168
8950.0 0.0010708
8970.0 0.0010267
8990.0 0.0010074
9010.0 0.00096268
9030.0 0.00095032
9050.0 0.0009449
9070.0 0.0009398
9090.0 0.00093466
9110.0 0.00092938
9130.0 0.00092411
9150.0 0.00091891
9170.0 0.00091365
9190.0 0.00090836
9210.0 0.00090301
9230.0 0.00089762
9250.0 0.00089222
9270.0 0.00088679
9290.0 0.00088133
9310.0 0.00087607
9330.0 0.00087108
9350.0 0.00086608
9370.0 0.00086106
9390.0 0.00085603
9410.0 0.00085099
9430.0 0.00084594
9450.0 0.00084088
9470.0 0.00083631
9490.0 0.00083148
9510.0 0.00082615
9530.0 0.00082089
9550.0 0.00081574
9570.0 0.00081064
9590.0 0.00080556
9610.0 0.00080076
9630.0 0.00079603
9650.0 0.0007913
9670.0 0.00078655
9690.0 0.00078185
9710.0 0.00077718
9730.0 0.00077248
9750.0 0.00076781
9770.0 0.00076322
9790.0 0.0007586
9810.0 0.00075398
9830.0 0.00074942
9850.0 0.00074447
9870.0 0.00073934
9890.0 0.00073529
9910.0 0.00073111
9930.0 0.00072618
9950.0 0.00072179
9970.0 0.00071774
9990.0 0.00071359
10010.0 0.00070945
10030.0 0.00070526
10050.0 0.00070104
10070.0 0.00069686
10090.0 0.00069274
10110.0 0.00068859
10130.0 0.00068449
10150.0 0.00068046
10170.0 0.00067646
10190.0 0.00067246
10210.0 0.00066854
10230.0 0.00066468
10250.0 0.00066082
10270.0 0.00065701
10290.0 0.00065327
10310.0 0.00064954
10330.0 0.00064583
10350.0 0.0006422
10370.0 0.00063862
10390.0 0.00063502
10410.0 0.00063109
10430.0 0.0006271
10450.0 0.00062412
10470.0 0.00062092
10490.0 0.00061774
10510.0 0.00061456
10530.0 0.00061128
10550.0 0.00060806
10570.0 0.00060495
10590.0 0.00060181
10610.0 0.00059868
10630.0 0.00059567
10650.0 0.00059269
10670.0 0.00058966
10690.0 0.00058672
10710.0 0.00058387
10730.0 0.00058101
10750.0 0.00057812
10770.0 0.0005754
10790.0 0.00057269
10810.0 0.00056996
10830.0 0.0005673
10850.0 0.00056474
10870.0 0.0005621
10890.0 0.0005595
10910.0 0.00055698
10930.0 0.00055446
10950.0 0.00055185
10970.0 0.00054926
10990.0 0.00054669
11010.0 0.00053024
11030.0 0.00052758
11050.0 0.00052514
11070.0 0.00052273
11090.0 0.00052017
11110.0 0.00051778
11130.0 0.00051543
11150.0 0.00051292
11170.0 0.00051034
11190.0 0.00050789
11210.0 0.00050531
11230.0 0.00050261
11250.0 0.00050003
11270.0 0.00049754
11290.0 0.00049496
11310.0 0.00049248
11330.0 0.00049031
11350.0 0.00048818
11370.0 0.00048614
11390.0 0.00048434
11410.0 0.00048273
11430.0 0.00048109
11450.0 0.00047962
11470.0 0.00047831
11490.0 0.00047701
11510.0 0.00047566
11530.0 0.00047442
11550.0 0.00047318
11570.0 0.00047181
11590.0 0.00047039
11610.0 0.00046898
11630.0 0.0004674
11650.0 0.00046566
11670.0 0.00046395
11690.0 0.00046217
11710.0 0.00046021
11730.0 0.00045821
11750.0 0.00045628
11770.0 0.0004542
11790.0 0.00045206
11810.0 0.00045001
11830.0 0.00044798
11850.0 0.00044581
11870.0 0.00044378
11890.0 0.00044192
11910.0 0.00044005
11930.0 0.00043823
11950.0 0.00043663
11970.0 0.00043512
11990.0 0.00043363
12010.0 0.00043234
12030.0 0.00043122
12050.0 0.00043017
12070.0 0.00042921
12090.0 0.00042848
12110.0 0.00042784
12130.0 0.00042725
12150.0 0.00042677
12170.0 0.0004264
12190.0 0.00042599
12210.0 0.0004256
12230.0 0.00042525
12250.0 0.00042483
12270.0 0.00042429
12290.0 0.00042367
12310.0 0.00042297
12330.0 0.00042202
12350.0 0.00042089
12370.0 0.00041963
12390.0 0.00041813
12410.0 0.00041628
12430.0 0.00041434
12450.0 0.00041224
12470.0 0.00040984
12490.0 0.00040725
12510.0 0.00040466
12530.0 0.00040183
12550.0 0.00039878
12570.0 0.00039576
12590.0 0.00039271
12610.0 0.00038946
12630.0 0.00038619
12650.0 0.00038312
12670.0 0.00037997
12690.0 0.00037679
12710.0 0.0003738
12730.0 0.00037094
12750.0 0.000368
12770.0 0.00036526
12790.0 0.00036276
12810.0 0.00036033
12830.0 0.00035801
12850.0 0.00035597
12870.0 0.00035412
12890.0 0.00035236
12910.0 0.00035082
12930.0 0.00034952
12950.0 0.00034835
12970.0 0.00034736
12990.0 0.00034662
13010.0 0.00034606
13030.0 0.00034565
13050.0 0.00034542
13070.0 0.00034535
13090.0 0.00034537
13110.0 0.00034549
13130.0 0.00034565
13150.0 0.00034582
13170.0 0.00034594
13190.0 0.00034598
13210.0 0.0003459
13230.0 0.00034565
13250.0 0.0003452
13270.0 0.00034455
13290.0 0.00034366
13310.0 0.00034248
13330.0 0.00034108
13350.0 0.00033947
13370.0 0.00033758
13390.0 0.00033541
13410.0 0.00033318
13430.0 0.00033072
13450.0 0.00032802
13470.0 0.00032522
13490.0 0.00032238
13510.0 0.00031923
13530.0 0.000316
13550.0 0.0003128
13570.0 0.00030948
13590.0 0.00030599
13610.0 0.00030255
13630.0 0.00029916
13650.0 0.00029559
13670.0 0.00029201
13690.0 0.00028855
13710.0 0.00028505
13730.0 0.0002814
13750.0 0.00027799
13770.0 0.00027466
13790.0 0.00027129
13810.0 0.00026803
13830.0 0.00026498
13850.0 0.00026194
13870.0 0.00025895
13890.0 0.00025617
13910.0 0.00025352
13930.0 0.00025087
13950.0 0.00024835
13970.0 0.00024604
13990.0 0.00024376
14010.0 0.00024153
14030.0 0.00023946
14050.0 0.00023748
14070.0 0.00023548
14090.0 0.00023361
14110.0 0.00023186
14130.0 0.00023014
14150.0 0.00022847
14170.0 0.00022693
14190.0 0.00022544
14210.0 0.00022397
14230.0 0.00022256
14250.0 0.00022123
14270.0 0.0002199
14290.0 0.00021857
14310.0 0.00021732
14330.0 0.00021609
14350.0 0.00021484
14370.0 0.00021362
14390.0 0.00021244
14410.0 0.00021124
14430.0 0.00021003
14450.0 0.00020886
14470.0 0.0002077
14490.0 0.00020649
14510.0 0.00020531
14530.0 0.00020416
14550.0 0.00020298
14570.0 0.00020178
14590.0 0.00020062
14610.0 0.00019943
14630.0 0.00019821
14650.0 0.000197
14670.0 0.0001958
14690.0 0.00019456
14710.0 0.00019329
14730.0 0.00019207
14750.0 0.00019082
14770.0 0.00018954
14790.0 0.00018826
14810.0 0.000187
14830.0 0.00018566
14850.0 0.00018432
14870.0 0.00018301
14890.0 0.00018169
14910.0 0.00018034
14930.0 0.00017905
14950.0 0.00017782
14970.0 0.00017662
14990.0 0.00017549
15010.0 0.00017448
15030.0 0.00017354
15050.0 0.00017265
15070.0 0.00017186
15090.0 0.00017112
15110.0 0.0001704
15130.0 0.0001697
15150.0 0.00016903
15170.0 0.00016835
15190.0 0.00016768
15210.0 0.00016702
15230.0 0.00016636
15250.0 0.0001657
15270.0 0.00016504
15290.0 0.0001644
15310.0 0.00016375
15330.0 0.0001631
15350.0 0.00016247
15370.0 0.00016184
15390.0 0.0001612
15410.0 0.00016057
15430.0 0.00015995
15450.0 0.00015933
15470.0 0.0001587
15490.0 0.00015809
15510.0 0.00015749
15530.0 0.00015688
15550.0 0.00015628
15570.0 0.00015569
15590.0 0.0001551
15610.0 0.00015449
15630.0 0.00015392
15650.0 0.00015334
15670.0 0.00015276
15690.0 0.00015219
15710.0 0.00015163
15730.0 0.00015107
15750.0 0.0001505
15770.0 0.00014995
15790.0 0.00014941
15810.0 0.00014885
15830.0 0.00014831
15850.0 0.00014778
15870.0 0.00014724
15890.0 0.00014671
15910.0 0.0001462
15930.0 0.00014568
15950.0 0.00014515
15970.0 0.00014464
15990.0 0.00014414
16010.0 0.00014364
16030.0 0.00014313
16050.0 0.00014265
16070.0 0.00014216
16090.0 0.00014166
16110.0 0.00014119
16130.0 0.00014072
16150.0 0.00014023
16170.0 0.00013976
16190.0 0.0001393
16210.0 0.00013884
16230.0 0.00013837
16250.0 0.00013792
16270.0 0.00013748
16290.0 0.00013703
16310.0 0.00013658
16330.0 0.00013615
16350.0 0.00013571
16370.0 0.00013527
16390.0 0.00013484
16410.0 0.00013443
16430.0 0.000134
16450.0 0.00013358
16470.0 0.00013318
16490.0 0.00013276
16510.0 0.00013234
16530.0 0.00013194
16550.0 0.00013155
16570.0 0.00013114
16590.0 0.00013074
16610.0 0.00013036
16630.0 0.00012997
16650.0 0.00012957
16670.0 0.0001292
16690.0 0.00012882
16710.0 0.00012843
16730.0 0.00012806
16750.0 0.00012769
16770.0 0.00012732
16790.0 0.00012694
16810.0 0.00012658
16830.0 0.00012623
16850.0 0.00012586
16870.0 0.0001255
16890.0 0.00012515
16910.0 0.00012479
16930.0 0.00012443
16950.0 0.00012409
16970.0 0.00012375
16990.0 0.00012339
17010.0 0.00012305
17030.0 0.00012272
17050.0 0.00012237
17070.0 0.00012203
17090.0 0.0001217
17110.0 0.00012137
17130.0 0.00012102
17150.0 0.00012069
17170.0 0.00012037
17190.0 0.00012004
17210.0 0.00011971
17230.0 0.00011939
17250.0 0.00011907
17270.0 0.00011873
17290.0 0.00011841
17310.0 0.0001181
17330.0 0.00011777
17350.0 0.00011745
17370.0 0.00011714
17390.0 0.00011683
17410.0 0.0001165
17430.0 0.00011619
17450.0 0.00011589
17470.0 0.00011556
17490.0 0.00011525
17510.0 0.00011494
17530.0 0.00011463
17550.0 0.00011431
17570.0 0.00011401
17590.0 0.00011371
17610.0 0.0001134
17630.0 0.00011309
17650.0 0.00011279
17670.0 0.00011248
17690.0 0.00011216
17710.0 0.00011186
17730.0 0.00011156
17750.0 0.00011125
17770.0 0.00011094
17790.0 0.00011065
17810.0 0.00011034
17830.0 0.00011003
17850.0 0.00010973
17870.0 0.00010943
17890.0 0.00010911
17910.0 0.0001088
17930.0 0.00010851
17950.0 0.00010821
17970.0 0.00010789
17990.0 0.0001076
18010.0 0.0001073
18030.0 0.00010698
18050.0 0.00010667
18070.0 0.00010638
18090.0 0.00010607
18110.0 0.00010575
18130.0 0.00010546
18150.0 0.00010516
18170.0 0.00010484
18190.0 0.00010454
18210.0 0.00010424
18230.0 0.00010392
18250.0 0.0001036
18270.0 0.0001033
18290.0 0.000103
18310.0 0.00010268
18330.0 0.00010237
18350.0 0.00010207
18370.0 0.00010175
18390.0 0.00010144
18410.0 0.00010113
18430.0 0.00010082
18450.0 0.00010049
18470.0 0.00010018
18490.0 9.9877e-05
18510.0 9.9557e-05
18530.0 9.9237e-05
18550.0 9.8932e-05
18570.0 9.8614e-05
18590.0 9.8283e-05
18610.0 9.7967e-05
18630.0 9.7655e-05
18650.0 9.7327e-05
18670.0 9.6998e-05
18690.0 9.6689e-05
18710.0 9.6367e-05
18730.0 9.6035e-05
18750.0 9.5716e-05
18770.0 9.5401e-05
18790.0 9.5059e-05
18810.0 9.4728e-05
18830.0 9.441e-05
18850.0 9.408e-05
18870.0 9.3741e-05
18890.0 9.3418e-05
18910.0 9.3095e-05
18930.0 9.2754e-05
18950.0 9.2419e-05
18970.0 9.2094e-05
18990.0 9.1757e-05
19010.0 9.1403e-05
19030.0 9.1076e-05
19050.0 9.0745e-05
19070.0 9.0399e-05
19090.0 9.0059e-05
19110.0 8.9732e-05
19130.0 8.9384e-05
19150.0 8.9032e-05
19170.0 8.8695e-05
19190.0 8.8355e-05
19210.0 8.7998e-05
19230.0 8.7649e-05
19250.0 8.7315e-05
19270.0 8.6963e-05
19290.0 8.6608e-05
19310.0 8.6267e-05
19330.0 8.5922e-05
19350.0 8.5553e-05
19370.0 8.5201e-05
19390.0 8.4855e-05
19410.0 8.4496e-05
19430.0 8.4131e-05
19450.0 8.3786e-05
19470.0 8.3432e-05
19490.0 8.3064e-05
19510.0 8.2706e-05
19530.0 8.2356e-05
19550.0 8.1984e-05
19570.0 8.1611e-05
19590.0 8.1258e-05
19610.0 8.0896e-05
19630.0 8.0522e-05
19650.0 8.016e-05
19670.0 7.9804e-05
19690.0 7.9427e-05
19710.0 7.9053e-05
19730.0 7.8691e-05
19750.0 7.8322e-05
19770.0 7.7934e-05
19790.0 7.7566e-05
19810.0 7.7203e-05
19830.0 7.6824e-05
19850.0 7.6447e-05
19870.0 7.6088e-05
19890.0 7.5717e-05
19910.0 7.5344e-05
19930.0 7.5001e-05
19950.0 7.4681e-05
19970.0 7.4377e-05
19990.0 7.4113e-05
20010.0 7.3905e-05
20030.0 7.373e-05
20050.0 7.3593e-05
20070.0 7.3497e-05
20090.0 7.3429e-05
20110.0 7.3372e-05
20130.0 7.3329e-05
20150.0 7.3293e-05
20170.0 7.3255e-05
20190.0 7.3213e-05
20210.0 7.3169e-05
20230.0 7.312e-05
20250.0 7.3061e-05
20270.0 7.2997e-05
20290.0 7.293e-05
20310.0 7.2852e-05
20330.0 7.2764e-05
20350.0 7.2678e-05
20370.0 7.2584e-05
20390.0 7.248e-05
20410.0 7.2374e-05
20430.0 7.2269e-05
20450.0 7.2152e-05
20470.0 7.2033e-05
20490.0 7.1919e-05
20510.0 7.1803e-05
20530.0 7.1682e-05
20550.0 7.1567e-05
20570.0 7.146e-05
20590.0 7.135e-05
20610.0 7.1243e-05
20630.0 7.1145e-05
20650.0 7.1048e-05
20670.0 7.0945e-05
20690.0 7.085e-05
20710.0 7.0756e-05
20730.0 7.0655e-05
20750.0 7.0549e-05
20770.0 7.0444e-05
20790.0 7.0328e-05
20810.0 7.0198e-05
20830.0 7.0062e-05
20850.0 6.9918e-05
20870.0 6.9753e-05
20890.0 6.9574e-05
20910.0 6.9395e-05
20930.0 6.9201e-05
20950.0 6.899e-05
20970.0 6.8779e-05
20990.0 6.8566e-05
21010.0 6.8335e-05
21030.0 6.8104e-05
21050.0 6.7881e-05
21070.0 6.7654e-05
21090.0 6.7418e-05
21110.0 6.72e-05
21130.0 6.6988e-05
21150.0 6.6769e-05
21170.0 6.6557e-05
21190.0 6.6358e-05
21210.0 6.6152e-05
21230.0 6.5942e-05
21250.0 6.5743e-05
21270.0 6.5545e-05
21290.0 6.5335e-05
21310.0 6.5125e-05
21330.0 6.4923e-05
21350.0 6.4707e-05
21370.0 6.4482e-05
21390.0 6.426e-05
21410.0 6.4034e-05
21430.0 6.3784e-05
21450.0 6.3538e-05
21470.0 6.3296e-05
21490.0 6.3039e-05
21510.0 6.2772e-05
21530.0 6.2515e-05
21550.0 6.2252e-05
21570.0 6.1973e-05
21590.0 6.17e-05
21610.0 6.1435e-05
21630.0 6.1159e-05
21650.0 6.0873e-05
21670.0 6.0613e-05
21690.0 6.0349e-05
21710.0 6.0077e-05
21730.0 5.9815e-05
21750.0 5.9567e-05
21770.0 5.9301e-05
21790.0 5.904e-05
21810.0 5.8794e-05
21830.0 5.8546e-05
21850.0 5.8289e-05
21870.0 5.8042e-05
21890.0 5.7809e-05
21910.0 5.7563e-05
21930.0 5.732e-05
21950.0 5.7093e-05
21970.0 5.6865e-05
21990.0 5.6627e-05
22010.0 5.6412e-05
22030.0 5.6209e-05
22050.0 5.6006e-05
22070.0 5.5811e-05
22090.0 5.5641e-05
22110.0 5.5475e-05
22130.0 5.5316e-05
22150.0 5.5178e-05
22170.0 5.5057e-05
22190.0 5.4938e-05
22210.0 5.4834e-05
22230.0 5.4753e-05
22250.0 5.4677e-05
22270.0 5.4607e-05
22290.0 5.4553e-05
22310.0 5.4507e-05
22330.0 5.4459e-05
22350.0 5.4419e-05
22370.0 5.4387e-05
22390.0 5.4354e-05
22410.0 5.4316e-05
22430.0 5.4287e-05
22450.0 5.426e-05
22470.0 5.4225e-05
22490.0 5.4192e-05
22510.0 5.4164e-05
22530.0 5.4129e-05
22550.0 5.4089e-05
22570.0 5.406e-05
22590.0 5.4032e-05
22610.0 5.3999e-05
22630.0 5.3974e-05
22650.0 5.3961e-05
22670.0 5.3946e-05
22690.0 5.3937e-05
22710.0 5.3943e-05
22730.0 5.3957e-05
22750.0 5.3973e-05
22770.0 5.4006e-05
22790.0 5.4055e-05
22810.0 5.4112e-05
22830.0 5.418e-05
22850.0 5.4267e-05
22870.0 5.4364e-05
22890.0 5.4469e-05
22910.0 5.459e-05
22930.0 5.4724e-05
22950.0 5.4867e-05
22970.0 5.5018e-05
22990.0 5.5185e-05
23010.0 5.536e-05
23030.0 5.5544e-05
23050.0 5.574e-05
23070.0 5.5948e-05
23090.0 5.6165e-05
23110.0 5.6403e-05
23130.0 5.6657e-05
