#lamb flux
1010.0 7.5707e-10
1030.0 9.6107e-10
1050.0 1.2023e-09
1070.0 1.4823e-09
1090.0 1.8106e-09
1110.0 2.1624e-09
1130.0 2.5333e-09
1150.0 2.9375e-09
1170.0 3.3714e-09
1190.0 3.8039e-09
1210.0 4.2557e-09
1230.0 4.7317e-09
1250.0 5.2075e-09
1270.0 5.6738e-09
1290.0 6.157e-09
1310.0 6.6289e-09
1330.0 7.0659e-09
1350.0 7.4827e-09
1370.0 7.8824e-09
1390.0 8.2372e-09
1410.0 8.5431e-09
1430.0 8.8285e-09
1450.0 9.0761e-09
1470.0 9.2756e-09
1490.0 9.4479e-09
1510.0 9.6133e-09
1530.0 9.7365e-09
1550.0 9.8393e-09
1570.0 9.9436e-09
1590.0 1.0042e-08
1610.0 1.0125e-08
1630.0 1.022e-08
1650.0 1.0329e-08
1670.0 1.0435e-08
1690.0 1.0548e-08
1710.0 1.0683e-08
1730.0 1.0831e-08
1750.0 1.0973e-08
1770.0 1.1136e-08
1790.0 1.1317e-08
1810.0 1.15e-08
1830.0 1.169e-08
1850.0 1.195e-08
1870.0 1.2247e-08
1890.0 1.2532e-08
1910.0 1.2821e-08
1930.0 1.3114e-08
1950.0 1.3389e-08
1970.0 1.3658e-08
1990.0 1.3939e-08
2010.0 1.4217e-08
2030.0 1.4487e-08
2050.0 1.4767e-08
2070.0 1.5048e-08
2090.0 1.5312e-08
2110.0 1.5574e-08
2130.0 1.5844e-08
2150.0 1.6109e-08
2170.0 1.6363e-08
2190.0 1.6627e-08
2210.0 1.6924e-08
2230.0 1.725e-08
2250.0 1.7581e-08
2270.0 1.7928e-08
2290.0 1.827e-08
2310.0 1.8605e-08
2330.0 1.8952e-08
2350.0 1.9304e-08
2370.0 1.9646e-08
2390.0 1.9992e-08
2410.0 2.0352e-08
2430.0 2.0707e-08
2450.0 2.1064e-08
2470.0 2.1452e-08
2490.0 2.189e-08
2510.0 2.2382e-08
2530.0 2.3002e-08
2550.0 2.3842e-08
2570.0 2.4958e-08
2590.0 2.6428e-08
2610.0 2.8524e-08
2630.0 3.1311e-08
2650.0 3.4729e-08
2670.0 3.8968e-08
2690.0 4.4124e-08
2710.0 4.9799e-08
2730.0 5.5789e-08
2750.0 6.2287e-08
2770.0 6.8745e-08
2790.0 7.4738e-08
2810.0 8.0349e-08
2830.0 8.5576e-08
2850.0 8.9917e-08
2870.0 9.3712e-08
2890.0 9.7208e-08
2910.0 1.0043e-07
2930.0 1.0345e-07
2950.0 1.0653e-07
2970.0 1.0972e-07
2990.0 1.1296e-07
3010.0 1.1632e-07
3030.0 1.1991e-07
3050.0 1.2368e-07
3070.0 1.275e-07
3090.0 1.3156e-07
3110.0 1.3589e-07
3130.0 1.4055e-07
3150.0 1.4563e-07
3170.0 1.5226e-07
3190.0 1.6097e-07
3210.0 1.7248e-07
3230.0 1.8803e-07
3250.0 2.0839e-07
3270.0 2.2859e-07
3290.0 2.5927e-07
3310.0 3.1937e-07
3330.0 3.397e-07
3350.0 3.4995e-07
3370.0 3.5985e-07
3390.0 3.699e-07
3410.0 3.7994e-07
3430.0 3.8998e-07
3450.0 3.9998e-07
3470.0 4.0986e-07
3490.0 4.1921e-07
3510.0 4.27e-07
3530.0 4.2242e-07
3550.0 4.1091e-07
3570.0 4.1808e-07
3590.0 4.4744e-07
3610.0 4.8877e-07
3630.0 5.0875e-07
3650.0 4.8988e-07
3670.0 4.4845e-07
3690.0 4.2272e-07
3710.0 4.2614e-07
3730.0 4.4016e-07
3750.0 4.4791e-07
3770.0 4.6299e-07
3790.0 4.7978e-07
3810.0 4.7442e-07
3830.0 4.4191e-07
3850.0 4.1181e-07
3870.0 3.9736e-07
3890.0 3.9409e-07
3910.0 3.8626e-07
3930.0 3.8188e-07
3950.0 3.9306e-07
3970.0 4.0611e-07
3990.0 4.0933e-07
4010.0 3.9514e-07
4030.0 3.7363e-07
4050.0 3.5953e-07
4070.0 3.476e-07
4090.0 3.3838e-07
4110.0 3.2657e-07
4130.0 3.0729e-07
4150.0 2.8757e-07
4170.0 2.7585e-07
4190.0 2.5777e-07
4210.0 2.3319e-07
4230.0 2.0845e-07
4250.0 1.8471e-07
4270.0 1.6667e-07
4290.0 1.5403e-07
4310.0 1.4719e-07
4330.0 1.469e-07
4350.0 1.4864e-07
4370.0 1.5004e-07
4390.0 1.5621e-07
4410.0 1.6043e-07
4430.0 1.5554e-07
4450.0 1.4096e-07
4470.0 1.2791e-07
4490.0 1.2112e-07
4510.0 1.1656e-07
4530.0 1.1421e-07
4550.0 1.1213e-07
4570.0 1.1159e-07
4590.0 1.1314e-07
4610.0 1.1602e-07
4630.0 1.1773e-07
4650.0 1.1833e-07
4670.0 1.1547e-07
4690.0 1.0831e-07
4710.0 1.0134e-07
4730.0 9.6579e-08
4750.0 9.3704e-08
4770.0 9.4227e-08
4790.0 9.384e-08
4810.0 9.1844e-08
4830.0 9.2318e-08
4850.0 9.5074e-08
4870.0 9.6108e-08
4890.0 9.4424e-08
4910.0 9.1972e-08
4930.0 8.6671e-08
4950.0 7.9397e-08
4970.0 7.4166e-08
4990.0 6.9874e-08
5010.0 6.9016e-08
5030.0 7.1324e-08
5050.0 7.3113e-08
5070.0 7.5863e-08
5090.0 8.0439e-08
5110.0 8.1627e-08
5130.0 8.236e-08
5150.0 8.3813e-08
5170.0 8.4648e-08
5190.0 8.6852e-08
5210.0 8.7273e-08
5230.0 8.641e-08
5250.0 8.7007e-08
5270.0 8.8143e-08
5290.0 8.8345e-08
5310.0 8.7713e-08
5330.0 8.6015e-08
5350.0 8.4982e-08
5370.0 8.4044e-08
5390.0 8.2851e-08
5410.0 8.1962e-08
5430.0 8.1838e-08
5450.0 8.3154e-08
5470.0 8.4704e-08
5490.0 8.7515e-08
5510.0 9.0122e-08
5530.0 9.1259e-08
5550.0 9.2475e-08
5570.0 9.2952e-08
5590.0 9.1415e-08
5610.0 9.0787e-08
5630.0 9.1316e-08
5650.0 9.0269e-08
5670.0 8.8284e-08
5690.0 8.5803e-08
5710.0 8.5309e-08
5730.0 8.6348e-08
5750.0 8.273e-08
5770.0 7.8436e-08
5790.0 7.2547e-08
5810.0 6.3867e-08
5830.0 6.855e-08
5850.0 7.5263e-08
5870.0 7.6624e-08
5890.0 7.7008e-08
5910.0 7.7933e-08
5930.0 7.7659e-08
5950.0 7.652e-08
5970.0 7.5638e-08
5990.0 7.4721e-08
6010.0 7.2393e-08
6030.0 7.002e-08
6050.0 6.8902e-08
6070.0 6.8336e-08
6090.0 6.7474e-08
6110.0 6.5349e-08
6130.0 6.3025e-08
6150.0 6.0562e-08
6170.0 5.8141e-08
6190.0 5.5144e-08
6210.0 5.3274e-08
6230.0 5.2644e-08
6250.0 5.1527e-08
6270.0 5.0454e-08
6290.0 5.0237e-08
6310.0 5.0136e-08
6330.0 4.9094e-08
6350.0 4.748e-08
6370.0 4.6668e-08
6390.0 4.5524e-08
6410.0 4.4369e-08
6430.0 4.3072e-08
6450.0 4.2208e-08
6470.0 4.1395e-08
6490.0 4.0825e-08
6510.0 3.9914e-08
6530.0 3.8973e-08
6550.0 3.8117e-08
6570.0 3.7413e-08
6590.0 3.7487e-08
6610.0 3.7272e-08
6630.0 3.6077e-08
6650.0 3.4961e-08
6670.0 3.4534e-08
6690.0 3.3957e-08
6710.0 3.3097e-08
6730.0 3.2761e-08
6750.0 3.3015e-08
6770.0 3.4792e-08
6790.0 3.8305e-08
6810.0 3.6495e-08
6830.0 3.2474e-08
6850.0 3.1077e-08
6870.0 3.0608e-08
6890.0 3.0592e-08
6910.0 3.0647e-08
6930.0 3.0664e-08
6950.0 3.0664e-08
6970.0 2.9879e-08
6990.0 2.9611e-08
7010.0 3.0032e-08
7030.0 3.0258e-08
7050.0 2.9827e-08
7070.0 2.9294e-08
7090.0 2.9271e-08
7110.0 2.9978e-08
7130.0 3.007e-08
7150.0 3.0228e-08
7170.0 3.0384e-08
7190.0 3.0784e-08
7210.0 3.1213e-08
7230.0 3.1735e-08
7250.0 3.2134e-08
7270.0 3.2461e-08
7290.0 3.3055e-08
7310.0 3.35e-08
7330.0 3.3205e-08
7350.0 3.2476e-08
7370.0 3.2184e-08
7390.0 3.229e-08
7410.0 3.2149e-08
7430.0 3.259e-08
7450.0 3.2776e-08
7470.0 3.3406e-08
7490.0 3.326e-08
7510.0 3.2768e-08
7530.0 3.3251e-08
7550.0 3.3895e-08
7570.0 3.3842e-08
7590.0 3.2164e-08
7610.0 3.2135e-08
7630.0 3.3784e-08
7650.0 3.4594e-08
7670.0 3.4503e-08
7690.0 3.6112e-08
7710.0 3.7237e-08
7730.0 3.7672e-08
7750.0 3.9557e-08
7770.0 3.87e-08
7790.0 3.7925e-08
7810.0 3.9954e-08
7830.0 4.1647e-08
7850.0 4.2408e-08
7870.0 4.3465e-08
7890.0 4.3651e-08
7910.0 4.3342e-08
7930.0 4.3564e-08
7950.0 4.5599e-08
7970.0 4.5538e-08
7990.0 4.2446e-08
8010.0 3.7936e-08
8030.0 3.8942e-08
8050.0 3.9914e-08
8070.0 3.5838e-08
8090.0 2.2329e-08
8110.0 2.363e-08
8130.0 3.486e-08
8150.0 3.7527e-08
8170.0 3.8986e-08
8190.0 3.9647e-08
8210.0 3.9357e-08
8230.0 4.3018e-08
8250.0 4.4109e-08
8270.0 4.1356e-08
8290.0 3.9546e-08
8310.0 3.9151e-08
8330.0 4.1758e-08
8350.0 4.3749e-08
8370.0 4.2734e-08
8390.0 4.0704e-08
8410.0 4.0702e-08
8430.0 3.8054e-08
8450.0 3.9154e-08
8470.0 4.2757e-08
8490.0 4.2886e-08
8510.0 3.9793e-08
8530.0 3.6964e-08
8550.0 3.532e-08
8570.0 3.3456e-08
8590.0 3.4403e-08
8610.0 3.6749e-08
8630.0 3.7584e-08
8650.0 3.8261e-08
8670.0 3.7033e-08
8690.0 3.6184e-08
8710.0 3.3422e-08
8730.0 3.2312e-08
8750.0 3.3876e-08
8770.0 3.4508e-08
8790.0 3.409e-08
8810.0 3.4231e-08
8830.0 3.5124e-08
8850.0 3.6775e-08
8870.0 3.4311e-08
8890.0 3.25e-08
8910.0 3.1995e-08
8930.0 2.9732e-08
8950.0 2.8874e-08
8970.0 2.8978e-08
8990.0 2.7701e-08
9010.0 2.603e-08
9030.0 2.5428e-08
9050.0 2.5207e-08
9070.0 2.501e-08
9090.0 2.4812e-08
9110.0 2.4612e-08
9130.0 2.4412e-08
9150.0 2.4211e-08
9170.0 2.4009e-08
9190.0 2.3807e-08
9210.0 2.3605e-08
9230.0 2.3403e-08
9250.0 2.32e-08
9270.0 2.2998e-08
9290.0 2.2797e-08
9310.0 2.2593e-08
9330.0 2.2387e-08
9350.0 2.2182e-08
9370.0 2.1977e-08
9390.0 2.1774e-08
9410.0 2.1571e-08
9430.0 2.137e-08
9450.0 2.1171e-08
9470.0 2.0972e-08
9490.0 2.0774e-08
9510.0 2.058e-08
9530.0 2.0387e-08
9550.0 2.0196e-08
9570.0 2.0006e-08
9590.0 1.9818e-08
9610.0 1.9627e-08
9630.0 1.9438e-08
9650.0 1.9251e-08
9670.0 1.9067e-08
9690.0 1.8884e-08
9710.0 1.8703e-08
9730.0 1.8525e-08
9750.0 1.8349e-08
9770.0 1.8174e-08
9790.0 1.8002e-08
9810.0 1.7832e-08
9830.0 1.7664e-08
9850.0 1.75e-08
9870.0 1.7339e-08
9890.0 1.7176e-08
9910.0 1.7016e-08
9930.0 1.6859e-08
9950.0 1.6704e-08
9970.0 1.655e-08
9990.0 1.6399e-08
10010.0 1.6251e-08
10030.0 1.6104e-08
10050.0 1.5959e-08
10070.0 1.5817e-08
10090.0 1.5676e-08
10110.0 1.5537e-08
10130.0 1.5401e-08
10150.0 1.5266e-08
10170.0 1.5133e-08
10190.0 1.5002e-08
10210.0 1.4873e-08
10230.0 1.4746e-08
10250.0 1.462e-08
10270.0 1.4497e-08
10290.0 1.4375e-08
10310.0 1.4254e-08
10330.0 1.4136e-08
10350.0 1.4019e-08
10370.0 1.3904e-08
10390.0 1.3788e-08
10410.0 1.3653e-08
10430.0 1.3513e-08
10450.0 1.3429e-08
10470.0 1.3332e-08
10490.0 1.3235e-08
10510.0 1.3136e-08
10530.0 1.3033e-08
10550.0 1.2932e-08
10570.0 1.2833e-08
10590.0 1.2734e-08
10610.0 1.2635e-08
10630.0 1.254e-08
10650.0 1.2445e-08
10670.0 1.2349e-08
10690.0 1.2256e-08
10710.0 1.2165e-08
10730.0 1.2073e-08
10750.0 1.1981e-08
10770.0 1.1894e-08
10790.0 1.1807e-08
10810.0 1.1719e-08
10830.0 1.1634e-08
10850.0 1.1551e-08
10870.0 1.1465e-08
10890.0 1.1381e-08
10910.0 1.1299e-08
10930.0 1.1218e-08
10950.0 1.1135e-08
10970.0 1.1054e-08
10990.0 1.0974e-08
11010.0 1.2688e-08
11030.0 1.2596e-08
11050.0 1.2504e-08
11070.0 1.241e-08
11090.0 1.2309e-08
11110.0 1.2211e-08
11130.0 1.2113e-08
11150.0 1.2012e-08
11170.0 1.1909e-08
11190.0 1.1809e-08
11210.0 1.1706e-08
11230.0 1.1602e-08
11250.0 1.1501e-08
11270.0 1.1402e-08
11290.0 1.1302e-08
11310.0 1.1204e-08
11330.0 1.1114e-08
11350.0 1.1026e-08
11370.0 1.094e-08
11390.0 1.086e-08
11410.0 1.0785e-08
11430.0 1.071e-08
11450.0 1.064e-08
11470.0 1.0573e-08
11490.0 1.0508e-08
11510.0 1.0442e-08
11530.0 1.038e-08
11550.0 1.0318e-08
11570.0 1.0253e-08
11590.0 1.0189e-08
11610.0 1.0125e-08
11630.0 1.0059e-08
11650.0 9.9892e-09
11670.0 9.921e-09
11690.0 9.8516e-09
11710.0 9.779e-09
11730.0 9.7059e-09
11750.0 9.6347e-09
11770.0 9.5607e-09
11790.0 9.4855e-09
11810.0 9.4127e-09
11830.0 9.3405e-09
11850.0 9.2659e-09
11870.0 9.1945e-09
11890.0 9.127e-09
11910.0 9.0596e-09
11930.0 8.9939e-09
11950.0 8.9333e-09
11970.0 8.8751e-09
11990.0 8.818e-09
12010.0 8.7657e-09
12030.0 8.7177e-09
12050.0 8.6719e-09
12070.0 8.6289e-09
12090.0 8.5914e-09
12110.0 8.5564e-09
12130.0 8.5236e-09
12150.0 8.494e-09
12170.0 8.4671e-09
12190.0 8.4407e-09
12210.0 8.4156e-09
12230.0 8.3918e-09
12250.0 8.3677e-09
12270.0 8.342e-09
12290.0 8.3154e-09
12310.0 8.2876e-09
12330.0 8.256e-09
12350.0 8.2214e-09
12370.0 8.1844e-09
12390.0 8.1434e-09
12410.0 8.0963e-09
12430.0 8.0476e-09
12450.0 7.9957e-09
12470.0 7.9386e-09
12490.0 7.8781e-09
12510.0 7.8172e-09
12530.0 7.752e-09
12550.0 7.6827e-09
12570.0 7.6137e-09
12590.0 7.5439e-09
12610.0 7.4703e-09
12630.0 7.396e-09
12650.0 7.3254e-09
12670.0 7.2531e-09
12690.0 7.1801e-09
12710.0 7.1105e-09
12730.0 7.0432e-09
12750.0 6.9741e-09
12770.0 6.9089e-09
12790.0 6.848e-09
12810.0 6.7886e-09
12830.0 6.7308e-09
12850.0 6.6788e-09
12870.0 6.6303e-09
12890.0 6.5837e-09
12910.0 6.5414e-09
12930.0 6.504e-09
12950.0 6.4693e-09
12970.0 6.4381e-09
12990.0 6.4125e-09
13010.0 6.3908e-09
13030.0 6.3725e-09
13050.0 6.3583e-09
13070.0 6.348e-09
13090.0 6.3402e-09
13110.0 6.335e-09
13130.0 6.3318e-09
13150.0 6.3296e-09
13170.0 6.3276e-09
13190.0 6.3251e-09
13210.0 6.3215e-09
13230.0 6.3158e-09
13250.0 6.3073e-09
13270.0 6.2963e-09
13290.0 6.2817e-09
13310.0 6.2629e-09
13330.0 6.2407e-09
13350.0 6.2153e-09
13370.0 6.1854e-09
13390.0 6.151e-09
13410.0 6.1154e-09
13430.0 6.076e-09
13450.0 6.0324e-09
13470.0 5.987e-09
13490.0 5.9404e-09
13510.0 5.8886e-09
13530.0 5.8351e-09
13550.0 5.782e-09
13570.0 5.7266e-09
13590.0 5.6681e-09
13610.0 5.6104e-09
13630.0 5.5534e-09
13650.0 5.4933e-09
13670.0 5.433e-09
13690.0 5.3746e-09
13710.0 5.3152e-09
13730.0 5.253e-09
13750.0 5.1949e-09
13770.0 5.1378e-09
13790.0 5.0797e-09
13810.0 5.023e-09
13830.0 4.97e-09
13850.0 4.9165e-09
13870.0 4.8636e-09
13890.0 4.8141e-09
13910.0 4.7667e-09
13930.0 4.7191e-09
13950.0 4.6735e-09
13970.0 4.632e-09
13990.0 4.5908e-09
14010.0 4.5506e-09
14030.0 4.5135e-09
14050.0 4.4782e-09
14070.0 4.4427e-09
14090.0 4.4098e-09
14110.0 4.3794e-09
14130.0 4.3498e-09
14150.0 4.3211e-09
14170.0 4.2951e-09
14190.0 4.2704e-09
14210.0 4.2459e-09
14230.0 4.2229e-09
14250.0 4.2015e-09
14270.0 4.1799e-09
14290.0 4.1587e-09
14310.0 4.1391e-09
14330.0 4.1198e-09
14350.0 4.1004e-09
14370.0 4.0817e-09
14390.0 4.064e-09
14410.0 4.0459e-09
14430.0 4.028e-09
14450.0 4.0109e-09
14470.0 3.9941e-09
14490.0 3.9766e-09
14510.0 3.9599e-09
14530.0 3.9437e-09
14550.0 3.927e-09
14570.0 3.9102e-09
14590.0 3.8941e-09
14610.0 3.8775e-09
14630.0 3.8601e-09
14650.0 3.8431e-09
14670.0 3.8262e-09
14690.0 3.8086e-09
14710.0 3.7904e-09
14730.0 3.773e-09
14750.0 3.755e-09
14770.0 3.7362e-09
14790.0 3.7175e-09
14810.0 3.699e-09
14830.0 3.6789e-09
14850.0 3.6586e-09
14870.0 3.6389e-09
14890.0 3.6186e-09
14910.0 3.5979e-09
14930.0 3.5782e-09
14950.0 3.5596e-09
14970.0 3.5413e-09
14990.0 3.5247e-09
15010.0 3.5103e-09
15030.0 3.4972e-09
15050.0 3.4852e-09
15070.0 3.4752e-09
15090.0 3.4662e-09
15110.0 3.4574e-09
15130.0 3.4491e-09
15150.0 3.4414e-09
15170.0 3.4334e-09
15190.0 3.4254e-09
15210.0 3.4176e-09
15230.0 3.4099e-09
15250.0 3.4019e-09
15270.0 3.3939e-09
15290.0 3.3863e-09
15310.0 3.3784e-09
15330.0 3.3704e-09
15350.0 3.3626e-09
15370.0 3.3549e-09
15390.0 3.3467e-09
15410.0 3.3388e-09
15430.0 3.331e-09
15450.0 3.323e-09
15470.0 3.3149e-09
15490.0 3.3071e-09
15510.0 3.2993e-09
15530.0 3.2911e-09
15550.0 3.2831e-09
15570.0 3.2754e-09
15590.0 3.2672e-09
15610.0 3.259e-09
15630.0 3.2511e-09
15650.0 3.2431e-09
15670.0 3.2349e-09
15690.0 3.2269e-09
15710.0 3.219e-09
15730.0 3.2108e-09
15750.0 3.2026e-09
15770.0 3.1946e-09
15790.0 3.1866e-09
15810.0 3.1782e-09
15830.0 3.17e-09
15850.0 3.1621e-09
15870.0 3.1538e-09
15890.0 3.1456e-09
15910.0 3.1376e-09
15930.0 3.1294e-09
15950.0 3.121e-09
15970.0 3.1128e-09
15990.0 3.1047e-09
16010.0 3.0963e-09
16030.0 3.0879e-09
16050.0 3.0798e-09
16070.0 3.0716e-09
16090.0 3.0632e-09
16110.0 3.0549e-09
16130.0 3.0469e-09
16150.0 3.0383e-09
16170.0 3.0298e-09
16190.0 3.0216e-09
16210.0 3.0133e-09
16230.0 3.0047e-09
16250.0 2.9965e-09
16270.0 2.9883e-09
16290.0 2.9797e-09
16310.0 2.9713e-09
16330.0 2.9631e-09
16350.0 2.9546e-09
16370.0 2.9458e-09
16390.0 2.9376e-09
16410.0 2.9293e-09
16430.0 2.9207e-09
16450.0 2.9121e-09
16470.0 2.9039e-09
16490.0 2.8954e-09
16510.0 2.8867e-09
16530.0 2.8783e-09
16550.0 2.8699e-09
16570.0 2.8612e-09
16590.0 2.8525e-09
16610.0 2.8443e-09
16630.0 2.8357e-09
16650.0 2.8271e-09
16670.0 2.8187e-09
16690.0 2.8103e-09
16710.0 2.8014e-09
16730.0 2.7928e-09
16750.0 2.7844e-09
16770.0 2.7758e-09
16790.0 2.767e-09
16810.0 2.7586e-09
16830.0 2.7501e-09
16850.0 2.7413e-09
16870.0 2.7327e-09
16890.0 2.7244e-09
16910.0 2.7156e-09
16930.0 2.7067e-09
16950.0 2.6983e-09
16970.0 2.6897e-09
16990.0 2.6809e-09
17010.0 2.6723e-09
17030.0 2.664e-09
17050.0 2.6552e-09
17070.0 2.6464e-09
17090.0 2.6379e-09
17110.0 2.6293e-09
17130.0 2.6204e-09
17150.0 2.6118e-09
17170.0 2.6033e-09
17190.0 2.5946e-09
17210.0 2.5858e-09
17230.0 2.5774e-09
17250.0 2.5687e-09
17270.0 2.5598e-09
17290.0 2.5512e-09
17310.0 2.5427e-09
17330.0 2.5339e-09
17350.0 2.525e-09
17370.0 2.5166e-09
17390.0 2.508e-09
17410.0 2.4991e-09
17430.0 2.4906e-09
17450.0 2.4821e-09
17470.0 2.4731e-09
17490.0 2.4644e-09
17510.0 2.4559e-09
17530.0 2.4472e-09
17550.0 2.4383e-09
17570.0 2.4298e-09
17590.0 2.4213e-09
17610.0 2.4125e-09
17630.0 2.4037e-09
17650.0 2.3953e-09
17670.0 2.3866e-09
17690.0 2.3775e-09
17710.0 2.369e-09
17730.0 2.3605e-09
17750.0 2.3517e-09
17770.0 2.343e-09
17790.0 2.3346e-09
17810.0 2.3259e-09
17830.0 2.317e-09
17850.0 2.3085e-09
17870.0 2.2999e-09
17890.0 2.291e-09
17910.0 2.2823e-09
17930.0 2.2739e-09
17950.0 2.2652e-09
17970.0 2.2565e-09
17990.0 2.248e-09
18010.0 2.2395e-09
18030.0 2.2305e-09
18050.0 2.2219e-09
18070.0 2.2134e-09
18090.0 2.2047e-09
18110.0 2.1959e-09
18130.0 2.1875e-09
18150.0 2.179e-09
18170.0 2.1702e-09
18190.0 2.1616e-09
18210.0 2.1532e-09
18230.0 2.1444e-09
18250.0 2.1356e-09
18270.0 2.1272e-09
18290.0 2.1186e-09
18310.0 2.1098e-09
18330.0 2.1013e-09
18350.0 2.093e-09
18370.0 2.0842e-09
18390.0 2.0755e-09
18410.0 2.0671e-09
18430.0 2.0585e-09
18450.0 2.0497e-09
18470.0 2.0412e-09
18490.0 2.0328e-09
18510.0 2.0241e-09
18530.0 2.0155e-09
18550.0 2.0072e-09
18570.0 1.9986e-09
18590.0 1.9898e-09
18610.0 1.9813e-09
18630.0 1.9729e-09
18650.0 1.9642e-09
18670.0 1.9555e-09
18690.0 1.9472e-09
18710.0 1.9387e-09
18730.0 1.93e-09
18750.0 1.9216e-09
18770.0 1.9133e-09
18790.0 1.9045e-09
18810.0 1.8959e-09
18830.0 1.8876e-09
18850.0 1.8791e-09
18870.0 1.8704e-09
18890.0 1.862e-09
18910.0 1.8537e-09
18930.0 1.845e-09
18950.0 1.8365e-09
18970.0 1.8282e-09
18990.0 1.8197e-09
19010.0 1.8108e-09
19030.0 1.8026e-09
19050.0 1.7942e-09
19070.0 1.7856e-09
19090.0 1.7771e-09
19110.0 1.769e-09
19130.0 1.7604e-09
19150.0 1.7517e-09
19170.0 1.7434e-09
19190.0 1.7351e-09
19210.0 1.7264e-09
19230.0 1.7179e-09
19250.0 1.7097e-09
19270.0 1.7012e-09
19290.0 1.6927e-09
19310.0 1.6844e-09
19330.0 1.6761e-09
19350.0 1.6674e-09
19370.0 1.659e-09
19390.0 1.6507e-09
19410.0 1.6422e-09
19430.0 1.6336e-09
19450.0 1.6255e-09
19470.0 1.6171e-09
19490.0 1.6086e-09
19510.0 1.6002e-09
19530.0 1.592e-09
19550.0 1.5834e-09
19570.0 1.5748e-09
19590.0 1.5667e-09
19610.0 1.5583e-09
19630.0 1.5498e-09
19650.0 1.5415e-09
19670.0 1.5333e-09
19690.0 1.5248e-09
19710.0 1.5163e-09
19730.0 1.5081e-09
19750.0 1.4998e-09
19770.0 1.4911e-09
19790.0 1.4828e-09
19810.0 1.4747e-09
19830.0 1.4662e-09
19850.0 1.4578e-09
19870.0 1.4498e-09
19890.0 1.4416e-09
19910.0 1.4333e-09
19930.0 1.4256e-09
19950.0 1.4183e-09
19970.0 1.4114e-09
19990.0 1.4052e-09
20010.0 1.4001e-09
20030.0 1.3956e-09
20050.0 1.3919e-09
20070.0 1.3889e-09
20090.0 1.3866e-09
20110.0 1.3845e-09
20130.0 1.3827e-09
20150.0 1.3811e-09
20170.0 1.3795e-09
20190.0 1.3779e-09
20210.0 1.3764e-09
20230.0 1.3748e-09
20250.0 1.3731e-09
20270.0 1.3713e-09
20290.0 1.3694e-09
20310.0 1.3674e-09
20330.0 1.3653e-09
20350.0 1.3631e-09
20370.0 1.3608e-09
20390.0 1.3584e-09
20410.0 1.3559e-09
20430.0 1.3534e-09
20450.0 1.3506e-09
20470.0 1.3479e-09
20490.0 1.3451e-09
20510.0 1.3424e-09
20530.0 1.3396e-09
20550.0 1.3368e-09
20570.0 1.3342e-09
20590.0 1.3316e-09
20610.0 1.329e-09
20630.0 1.3265e-09
20650.0 1.3241e-09
20670.0 1.3216e-09
20690.0 1.3192e-09
20710.0 1.3168e-09
20730.0 1.3144e-09
20750.0 1.3118e-09
20770.0 1.3092e-09
20790.0 1.3064e-09
20810.0 1.3034e-09
20830.0 1.3003e-09
20850.0 1.2969e-09
20870.0 1.2932e-09
20890.0 1.2892e-09
20910.0 1.2852e-09
20930.0 1.2809e-09
20950.0 1.2763e-09
20970.0 1.2716e-09
20990.0 1.2669e-09
21010.0 1.2618e-09
21030.0 1.2567e-09
21050.0 1.2517e-09
21070.0 1.2466e-09
21090.0 1.2413e-09
21110.0 1.2364e-09
21130.0 1.2315e-09
21150.0 1.2264e-09
21170.0 1.2215e-09
21190.0 1.2168e-09
21210.0 1.2119e-09
21230.0 1.207e-09
21250.0 1.2022e-09
21270.0 1.1974e-09
21290.0 1.1923e-09
21310.0 1.1873e-09
21330.0 1.1823e-09
21350.0 1.1771e-09
21370.0 1.1717e-09
21390.0 1.1666e-09
21410.0 1.1614e-09
21430.0 1.1558e-09
21450.0 1.1502e-09
21470.0 1.1446e-09
21490.0 1.1388e-09
21510.0 1.1328e-09
21530.0 1.1269e-09
21550.0 1.1209e-09
21570.0 1.1146e-09
21590.0 1.1084e-09
21610.0 1.1023e-09
21630.0 1.096e-09
21650.0 1.0895e-09
21670.0 1.0834e-09
21690.0 1.0772e-09
21710.0 1.0709e-09
21730.0 1.0647e-09
21750.0 1.0587e-09
21770.0 1.0524e-09
21790.0 1.0462e-09
21810.0 1.0401e-09
21830.0 1.0341e-09
21850.0 1.0278e-09
21870.0 1.0217e-09
21890.0 1.0158e-09
21910.0 1.0097e-09
21930.0 1.0036e-09
21950.0 9.9781e-10
21970.0 9.9194e-10
21990.0 9.8586e-10
22010.0 9.8018e-10
22030.0 9.7469e-10
22050.0 9.6916e-10
22070.0 9.6372e-10
22090.0 9.5855e-10
22110.0 9.5344e-10
22130.0 9.4843e-10
22150.0 9.4379e-10
22170.0 9.3943e-10
22190.0 9.351e-10
22210.0 9.3101e-10
22230.0 9.2733e-10
22250.0 9.2373e-10
22270.0 9.2023e-10
22290.0 9.1699e-10
22310.0 9.139e-10
22330.0 9.1075e-10
22350.0 9.0774e-10
22370.0 9.0486e-10
22390.0 9.0195e-10
22410.0 8.9896e-10
22430.0 8.961e-10
22450.0 8.9325e-10
22470.0 8.9026e-10
22490.0 8.8728e-10
22510.0 8.8437e-10
22530.0 8.8131e-10
22550.0 8.7817e-10
22570.0 8.7514e-10
22590.0 8.7211e-10
22610.0 8.6899e-10
