#lamb flux
1010.0 8.2574e-07
1030.0 9.1829e-07
1050.0 1.0078e-06
1070.0 1.1087e-06
1090.0 1.2286e-06
1110.0 1.3511e-06
1130.0 1.4744e-06
1150.0 1.6038e-06
1170.0 1.7383e-06
1190.0 1.8681e-06
1210.0 2.0023e-06
1230.0 2.1445e-06
1250.0 2.2873e-06
1270.0 2.4315e-06
1290.0 2.5886e-06
1310.0 2.7517e-06
1330.0 2.9151e-06
1350.0 3.0857e-06
1370.0 3.2658e-06
1390.0 3.4468e-06
1410.0 3.6268e-06
1430.0 3.8155e-06
1450.0 4.0055e-06
1470.0 4.1906e-06
1490.0 4.3762e-06
1510.0 4.5683e-06
1530.0 4.7489e-06
1550.0 4.9235e-06
1570.0 5.0984e-06
1590.0 5.2678e-06
1610.0 5.4234e-06
1630.0 5.5747e-06
1650.0 5.7222e-06
1670.0 5.8563e-06
1690.0 5.9799e-06
1710.0 6.1006e-06
1730.0 6.2135e-06
1750.0 6.309e-06
1770.0 6.4009e-06
1790.0 6.4888e-06
1810.0 6.5657e-06
1830.0 6.6353e-06
1850.0 6.7097e-06
1870.0 6.7778e-06
1890.0 6.8404e-06
1910.0 6.9064e-06
1930.0 6.9777e-06
1950.0 7.0458e-06
1970.0 7.1166e-06
1990.0 7.1973e-06
2010.0 7.2811e-06
2030.0 7.3657e-06
2050.0 7.4591e-06
2070.0 7.5602e-06
2090.0 7.6572e-06
2110.0 7.756e-06
2130.0 7.8592e-06
2150.0 7.959e-06
2170.0 8.0507e-06
2190.0 8.1427e-06
2210.0 8.2293e-06
2230.0 8.3035e-06
2250.0 8.3683e-06
2270.0 8.4284e-06
2290.0 8.4736e-06
2310.0 8.5022e-06
2330.0 8.5224e-06
2350.0 8.5308e-06
2370.0 8.5217e-06
2390.0 8.5007e-06
2410.0 8.4712e-06
2430.0 8.4239e-06
2450.0 8.3595e-06
2470.0 8.2822e-06
2490.0 8.191e-06
2510.0 8.0861e-06
2530.0 7.9875e-06
2550.0 7.9246e-06
2570.0 7.9326e-06
2590.0 8.0514e-06
2610.0 8.3707e-06
2630.0 8.9183e-06
2650.0 9.6552e-06
2670.0 1.0587e-05
2690.0 1.1663e-05
2710.0 1.2691e-05
2730.0 1.3553e-05
2750.0 1.4214e-05
2770.0 1.4514e-05
2790.0 1.4408e-05
2810.0 1.3915e-05
2830.0 1.3016e-05
2850.0 1.1829e-05
2870.0 1.0421e-05
2890.0 8.802e-06
2910.0 7.0618e-06
2930.0 5.3024e-06
2950.0 3.439e-06
2970.0 1.4998e-06
2990.0 5.7723e-07
3010.0 1.0784e-06
3030.0 1.0784e-06
3050.0 1.0784e-06
3070.0 1.0784e-06
3090.0 1.0784e-06
3110.0 1.0784e-06
3130.0 1.0784e-06
3150.0 1.0784e-06
3170.0 1.0784e-06
3190.0 1.0784e-06
3210.0 7.0172e-06
3230.0 6.1068e-05
3250.0 9.7847e-05
3270.0 8.8207e-05
3290.0 7.3678e-05
3310.0 5.5609e-05
3330.0 5.2766e-05
3350.0 5.7551e-05
3370.0 6.4982e-05
3390.0 7.2972e-05
3410.0 8.1527e-05
3430.0 9.297e-05
3450.0 0.00010387
3470.0 0.00011508
3490.0 0.00011748
3510.0 0.00010094
3530.0 9.2679e-05
3550.0 0.00010915
3570.0 0.00012653
3590.0 0.00013929
3610.0 0.00013966
3630.0 0.0001624
3650.0 0.00017124
3670.0 0.0001787
3690.0 0.00018915
3710.0 0.00019039
3730.0 0.00019687
3750.0 0.00019582
3770.0 0.00019496
3790.0 0.00018771
3810.0 0.00017636
3830.0 0.00016694
3850.0 0.00010462
3870.0 0.00011049
3890.0 0.00012653
3910.0 0.00016645
3930.0 0.0002155
3950.0 0.00023348
3970.0 0.0002505
3990.0 0.00029054
4010.0 0.00027371
4030.0 0.00024215
4050.0 0.00017339
4070.0 0.00015246
4090.0 0.00020419
4110.0 0.0002153
4130.0 0.00023438
4150.0 0.0002288
4170.0 0.00021649
4190.0 0.00019826
4210.0 0.0002439
4230.0 0.00026108
4250.0 0.00028309
4270.0 0.00027434
4290.0 0.00026574
4310.0 0.00027859
4330.0 0.0003232
4350.0 0.00034978
4370.0 0.00035338
4390.0 0.00032689
4410.0 0.00029764
4430.0 0.00023275
4450.0 0.00018689
4470.0 0.00019476
4490.0 0.00022429
4510.0 0.00023626
4530.0 0.00023649
4550.0 0.00023758
4570.0 0.00033349
4590.0 0.00049721
4610.0 0.00058721
4630.0 0.00060333
4650.0 0.00066251
4670.0 0.00077549
4690.0 0.00082974
4710.0 0.00070151
4730.0 0.00053675
4750.0 0.00041646
4770.0 0.00035244
4790.0 0.00031743
4810.0 0.00030039
4830.0 0.00033263
4850.0 0.00039937
4870.0 0.0004425
4890.0 0.00045902
4910.0 0.00044202
4930.0 0.0004847
4950.0 0.00058368
4970.0 0.00066537
4990.0 0.00068232
5010.0 0.00062442
5030.0 0.00051659
5050.0 0.00040272
5070.0 0.00032673
5090.0 0.00029833
5110.0 0.00029588
5130.0 0.00030092
5150.0 0.00029764
5170.0 0.00027767
5190.0 0.00026085
5210.0 0.00026109
5230.0 0.00029997
5250.0 0.00036655
5270.0 0.00044223
5290.0 0.00050161
5310.0 0.0005442
5330.0 0.00061049
5350.0 0.00068045
5370.0 0.00069962
5390.0 0.00063973
5410.0 0.00057713
5430.0 0.00057706
5450.0 0.00067894
5470.0 0.00083495
5490.0 0.00096731
5510.0 0.0010308
5530.0 0.0010275
5550.0 0.00099503
5570.0 0.00096931
5590.0 0.00094169
5610.0 0.00093133
5630.0 0.00094049
5650.0 0.00095532
5670.0 0.00093719
5690.0 0.00085257
5710.0 0.00073717
5730.0 0.00067336
5750.0 0.00065973
5770.0 0.00068672
5790.0 0.00071779
5810.0 0.00074814
5830.0 0.0007662
5850.0 0.00074531
5870.0 0.00071943
5890.0 0.00071968
5910.0 0.00075666
5930.0 0.00078995
5950.0 0.00075395
5970.0 0.00067235
5990.0 0.00056078
6010.0 0.00046104
6030.0 0.00043122
6050.0 0.0004692
6070.0 0.00049597
6090.0 0.00046679
6110.0 0.00041433
6130.0 0.00042699
6150.0 0.00049493
6170.0 0.00056226
6190.0 0.00060898
6210.0 0.0006196
6230.0 0.0006114
6250.0 0.0005569
6270.0 0.00046361
6290.0 0.00038274
6310.0 0.00034284
6330.0 0.00033779
6350.0 0.0003436
6370.0 0.0003527
6390.0 0.00040316
6410.0 0.00050228
6430.0 0.00060737
6450.0 0.00066816
6470.0 0.00068657
6490.0 0.0006873
6510.0 0.00069875
6530.0 0.00071433
6550.0 0.00071484
6570.0 0.00074051
6590.0 0.00076138
6610.0 0.000771
6630.0 0.00074998
6650.0 0.00069555
6670.0 0.00063528
6690.0 0.00058531
6710.0 0.0005574
6730.0 0.00054427
6750.0 0.00054658
6770.0 0.00056144
6790.0 0.00058185
6810.0 0.00059477
6830.0 0.00058432
6850.0 0.00055403
6870.0 0.00051921
6890.0 0.0005073
6910.0 0.00049788
6930.0 0.00051503
6950.0 0.00054054
6970.0 0.00055418
6990.0 0.00056199
7010.0 0.00054439
7030.0 0.00050009
7050.0 0.00044371
7070.0 0.00040137
7090.0 0.00038311
7110.0 0.0003817
7130.0 0.00036655
7150.0 0.00032511
7170.0 0.00031079
7190.0 0.00034415
7210.0 0.00040091
7230.0 0.00045848
7250.0 0.0004811
7270.0 0.00047247
7290.0 0.00043758
7310.0 0.0004067
7330.0 0.00039431
7350.0 0.00039697
7370.0 0.00040382
7390.0 0.00042398
7410.0 0.00047089
7430.0 0.00053995
7450.0 0.00060316
7470.0 0.00063011
7490.0 0.00060895
7510.0 0.0005622
7530.0 0.00049837
7550.0 0.00045504
7570.0 0.00040875
7590.0 0.00038452
7610.0 0.00038856
7630.0 0.00041221
7650.0 0.0004491
7670.0 0.00048861
7690.0 0.00051753
7710.0 0.00054412
7730.0 0.00056953
7750.0 0.00058951
7770.0 0.00058251
7790.0 0.00058302
7810.0 0.00058564
7830.0 0.00057319
7850.0 0.00054991
7870.0 0.00053175
7890.0 0.00053389
7910.0 0.00052194
7930.0 0.00050939
7950.0 0.00048129
7970.0 0.0004629
7990.0 0.00044239
8010.0 0.00043845
8030.0 0.0004388
8050.0 0.00043798
8070.0 0.00042996
8090.0 0.00042413
8110.0 0.00040855
8130.0 0.00040599
8150.0 0.00039925
8170.0 0.00038744
8190.0 0.0003763
8210.0 0.00037047
8230.0 0.00035982
8250.0 0.00035253
8270.0 0.00032113
8290.0 0.00026405
8310.0 0.0002009
8330.0 0.00015776
8350.0 0.00014806
8370.0 0.00017397
8390.0 0.00020791
8410.0 0.0002223
8430.0 0.00022642
8450.0 0.00023777
8470.0 0.00025481
8490.0 0.00028401
8510.0 0.00032151
8530.0 0.00036448
8550.0 0.00040201
8570.0 0.00043121
8590.0 0.00045266
8610.0 0.0004631
8630.0 0.00046009
8650.0 0.00045237
8670.0 0.00045057
8690.0 0.00047246
8710.0 0.00050259
8730.0 0.00052023
8750.0 0.0005162
8770.0 0.00052142
8790.0 0.00051818
8810.0 0.00048635
8830.0 0.00045399
8850.0 0.00041271
8870.0 0.0003797
8890.0 0.00036863
8910.0 0.0003664
8930.0 0.00034414
8950.0 0.00031853
8970.0 0.00030718
8990.0 0.00030423
9010.0 0.00029297
9030.0 0.00028652
9050.0 0.00028396
9070.0 0.00028277
9090.0 0.00028175
9110.0 0.00028077
9130.0 0.00027979
9150.0 0.00027882
9170.0 0.00027777
9190.0 0.00027702
9210.0 0.00027716
9230.0 0.00027576
9250.0 0.00027458
9270.0 0.00027354
9290.0 0.00027258
9310.0 0.00027165
9330.0 0.00027075
9350.0 0.00026993
9370.0 0.00026911
9390.0 0.00026827
9410.0 0.00026747
9430.0 0.00026664
9450.0 0.00026544
9470.0 0.00026437
9490.0 0.00026398
9510.0 0.00026339
9530.0 0.00026275
9550.0 0.00026209
9570.0 0.0002614
9590.0 0.0002607
9610.0 0.00025999
9630.0 0.00025929
9650.0 0.00025859
9670.0 0.0002579
9690.0 0.00025721
9710.0 0.00025652
9730.0 0.00025584
9750.0 0.00025516
9770.0 0.00025448
9790.0 0.00025381
9810.0 0.00025313
9830.0 0.00025246
9850.0 0.00025178
9870.0 0.00025111
9890.0 0.00025043
9910.0 0.00024975
9930.0 0.00024904
9950.0 0.00024661
9970.0 0.00024643
9990.0 0.00024615
10010.0 0.00024581
10030.0 0.00024532
10050.0 0.0002447
10070.0 0.00024406
10090.0 0.00024342
10110.0 0.00024264
10130.0 0.00024185
10150.0 0.00024113
10170.0 0.00024036
10190.0 0.00023951
10210.0 0.00023873
10230.0 0.00023796
10250.0 0.00023709
10270.0 0.00023623
10290.0 0.00023542
10310.0 0.00023452
10330.0 0.00023355
10350.0 0.00023265
10370.0 0.00023174
10390.0 0.00023073
10410.0 0.00022972
10430.0 0.00022878
10450.0 0.00022775
10470.0 0.00022665
10490.0 0.0002256
10510.0 0.00022454
10530.0 0.00022333
10550.0 0.00022216
10570.0 0.00022103
10590.0 0.00021982
10610.0 0.00021854
10630.0 0.00021732
10650.0 0.00021607
10670.0 0.00021469
10690.0 0.00021333
10710.0 0.000212
10730.0 0.00021057
10750.0 0.00020904
10770.0 0.00020762
10790.0 0.00020615
10810.0 0.00020457
10830.0 0.00020301
10850.0 0.00020149
10870.0 0.00019979
10890.0 0.00019806
10910.0 0.00019638
10930.0 0.00019462
10950.0 0.00019272
10970.0 0.0001908
10990.0 0.00018892
11010.0 0.00020252
11030.0 0.0002003
11050.0 0.00019813
11070.0 0.00019592
11090.0 0.00019355
11110.0 0.00019136
11130.0 0.00018923
11150.0 0.00018705
11170.0 0.00018489
11190.0 0.00018287
11210.0 0.00018082
11230.0 0.00017871
11250.0 0.0001767
11270.0 0.00017474
11290.0 0.00017269
11310.0 0.00017065
11330.0 0.00016875
11350.0 0.00016679
11370.0 0.00016476
11390.0 0.00016279
11410.0 0.0001608
11430.0 0.00015863
11450.0 0.00015641
11470.0 0.00015417
11490.0 0.00015177
11510.0 0.00014916
11530.0 0.00014654
11550.0 0.00014382
11570.0 0.00014087
11590.0 0.00013785
11610.0 0.00013486
11630.0 0.00013168
11650.0 0.00012839
11670.0 0.00012524
11690.0 0.0001221
11710.0 0.00011889
11730.0 0.00011577
11750.0 0.00011283
11770.0 0.00010986
11790.0 0.00010694
11810.0 0.00010421
11830.0 0.00010156
11850.0 9.8882e-05
11870.0 9.6368e-05
11890.0 9.4011e-05
11910.0 9.1667e-05
11930.0 8.9377e-05
11950.0 8.7246e-05
11970.0 8.517e-05
11990.0 8.3095e-05
12010.0 8.1152e-05
12030.0 7.9329e-05
12050.0 7.7548e-05
12070.0 7.5836e-05
12090.0 7.4319e-05
12110.0 7.2893e-05
12130.0 7.156e-05
12150.0 7.0386e-05
12170.0 6.9373e-05
12190.0 6.8467e-05
12210.0 6.773e-05
12230.0 6.7168e-05
12250.0 6.6758e-05
12270.0 6.651e-05
12290.0 6.6422e-05
12310.0 6.647e-05
12330.0 6.6677e-05
12350.0 6.7021e-05
12370.0 6.7462e-05
12390.0 6.8021e-05
12410.0 6.8732e-05
12430.0 6.9474e-05
12450.0 7.0268e-05
12470.0 7.1153e-05
12490.0 7.2074e-05
12510.0 7.2955e-05
12530.0 7.387e-05
12550.0 7.4793e-05
12570.0 7.5627e-05
12590.0 7.638e-05
12610.0 7.7086e-05
12630.0 7.7667e-05
12650.0 7.8064e-05
12670.0 7.8334e-05
12690.0 7.8445e-05
12710.0 7.8364e-05
12730.0 7.8109e-05
12750.0 7.7676e-05
12770.0 7.7065e-05
12790.0 7.6306e-05
12810.0 7.5398e-05
12830.0 7.4347e-05
12850.0 7.3229e-05
12870.0 7.2045e-05
12890.0 7.0779e-05
12910.0 6.9498e-05
12930.0 6.824e-05
12950.0 6.6958e-05
12970.0 6.5681e-05
12990.0 6.4484e-05
13010.0 6.3325e-05
13030.0 6.2182e-05
13050.0 6.1095e-05
13070.0 6.0076e-05
13090.0 5.9063e-05
13110.0 5.8078e-05
13130.0 5.7144e-05
13150.0 5.6231e-05
13170.0 5.5307e-05
13190.0 5.4423e-05
13210.0 5.3576e-05
13230.0 5.2728e-05
13250.0 5.1897e-05
13270.0 5.1115e-05
13290.0 5.0358e-05
13310.0 4.9618e-05
13330.0 4.8941e-05
13350.0 4.8325e-05
13370.0 4.7755e-05
13390.0 4.7245e-05
13410.0 4.6816e-05
13430.0 4.6442e-05
13450.0 4.612e-05
13470.0 4.585e-05
13490.0 4.5617e-05
13510.0 4.5404e-05
13530.0 4.52e-05
13550.0 4.4991e-05
13570.0 4.4762e-05
13590.0 4.4499e-05
13610.0 4.4198e-05
13630.0 4.386e-05
13650.0 4.3467e-05
13670.0 4.3031e-05
13690.0 4.2568e-05
13710.0 4.2072e-05
13730.0 4.1535e-05
13750.0 4.1012e-05
13770.0 4.0495e-05
13790.0 3.9978e-05
13810.0 3.9485e-05
13830.0 3.9036e-05
13850.0 3.8609e-05
13870.0 3.8212e-05
13890.0 3.7863e-05
13910.0 3.7551e-05
13930.0 3.7261e-05
13950.0 3.7002e-05
13970.0 3.6774e-05
13990.0 3.6556e-05
14010.0 3.6345e-05
14030.0 3.6142e-05
14050.0 3.5937e-05
14070.0 3.5716e-05
14090.0 3.5485e-05
14110.0 3.5243e-05
14130.0 3.4977e-05
14150.0 3.4685e-05
14170.0 3.4385e-05
14190.0 3.407e-05
14210.0 3.373e-05
14230.0 3.3386e-05
14250.0 3.3048e-05
14270.0 3.2702e-05
14290.0 3.236e-05
14310.0 3.2052e-05
14330.0 3.1764e-05
14350.0 3.1498e-05
14370.0 3.127e-05
14390.0 3.1084e-05
14410.0 3.0925e-05
14430.0 3.0803e-05
14450.0 3.0718e-05
14470.0 3.0663e-05
14490.0 3.0632e-05
14510.0 3.0627e-05
14530.0 3.0641e-05
14550.0 3.0673e-05
14570.0 3.0723e-05
14590.0 3.0789e-05
14610.0 3.0875e-05
14630.0 3.0988e-05
14650.0 3.1127e-05
14670.0 3.1294e-05
14690.0 3.1503e-05
14710.0 3.1758e-05
14730.0 3.2042e-05
14750.0 3.2376e-05
14770.0 3.2768e-05
14790.0 3.3202e-05
14810.0 3.3677e-05
14830.0 3.4238e-05
14850.0 3.4851e-05
14870.0 3.5498e-05
14890.0 3.6206e-05
14910.0 3.6973e-05
14930.0 3.7734e-05
14950.0 3.8472e-05
14970.0 3.92e-05
14990.0 3.9848e-05
15010.0 4.0388e-05
15030.0 4.0835e-05
15050.0 4.1191e-05
15070.0 4.1445e-05
15090.0 4.1637e-05
15110.0 4.1789e-05
15130.0 4.1912e-05
15150.0 4.2021e-05
15170.0 4.2125e-05
15190.0 4.2226e-05
15210.0 4.2328e-05
15230.0 4.2432e-05
15250.0 4.2537e-05
15270.0 4.2644e-05
15290.0 4.2754e-05
15310.0 4.2866e-05
15330.0 4.2979e-05
15350.0 4.3095e-05
15370.0 4.3212e-05
15390.0 4.3331e-05
15410.0 4.3452e-05
15430.0 4.3575e-05
15450.0 4.37e-05
15470.0 4.3826e-05
15490.0 4.3954e-05
15510.0 4.4084e-05
15530.0 4.4215e-05
15550.0 4.4348e-05
15570.0 4.4482e-05
15590.0 4.4618e-05
15610.0 4.4754e-05
15630.0 4.4893e-05
15650.0 4.5033e-05
15670.0 4.5174e-05
15690.0 4.5316e-05
15710.0 4.546e-05
15730.0 4.5604e-05
15750.0 4.575e-05
15770.0 4.5897e-05
15790.0 4.6044e-05
15810.0 4.6193e-05
15830.0 4.6342e-05
15850.0 4.6493e-05
15870.0 4.6644e-05
15890.0 4.6795e-05
15910.0 4.6948e-05
15930.0 4.7101e-05
15950.0 4.7254e-05
15970.0 4.7408e-05
15990.0 4.7563e-05
16010.0 4.7718e-05
16030.0 4.7873e-05
16050.0 4.8029e-05
16070.0 4.8185e-05
16090.0 4.834e-05
16110.0 4.8496e-05
16130.0 4.8653e-05
16150.0 4.8808e-05
16170.0 4.8964e-05
16190.0 4.912e-05
16210.0 4.9275e-05
16230.0 4.943e-05
16250.0 4.9585e-05
16270.0 4.974e-05
16290.0 4.9894e-05
16310.0 5.0047e-05
16330.0 5.02e-05
16350.0 5.0352e-05
16370.0 5.0503e-05
16390.0 5.0654e-05
16410.0 5.0803e-05
16430.0 5.0952e-05
16450.0 5.11e-05
16470.0 5.1247e-05
16490.0 5.1392e-05
16510.0 5.1536e-05
16530.0 5.1679e-05
16550.0 5.1821e-05
16570.0 5.1961e-05
16590.0 5.2099e-05
16610.0 5.2237e-05
16630.0 5.2373e-05
16650.0 5.2506e-05
16670.0 5.2639e-05
16690.0 5.2769e-05
16710.0 5.2897e-05
16730.0 5.3024e-05
16750.0 5.3148e-05
16770.0 5.3271e-05
16790.0 5.3391e-05
16810.0 5.3509e-05
16830.0 5.3625e-05
16850.0 5.3738e-05
16870.0 5.3849e-05
16890.0 5.3958e-05
16910.0 5.4064e-05
16930.0 5.4167e-05
16950.0 5.4268e-05
16970.0 5.4367e-05
16990.0 5.4462e-05
17010.0 5.4555e-05
17030.0 5.4645e-05
17050.0 5.4731e-05
17070.0 5.4815e-05
17090.0 5.4896e-05
17110.0 5.4974e-05
17130.0 5.5048e-05
17150.0 5.512e-05
17170.0 5.5189e-05
17190.0 5.5254e-05
17210.0 5.5315e-05
17230.0 5.5374e-05
17250.0 5.5429e-05
17270.0 5.5481e-05
17290.0 5.5529e-05
17310.0 5.5574e-05
17330.0 5.5615e-05
17350.0 5.5652e-05
17370.0 5.5686e-05
17390.0 5.5717e-05
17410.0 5.5743e-05
17430.0 5.5767e-05
17450.0 5.5786e-05
17470.0 5.5801e-05
17490.0 5.5813e-05
17510.0 5.5821e-05
17530.0 5.5826e-05
17550.0 5.5826e-05
17570.0 5.5823e-05
17590.0 5.5816e-05
17610.0 5.5805e-05
17630.0 5.579e-05
17650.0 5.5771e-05
17670.0 5.5749e-05
17690.0 5.5722e-05
17710.0 5.5692e-05
17730.0 5.5658e-05
17750.0 5.5619e-05
17770.0 5.5578e-05
17790.0 5.5532e-05
17810.0 5.5482e-05
17830.0 5.5429e-05
17850.0 5.5372e-05
17870.0 5.5311e-05
17890.0 5.5245e-05
17910.0 5.5176e-05
17930.0 5.5104e-05
17950.0 5.5028e-05
17970.0 5.4948e-05
17990.0 5.4864e-05
18010.0 5.4777e-05
18030.0 5.4686e-05
18050.0 5.4591e-05
18070.0 5.4493e-05
18090.0 5.4391e-05
18110.0 5.4285e-05
18130.0 5.4177e-05
18150.0 5.4065e-05
18170.0 5.3949e-05
18190.0 5.3829e-05
18210.0 5.3707e-05
18230.0 5.3581e-05
18250.0 5.3451e-05
18270.0 5.3319e-05
18290.0 5.3184e-05
18310.0 5.3045e-05
18330.0 5.2903e-05
18350.0 5.2759e-05
18370.0 5.261e-05
18390.0 5.2459e-05
18410.0 5.2306e-05
18430.0 5.2149e-05
18450.0 5.1989e-05
18470.0 5.1827e-05
18490.0 5.1663e-05
18510.0 5.1495e-05
18530.0 5.1325e-05
18550.0 5.1152e-05
18570.0 5.0977e-05
18590.0 5.0799e-05
18610.0 5.0619e-05
18630.0 5.0437e-05
18650.0 5.0253e-05
18670.0 5.0066e-05
18690.0 4.9877e-05
18710.0 4.9686e-05
18730.0 4.9493e-05
18750.0 4.9298e-05
18770.0 4.9102e-05
18790.0 4.8903e-05
18810.0 4.8702e-05
18830.0 4.85e-05
18850.0 4.8296e-05
18870.0 4.8091e-05
18890.0 4.7884e-05
18910.0 4.7676e-05
18930.0 4.7466e-05
18950.0 4.7254e-05
18970.0 4.7042e-05
18990.0 4.6828e-05
19010.0 4.6613e-05
19030.0 4.6397e-05
19050.0 4.618e-05
19070.0 4.5961e-05
19090.0 4.5742e-05
19110.0 4.5523e-05
19130.0 4.5301e-05
19150.0 4.5079e-05
19170.0 4.4857e-05
19190.0 4.4634e-05
19210.0 4.441e-05
19230.0 4.4186e-05
19250.0 4.3961e-05
19270.0 4.3736e-05
19290.0 4.351e-05
19310.0 4.3284e-05
19330.0 4.3058e-05
19350.0 4.2831e-05
19370.0 4.2604e-05
19390.0 4.2377e-05
19410.0 4.215e-05
19430.0 4.1922e-05
19450.0 4.1696e-05
19470.0 4.1468e-05
19490.0 4.1241e-05
19510.0 4.1014e-05
19530.0 4.0787e-05
19550.0 4.0561e-05
19570.0 4.0334e-05
19590.0 4.0108e-05
19610.0 3.9882e-05
19630.0 3.9657e-05
19650.0 3.9432e-05
19670.0 3.9207e-05
19690.0 3.8983e-05
19710.0 3.8759e-05
19730.0 3.8536e-05
19750.0 3.8314e-05
19770.0 3.8092e-05
19790.0 3.787e-05
19810.0 3.765e-05
19830.0 3.7429e-05
19850.0 3.7207e-05
19870.0 3.6983e-05
19890.0 3.6751e-05
19910.0 3.6506e-05
19930.0 3.624e-05
19950.0 3.5943e-05
19970.0 3.5596e-05
19990.0 3.519e-05
20010.0 3.4733e-05
20030.0 3.4203e-05
20050.0 3.3606e-05
20070.0 3.2972e-05
20090.0 3.2309e-05
20110.0 3.1594e-05
20130.0 3.0888e-05
20150.0 3.0201e-05
20170.0 2.9512e-05
20190.0 2.883e-05
20210.0 2.8189e-05
20230.0 2.757e-05
20250.0 2.6956e-05
20270.0 2.6379e-05
20290.0 2.5838e-05
20310.0 2.5312e-05
20330.0 2.4803e-05
20350.0 2.4343e-05
20370.0 2.3905e-05
20390.0 2.3482e-05
20410.0 2.309e-05
20430.0 2.273e-05
20450.0 2.2379e-05
20470.0 2.2053e-05
20490.0 2.1755e-05
20510.0 2.1476e-05
20530.0 2.1212e-05
20550.0 2.0971e-05
20570.0 2.0753e-05
20590.0 2.0547e-05
20610.0 2.0358e-05
20630.0 2.0186e-05
20650.0 2.0027e-05
20670.0 1.9879e-05
20690.0 1.9744e-05
20710.0 1.9619e-05
20730.0 1.9502e-05
20750.0 1.9392e-05
20770.0 1.9287e-05
20790.0 1.9186e-05
20810.0 1.9087e-05
20830.0 1.8989e-05
20850.0 1.8891e-05
20870.0 1.8792e-05
20890.0 1.869e-05
20910.0 1.8584e-05
20930.0 1.8474e-05
20950.0 1.8358e-05
20970.0 1.8238e-05
20990.0 1.8112e-05
21010.0 1.7979e-05
21030.0 1.7839e-05
21050.0 1.7695e-05
21070.0 1.7544e-05
21090.0 1.7384e-05
21110.0 1.7223e-05
21130.0 1.7058e-05
21150.0 1.6885e-05
21170.0 1.6709e-05
21190.0 1.6534e-05
21210.0 1.6353e-05
21230.0 1.6168e-05
21250.0 1.5985e-05
21270.0 1.5803e-05
21290.0 1.5617e-05
21310.0 1.5432e-05
21330.0 1.5254e-05
21350.0 1.5075e-05
21370.0 1.4897e-05
21390.0 1.4726e-05
21410.0 1.4561e-05
21430.0 1.4395e-05
21450.0 1.4238e-05
21470.0 1.4091e-05
21490.0 1.3949e-05
21510.0 1.3815e-05
21530.0 1.3691e-05
21550.0 1.3576e-05
21570.0 1.3469e-05
21590.0 1.3372e-05
21610.0 1.3285e-05
21630.0 1.3208e-05
21650.0 1.3139e-05
21670.0 1.308e-05
21690.0 1.3029e-05
21710.0 1.2986e-05
21730.0 1.295e-05
21750.0 1.292e-05
21770.0 1.2896e-05
21790.0 1.2878e-05
21810.0 1.2861e-05
21830.0 1.2847e-05
21850.0 1.2837e-05
21870.0 1.2826e-05
21890.0 1.2813e-05
21910.0 1.2801e-05
21930.0 1.2788e-05
21950.0 1.277e-05
21970.0 1.2751e-05
21990.0 1.2729e-05
22010.0 1.2703e-05
22030.0 1.2672e-05
22050.0 1.2638e-05
22070.0 1.26e-05
22090.0 1.2559e-05
22110.0 1.2514e-05
22130.0 1.2466e-05
22150.0 1.2415e-05
22170.0 1.2362e-05
22190.0 1.2306e-05
22210.0 1.2248e-05
22230.0 1.2188e-05
22250.0 1.2126e-05
22270.0 1.2061e-05
22290.0 1.1995e-05
22310.0 1.1926e-05
22330.0 1.1854e-05
22350.0 1.1778e-05
22370.0 1.1698e-05
22390.0 1.1614e-05
22410.0 1.1522e-05
22430.0 1.1427e-05
22450.0 1.1327e-05
22470.0 1.1217e-05
22490.0 1.11e-05
22510.0 1.098e-05
22530.0 1.0849e-05
22550.0 1.0709e-05
22570.0 1.0567e-05
22590.0 1.042e-05
22610.0 1.0264e-05
