#lamb flux
1010.0 3.9627e-10
1030.0 4.3828e-10
1050.0 4.866e-10
1070.0 5.4099e-10
1090.0 6.0277e-10
1110.0 6.6613e-10
1130.0 7.2991e-10
1150.0 7.9671e-10
1170.0 8.6562e-10
1190.0 9.3097e-10
1210.0 9.9719e-10
1230.0 1.0656e-09
1250.0 1.1327e-09
1270.0 1.1978e-09
1290.0 1.2666e-09
1310.0 1.3354e-09
1330.0 1.4013e-09
1350.0 1.468e-09
1370.0 1.5368e-09
1390.0 1.6039e-09
1410.0 1.6691e-09
1430.0 1.7371e-09
1450.0 1.8052e-09
1470.0 1.871e-09
1490.0 1.9376e-09
1510.0 2.0078e-09
1530.0 2.0744e-09
1550.0 2.1401e-09
1570.0 2.2081e-09
1590.0 2.2762e-09
1610.0 2.3412e-09
1630.0 2.4083e-09
1650.0 2.4772e-09
1670.0 2.5439e-09
1690.0 2.6097e-09
1710.0 2.6782e-09
1730.0 2.7471e-09
1750.0 2.8119e-09
1770.0 2.8787e-09
1790.0 2.9469e-09
1810.0 3.0131e-09
1830.0 3.0781e-09
1850.0 3.1473e-09
1870.0 3.2148e-09
1890.0 3.2801e-09
1910.0 3.3469e-09
1930.0 3.4154e-09
1950.0 3.481e-09
1970.0 3.5459e-09
1990.0 3.6134e-09
2010.0 3.6799e-09
2030.0 3.7442e-09
2050.0 3.8107e-09
2070.0 3.8789e-09
2090.0 3.9434e-09
2110.0 4.0079e-09
2130.0 4.0745e-09
2150.0 4.1399e-09
2170.0 4.2026e-09
2190.0 4.2678e-09
2210.0 4.3335e-09
2230.0 4.3967e-09
2250.0 4.4597e-09
2270.0 4.5256e-09
2290.0 4.5895e-09
2310.0 4.6509e-09
2330.0 4.7149e-09
2350.0 4.7805e-09
2370.0 4.8459e-09
2390.0 4.9167e-09
2410.0 5.0006e-09
2430.0 5.0971e-09
2450.0 5.2125e-09
2470.0 5.3603e-09
2490.0 5.5466e-09
2510.0 5.7583e-09
2530.0 6.0132e-09
2550.0 6.3322e-09
2570.0 6.7291e-09
2590.0 7.2454e-09
2610.0 8.0183e-09
2630.0 9.1219e-09
2650.0 1.0565e-08
2670.0 1.2431e-08
2690.0 1.4723e-08
2710.0 1.717e-08
2730.0 1.9589e-08
2750.0 2.197e-08
2770.0 2.4042e-08
2790.0 2.5687e-08
2810.0 2.6993e-08
2830.0 2.8013e-08
2850.0 2.8709e-08
2870.0 2.922e-08
2890.0 2.9625e-08
2910.0 2.9948e-08
2930.0 3.0212e-08
2950.0 3.0464e-08
2970.0 3.071e-08
2990.0 3.0941e-08
3010.0 8.7456e-07
3030.0 8.811e-07
3050.0 8.8742e-07
3070.0 8.9283e-07
3090.0 8.9749e-07
3110.0 9.0038e-07
3130.0 9.0026e-07
3150.0 8.9626e-07
3170.0 8.8666e-07
3190.0 8.7159e-07
3210.0 8.5247e-07
3230.0 8.3059e-07
3250.0 8.0899e-07
3270.0 7.9321e-07
3290.0 7.8444e-07
3310.0 7.8586e-07
3330.0 7.9723e-07
3350.0 8.1704e-07
3370.0 8.4532e-07
3390.0 8.8096e-07
3410.0 9.1975e-07
3430.0 9.6329e-07
3450.0 1.0134e-06
3470.0 1.0682e-06
3490.0 1.1262e-06
3510.0 1.1918e-06
3530.0 1.262e-06
3550.0 1.3331e-06
3570.0 1.4072e-06
3590.0 1.4879e-06
3610.0 1.571e-06
3630.0 1.6538e-06
3650.0 1.7398e-06
3670.0 1.8183e-06
3690.0 1.8769e-06
3710.0 1.9106e-06
3730.0 1.9117e-06
3750.0 1.8851e-06
3770.0 1.8746e-06
3790.0 1.8635e-06
3810.0 1.8177e-06
3830.0 1.8739e-06
3850.0 2.0953e-06
3870.0 2.2168e-06
3890.0 2.2067e-06
3910.0 2.2161e-06
3930.0 2.2744e-06
3950.0 2.3103e-06
3970.0 2.1049e-06
3990.0 1.8112e-06
4010.0 5.4284e-06
4030.0 6.5773e-06
4050.0 7.5404e-06
4070.0 6.5425e-06
4090.0 5.9256e-06
4110.0 5.2287e-06
4130.0 4.8125e-06
4150.0 5.1191e-06
4170.0 5.0425e-06
4190.0 5.375e-06
4210.0 5.3258e-06
4230.0 5.6333e-06
4250.0 6.6643e-06
4270.0 6.7426e-06
4290.0 6.2133e-06
4310.0 6.456e-06
4330.0 6.8673e-06
4350.0 7.6999e-06
4370.0 8.7626e-06
4390.0 8.2228e-06
4410.0 6.0752e-06
4430.0 5.143e-06
4450.0 4.7259e-06
4470.0 3.6273e-06
4490.0 3.9143e-06
4510.0 5.9126e-06
4530.0 6.819e-06
4550.0 6.8781e-06
4570.0 7.7397e-06
4590.0 8.8162e-06
4610.0 1.1891e-05
4630.0 1.5444e-05
4650.0 1.6749e-05
4670.0 1.5511e-05
4690.0 1.48e-05
4710.0 1.5645e-05
4730.0 1.4764e-05
4750.0 1.1038e-05
4770.0 8.0969e-06
4790.0 7.5609e-06
4810.0 7.2068e-06
4830.0 6.5977e-06
4850.0 7.2399e-06
4870.0 9.5646e-06
4890.0 1.1279e-05
4910.0 9.8962e-06
4930.0 8.7567e-06
4950.0 9.6206e-06
4970.0 1.2338e-05
4990.0 1.6721e-05
5010.0 1.9235e-05
5030.0 1.6961e-05
5050.0 1.1475e-05
5070.0 7.5625e-06
5090.0 6.098e-06
5110.0 6.2713e-06
5130.0 7.238e-06
5150.0 7.8418e-06
5170.0 7.7242e-06
5190.0 7.2177e-06
5210.0 7.5442e-06
5230.0 7.9307e-06
5250.0 8.5471e-06
5270.0 9.2217e-06
5290.0 1.022e-05
5310.0 1.1895e-05
5330.0 1.3164e-05
5350.0 1.308e-05
5370.0 1.3739e-05
5390.0 1.5766e-05
5410.0 1.5752e-05
5430.0 1.393e-05
5450.0 1.2799e-05
5470.0 1.359e-05
5490.0 1.6603e-05
5510.0 2.076e-05
5530.0 2.3811e-05
5550.0 2.3013e-05
5570.0 2.0921e-05
5590.0 1.8191e-05
5610.0 1.6776e-05
5630.0 1.6268e-05
5650.0 1.5494e-05
5670.0 1.4681e-05
5690.0 1.3125e-05
5710.0 1.2797e-05
5730.0 1.1788e-05
5750.0 8.3114e-06
5770.0 6.4843e-06
5790.0 7.3482e-06
5810.0 8.2974e-06
5830.0 1.0182e-05
5850.0 1.2121e-05
5870.0 1.3448e-05
5890.0 1.3676e-05
5910.0 1.3417e-05
5930.0 1.2772e-05
5950.0 1.3014e-05
5970.0 1.4835e-05
5990.0 1.3949e-05
6010.0 1.1693e-05
6030.0 9.8789e-06
6050.0 8.6033e-06
6070.0 8.5562e-06
6090.0 9.2778e-06
6110.0 1.0374e-05
6130.0 1.0533e-05
6150.0 9.0627e-06
6170.0 7.9724e-06
6190.0 8.9718e-06
6210.0 1.1861e-05
6230.0 1.5564e-05
6250.0 1.6858e-05
6270.0 1.4732e-05
6290.0 1.2395e-05
6310.0 9.6763e-06
6330.0 7.4139e-06
6350.0 6.613e-06
6370.0 6.9543e-06
6390.0 8.0395e-06
6410.0 9.9131e-06
6430.0 1.1576e-05
6450.0 1.3246e-05
6470.0 1.5167e-05
6490.0 1.832e-05
6510.0 2.0484e-05
6530.0 2.0096e-05
6550.0 1.8173e-05
6570.0 1.5427e-05
6590.0 1.3911e-05
6610.0 1.1995e-05
6630.0 1.0867e-05
6650.0 1.0272e-05
6670.0 9.9792e-06
6690.0 9.0168e-06
6710.0 8.1964e-06
6730.0 5.9037e-06
6750.0 5.8529e-06
6770.0 6.3617e-06
6790.0 7.3123e-06
6810.0 6.6909e-06
6830.0 6.8898e-06
6850.0 6.4442e-06
6870.0 5.8868e-06
6890.0 5.6522e-06
6910.0 6.0231e-06
6930.0 5.6415e-06
6950.0 5.8042e-06
6970.0 6.1049e-06
6990.0 6.9296e-06
7010.0 6.9886e-06
7030.0 7.0996e-06
7050.0 6.7706e-06
7070.0 6.4512e-06
7090.0 6.4701e-06
7110.0 6.6572e-06
7130.0 7.1642e-06
7150.0 7.609e-06
7170.0 8.396e-06
7190.0 9.2295e-06
7210.0 9.0692e-06
7230.0 9.3233e-06
7250.0 1.0019e-05
7270.0 1.0919e-05
7290.0 1.2959e-05
7310.0 1.4062e-05
7330.0 1.3592e-05
7350.0 1.2293e-05
7370.0 1.0696e-05
7390.0 1.0377e-05
7410.0 1.1027e-05
7430.0 1.2256e-05
7450.0 1.3348e-05
7470.0 1.3226e-05
7490.0 1.2059e-05
7510.0 1.366e-05
7530.0 1.3511e-05
7550.0 1.2144e-05
7570.0 9.4865e-06
7590.0 6.5216e-06
7610.0 5.5975e-06
7630.0 6.3598e-06
7650.0 7.5197e-06
7670.0 9.3588e-06
7690.0 1.0299e-05
7710.0 1.0732e-05
7730.0 1.1278e-05
7750.0 1.2661e-05
7770.0 1.286e-05
7790.0 1.1813e-05
7810.0 1.0778e-05
7830.0 1.1115e-05
7850.0 1.0805e-05
7870.0 9.9062e-06
7890.0 8.3231e-06
7910.0 6.7655e-06
7930.0 6.4601e-06
7950.0 5.8853e-06
7970.0 5.4479e-06
7990.0 5.4168e-06
8010.0 4.0118e-07
8030.0 3.9597e-07
8050.0 3.9063e-07
8070.0 3.9574e-07
8090.0 4.2522e-07
8110.0 4.1797e-07
8130.0 3.4477e-07
8150.0 3.3577e-07
8170.0 2.8922e-07
8190.0 2.7409e-07
8210.0 3.5594e-07
8230.0 3.9629e-07
8250.0 3.5717e-07
8270.0 3.1087e-07
8290.0 3.0304e-07
8310.0 2.3323e-07
8330.0 1.572e-07
8350.0 1.1156e-07
8370.0 7.0289e-08
8390.0 1.2849e-07
8410.0 1.4972e-07
8430.0 1.8455e-07
8450.0 2.1672e-07
8470.0 2.6937e-07
8490.0 2.6747e-07
8510.0 2.6309e-07
8530.0 2.7457e-07
8550.0 3.7045e-07
8570.0 4.3856e-07
8590.0 4.7321e-07
8610.0 5.9776e-07
8630.0 7.2009e-07
8650.0 7.5329e-07
8670.0 8.0052e-07
8690.0 8.05e-07
8710.0 7.2904e-07
8730.0 6.7812e-07
8750.0 5.9857e-07
8770.0 5.6795e-07
8790.0 5.5798e-07
8810.0 5.3467e-07
8830.0 4.2755e-07
8850.0 3.13e-07
8870.0 2.3966e-07
8890.0 2.343e-07
8910.0 2.6852e-07
8930.0 3.0542e-07
8950.0 3.1127e-07
8970.0 3.1274e-07
8990.0 2.7892e-07
9010.0 2.923e-06
9030.0 2.6486e-06
9050.0 2.6614e-06
9070.0 2.6824e-06
9090.0 2.7008e-06
9110.0 2.7235e-06
9130.0 2.7411e-06
9150.0 2.7548e-06
9170.0 2.7693e-06
9190.0 2.7848e-06
9210.0 2.8012e-06
9230.0 2.8185e-06
9250.0 2.836e-06
9270.0 2.8542e-06
9290.0 2.8729e-06
9310.0 2.8918e-06
9330.0 2.911e-06
9350.0 2.931e-06
9370.0 2.9512e-06
9390.0 2.9716e-06
9410.0 2.9925e-06
9430.0 3.0141e-06
9450.0 3.0357e-06
9470.0 3.0576e-06
9490.0 3.0803e-06
9510.0 3.1031e-06
9530.0 3.1261e-06
9550.0 3.1499e-06
9570.0 3.1741e-06
9590.0 3.1984e-06
9610.0 3.2231e-06
9630.0 3.2484e-06
9650.0 3.274e-06
9670.0 3.2996e-06
9690.0 3.3259e-06
9710.0 3.3526e-06
9730.0 3.3794e-06
9750.0 3.4065e-06
9770.0 3.4345e-06
9790.0 3.4624e-06
9810.0 3.4905e-06
9830.0 3.5191e-06
9850.0 3.5482e-06
9870.0 3.5771e-06
9890.0 3.6065e-06
9910.0 3.6364e-06
9930.0 3.6663e-06
9950.0 3.6964e-06
9970.0 3.7271e-06
9990.0 3.758e-06
10010.0 3.261e-06
10030.0 3.2878e-06
10050.0 3.3151e-06
10070.0 3.3433e-06
10090.0 3.37e-06
10110.0 3.3972e-06
10130.0 3.4247e-06
10150.0 3.452e-06
10170.0 3.4796e-06
10190.0 3.5077e-06
10210.0 3.5355e-06
10230.0 3.5632e-06
10250.0 3.5914e-06
10270.0 3.6195e-06
10290.0 3.6473e-06
10310.0 3.6754e-06
10330.0 3.7038e-06
10350.0 3.7317e-06
10370.0 3.7596e-06
10390.0 3.7877e-06
10410.0 3.8158e-06
10430.0 3.8432e-06
10450.0 3.871e-06
10470.0 3.8988e-06
10490.0 3.9262e-06
10510.0 3.9533e-06
10530.0 3.9809e-06
10550.0 4.0081e-06
10570.0 4.0347e-06
10590.0 4.0614e-06
10610.0 4.0881e-06
10630.0 4.1142e-06
10650.0 4.14e-06
10670.0 4.1661e-06
10690.0 4.1917e-06
10710.0 4.2167e-06
10730.0 4.2418e-06
10750.0 4.267e-06
10770.0 4.2911e-06
10790.0 4.315e-06
10810.0 4.3389e-06
10830.0 4.362e-06
10850.0 4.384e-06
10870.0 4.4053e-06
10890.0 4.424e-06
10910.0 4.4385e-06
10930.0 4.4466e-06
10950.0 4.4447e-06
10970.0 4.4296e-06
10990.0 4.4001e-06
11010.0 4.3507e-06
11030.0 4.2815e-06
11050.0 4.1971e-06
11070.0 4.0963e-06
11090.0 3.9751e-06
11110.0 3.8497e-06
11130.0 3.7189e-06
11150.0 3.5781e-06
11170.0 3.433e-06
11190.0 3.2922e-06
11210.0 3.1469e-06
11230.0 2.9978e-06
11250.0 2.8553e-06
11270.0 2.7185e-06
11290.0 2.5815e-06
11310.0 2.4517e-06
11330.0 2.3373e-06
11350.0 2.2293e-06
11370.0 2.1295e-06
11390.0 2.0431e-06
11410.0 1.9676e-06
11430.0 1.8974e-06
11450.0 1.8369e-06
11470.0 1.7846e-06
11490.0 1.736e-06
11510.0 1.6891e-06
11530.0 1.6456e-06
11550.0 1.6024e-06
11570.0 1.5562e-06
11590.0 1.5085e-06
11610.0 1.4599e-06
11630.0 1.407e-06
11650.0 1.3503e-06
11670.0 1.2945e-06
11690.0 1.2379e-06
11710.0 1.1795e-06
11730.0 1.1229e-06
11750.0 1.0706e-06
11770.0 1.0192e-06
11790.0 9.7108e-07
11810.0 9.2871e-07
11830.0 8.9082e-07
11850.0 8.5591e-07
11870.0 8.2672e-07
11890.0 8.0245e-07
11910.0 7.8112e-07
11930.0 7.6279e-07
11950.0 7.4752e-07
11970.0 7.3389e-07
11990.0 7.2099e-07
12010.0 7.0907e-07
12030.0 6.9758e-07
12050.0 6.8569e-07
12070.0 6.7334e-07
12090.0 6.6142e-07
12110.0 6.4933e-07
12130.0 6.3721e-07
12150.0 6.2604e-07
12170.0 6.1628e-07
12190.0 6.0785e-07
12210.0 6.0196e-07
12230.0 5.9912e-07
12250.0 5.9958e-07
12270.0 6.041e-07
12290.0 6.1265e-07
12310.0 6.249e-07
12330.0 6.4206e-07
12350.0 6.6346e-07
12370.0 6.8784e-07
12390.0 7.1594e-07
12410.0 7.4886e-07
12430.0 7.8233e-07
12450.0 8.1698e-07
12470.0 8.5383e-07
12490.0 8.9084e-07
12510.0 9.2556e-07
12530.0 9.6011e-07
12550.0 9.9343e-07
12570.0 1.0228e-06
12590.0 1.0487e-06
12610.0 1.0717e-06
12630.0 1.09e-06
12650.0 1.1027e-06
12670.0 1.111e-06
12690.0 1.1143e-06
12710.0 1.1125e-06
12730.0 1.106e-06
12750.0 1.0945e-06
12770.0 1.0788e-06
12790.0 1.0596e-06
12810.0 1.0367e-06
12830.0 1.0103e-06
12850.0 9.8263e-07
12870.0 9.5338e-07
12890.0 9.2173e-07
12910.0 8.8956e-07
12930.0 8.5785e-07
12950.0 8.2476e-07
12970.0 7.9108e-07
12990.0 7.5921e-07
13010.0 7.2774e-07
13030.0 6.9592e-07
13050.0 6.6536e-07
13070.0 6.3673e-07
13090.0 6.08e-07
13110.0 5.802e-07
13130.0 5.5458e-07
13150.0 5.3031e-07
13170.0 5.0655e-07
13190.0 4.854e-07
13210.0 4.6679e-07
13230.0 4.4978e-07
13250.0 4.3513e-07
13270.0 4.2357e-07
13290.0 4.1458e-07
13310.0 4.0839e-07
13330.0 4.0558e-07
13350.0 4.059e-07
13370.0 4.0954e-07
13390.0 4.1669e-07
13410.0 4.2636e-07
13430.0 4.3892e-07
13450.0 4.5444e-07
13470.0 4.7167e-07
13490.0 4.8992e-07
13510.0 5.105e-07
13530.0 5.3136e-07
13550.0 5.5133e-07
13570.0 5.7102e-07
13590.0 5.9021e-07
13610.0 6.0728e-07
13630.0 6.2218e-07
13650.0 6.3579e-07
13670.0 6.4708e-07
13690.0 6.5582e-07
13710.0 6.6257e-07
13730.0 6.674e-07
13750.0 6.6981e-07
13770.0 6.7036e-07
13790.0 6.6914e-07
13810.0 6.6618e-07
13830.0 6.6182e-07
13850.0 6.5591e-07
13870.0 6.4845e-07
13890.0 6.3992e-07
13910.0 6.3031e-07
13930.0 6.1918e-07
13950.0 6.0704e-07
13970.0 5.9462e-07
13990.0 5.8109e-07
14010.0 5.6671e-07
14030.0 5.5236e-07
14050.0 5.379e-07
14070.0 5.2264e-07
14090.0 5.0801e-07
14110.0 4.9426e-07
14130.0 4.8094e-07
14150.0 4.684e-07
14170.0 4.577e-07
14190.0 4.4844e-07
14210.0 4.4059e-07
14230.0 4.3478e-07
14250.0 4.3102e-07
14270.0 4.292e-07
14290.0 4.2958e-07
14310.0 4.3198e-07
14330.0 4.3628e-07
14350.0 4.4261e-07
14370.0 4.5049e-07
14390.0 4.5944e-07
14410.0 4.6999e-07
14430.0 4.8157e-07
14450.0 4.9339e-07
14470.0 5.0566e-07
14490.0 5.1871e-07
14510.0 5.3118e-07
14530.0 5.4303e-07
14550.0 5.5488e-07
14570.0 5.6625e-07
14590.0 5.766e-07
14610.0 5.8661e-07
14630.0 5.9652e-07
14650.0 6.0575e-07
14670.0 6.1466e-07
14690.0 6.2395e-07
14710.0 6.3372e-07
14730.0 6.4349e-07
14750.0 6.5431e-07
14770.0 6.6659e-07
14790.0 6.799e-07
14810.0 6.9432e-07
14830.0 7.114e-07
14850.0 7.2997e-07
14870.0 7.4935e-07
14890.0 7.7025e-07
14910.0 7.9245e-07
14930.0 8.138e-07
14950.0 8.3374e-07
14970.0 8.5262e-07
14990.0 8.6846e-07
15010.0 8.8057e-07
15030.0 8.8954e-07
15050.0 8.9547e-07
15070.0 8.9837e-07
15090.0 8.9938e-07
15110.0 8.9909e-07
15130.0 8.9796e-07
15150.0 8.9644e-07
15170.0 8.9464e-07
15190.0 8.9272e-07
15210.0 8.9082e-07
15230.0 8.8893e-07
15250.0 8.8696e-07
15270.0 8.8502e-07
15290.0 8.8319e-07
15310.0 8.813e-07
15330.0 8.7939e-07
15350.0 8.7756e-07
15370.0 8.7574e-07
15390.0 8.7383e-07
15410.0 8.7198e-07
15430.0 8.7019e-07
15450.0 8.6836e-07
15470.0 8.665e-07
15490.0 8.6474e-07
15510.0 8.6297e-07
15530.0 8.6115e-07
15550.0 8.5937e-07
15570.0 8.5764e-07
15590.0 8.5585e-07
15610.0 8.5403e-07
15630.0 8.5231e-07
15650.0 8.5059e-07
15670.0 8.488e-07
15690.0 8.4707e-07
15710.0 8.454e-07
15730.0 8.4364e-07
15750.0 8.4189e-07
15770.0 8.4021e-07
15790.0 8.3852e-07
15810.0 8.3674e-07
15830.0 8.3503e-07
15850.0 8.3338e-07
15870.0 8.3167e-07
15890.0 8.2995e-07
15910.0 8.2831e-07
15930.0 8.2663e-07
15950.0 8.2489e-07
15970.0 8.2321e-07
15990.0 8.2157e-07
16010.0 8.1986e-07
16030.0 8.1813e-07
16050.0 8.1652e-07
16070.0 8.1485e-07
16090.0 8.1314e-07
16110.0 8.1149e-07
16130.0 8.0987e-07
16150.0 8.0813e-07
16170.0 8.0644e-07
16190.0 8.0481e-07
16210.0 8.0314e-07
16230.0 8.0142e-07
16250.0 7.9977e-07
16270.0 7.9815e-07
16290.0 7.9644e-07
16310.0 7.9476e-07
16330.0 7.9313e-07
16350.0 7.9145e-07
16370.0 7.8969e-07
16390.0 7.8805e-07
16410.0 7.8641e-07
16430.0 7.8469e-07
16450.0 7.83e-07
16470.0 7.8138e-07
16490.0 7.7967e-07
16510.0 7.7794e-07
16530.0 7.7627e-07
16550.0 7.7461e-07
16570.0 7.7286e-07
16590.0 7.7113e-07
16610.0 7.6949e-07
16630.0 7.6778e-07
16650.0 7.6604e-07
16670.0 7.6437e-07
16690.0 7.6269e-07
16710.0 7.609e-07
16730.0 7.5918e-07
16750.0 7.5749e-07
16770.0 7.5575e-07
16790.0 7.5397e-07
16810.0 7.5228e-07
16830.0 7.5057e-07
16850.0 7.4879e-07
16870.0 7.4705e-07
16890.0 7.4535e-07
16910.0 7.4356e-07
16930.0 7.4174e-07
16950.0 7.4002e-07
16970.0 7.3827e-07
16990.0 7.3646e-07
17010.0 7.3469e-07
17030.0 7.3297e-07
17050.0 7.3115e-07
17070.0 7.2933e-07
17090.0 7.2757e-07
17110.0 7.2579e-07
17130.0 7.2391e-07
17150.0 7.2211e-07
17170.0 7.2035e-07
17190.0 7.1851e-07
17210.0 7.1667e-07
17230.0 7.149e-07
17250.0 7.1307e-07
17270.0 7.1117e-07
17290.0 7.0935e-07
17310.0 7.0754e-07
17330.0 7.0565e-07
17350.0 7.0375e-07
17370.0 7.0196e-07
17390.0 7.001e-07
17410.0 6.982e-07
17430.0 6.9634e-07
17450.0 6.9452e-07
17470.0 6.9257e-07
17490.0 6.9065e-07
17510.0 6.8881e-07
17530.0 6.8691e-07
17550.0 6.8496e-07
17570.0 6.8309e-07
17590.0 6.8122e-07
17610.0 6.7927e-07
17630.0 6.7734e-07
17650.0 6.7546e-07
17670.0 6.7353e-07
17690.0 6.7151e-07
17710.0 6.6962e-07
17730.0 6.6771e-07
17750.0 6.6573e-07
17770.0 6.6377e-07
17790.0 6.6189e-07
17810.0 6.5991e-07
17830.0 6.579e-07
17850.0 6.5596e-07
17870.0 6.5402e-07
17890.0 6.5199e-07
17910.0 6.4999e-07
17930.0 6.4808e-07
17950.0 6.4608e-07
17970.0 6.4406e-07
17990.0 6.4211e-07
18010.0 6.4015e-07
18030.0 6.3808e-07
18050.0 6.3607e-07
18070.0 6.3411e-07
18090.0 6.3208e-07
18110.0 6.3002e-07
18130.0 6.2806e-07
18150.0 6.2607e-07
18170.0 6.24e-07
18190.0 6.2199e-07
18210.0 6.2001e-07
18230.0 6.1794e-07
18250.0 6.1585e-07
18270.0 6.1386e-07
18290.0 6.1184e-07
18310.0 6.0975e-07
18330.0 6.0772e-07
18350.0 6.0574e-07
18370.0 6.0365e-07
18390.0 6.0157e-07
18410.0 5.9956e-07
18430.0 5.9751e-07
18450.0 5.9538e-07
18470.0 5.9334e-07
18490.0 5.9132e-07
18510.0 5.8923e-07
18530.0 5.8715e-07
18550.0 5.8514e-07
18570.0 5.8307e-07
18590.0 5.8094e-07
18610.0 5.7888e-07
18630.0 5.7684e-07
18650.0 5.7473e-07
18670.0 5.7261e-07
18690.0 5.706e-07
18710.0 5.6852e-07
18730.0 5.6641e-07
18750.0 5.6435e-07
18770.0 5.6231e-07
18790.0 5.6015e-07
18810.0 5.5805e-07
18830.0 5.5601e-07
18850.0 5.5392e-07
18870.0 5.5178e-07
18890.0 5.4973e-07
18910.0 5.4768e-07
18930.0 5.4555e-07
18950.0 5.4345e-07
18970.0 5.414e-07
18990.0 5.393e-07
19010.0 5.3712e-07
19030.0 5.3508e-07
19050.0 5.3301e-07
19070.0 5.3089e-07
19090.0 5.2879e-07
19110.0 5.2676e-07
19130.0 5.2463e-07
19150.0 5.225e-07
19170.0 5.2043e-07
19190.0 5.1836e-07
19210.0 5.1621e-07
19230.0 5.141e-07
19250.0 5.1207e-07
19270.0 5.0996e-07
19290.0 5.0784e-07
19310.0 5.0579e-07
19330.0 5.0373e-07
19350.0 5.0155e-07
19370.0 4.9947e-07
19390.0 4.9742e-07
19410.0 4.953e-07
19430.0 4.9317e-07
19450.0 4.9113e-07
19470.0 4.8906e-07
19490.0 4.8693e-07
19510.0 4.8485e-07
19530.0 4.8281e-07
19550.0 4.8068e-07
19570.0 4.7854e-07
19590.0 4.7651e-07
19610.0 4.7444e-07
19630.0 4.7231e-07
19650.0 4.7025e-07
19670.0 4.6822e-07
19690.0 4.661e-07
19710.0 4.6399e-07
19730.0 4.6195e-07
19750.0 4.5988e-07
19770.0 4.5773e-07
19790.0 4.5568e-07
19810.0 4.5364e-07
19830.0 4.5153e-07
19850.0 4.4941e-07
19870.0 4.4733e-07
19890.0 4.451e-07
19910.0 4.4265e-07
19930.0 4.4002e-07
19950.0 4.3701e-07
19970.0 4.3332e-07
19990.0 4.2886e-07
20010.0 3.8156e-07
20030.0 3.7604e-07
20050.0 3.6957e-07
20070.0 3.6257e-07
20090.0 3.5503e-07
20110.0 3.4651e-07
20130.0 3.3789e-07
20150.0 3.2934e-07
20170.0 3.2048e-07
20190.0 3.1149e-07
20210.0 3.0299e-07
20230.0 2.9471e-07
20250.0 2.8641e-07
20270.0 2.7871e-07
20290.0 2.7168e-07
20310.0 2.6499e-07
20330.0 2.5875e-07
20350.0 2.5356e-07
20370.0 2.4896e-07
20390.0 2.4493e-07
20410.0 2.4167e-07
20430.0 2.3915e-07
20450.0 2.3716e-07
20470.0 2.3583e-07
20490.0 2.3511e-07
20510.0 2.3491e-07
20530.0 2.352e-07
20550.0 2.3592e-07
20570.0 2.3698e-07
20590.0 2.3841e-07
20610.0 2.4014e-07
20630.0 2.4205e-07
20650.0 2.4418e-07
20670.0 2.4662e-07
20690.0 2.4911e-07
20710.0 2.5168e-07
20730.0 2.5446e-07
20750.0 2.5735e-07
20770.0 2.602e-07
20790.0 2.6319e-07
20810.0 2.6635e-07
20830.0 2.695e-07
20850.0 2.7266e-07
20870.0 2.7605e-07
20890.0 2.795e-07
20910.0 2.8283e-07
20930.0 2.8628e-07
20950.0 2.8986e-07
20970.0 2.9335e-07
20990.0 2.968e-07
21010.0 3.0042e-07
21030.0 3.0396e-07
21050.0 3.0734e-07
21070.0 3.1071e-07
21090.0 3.1409e-07
21110.0 3.1718e-07
21130.0 3.2008e-07
21150.0 3.2289e-07
21170.0 3.2543e-07
21190.0 3.2762e-07
21210.0 3.2959e-07
21230.0 3.3122e-07
21250.0 3.3239e-07
21270.0 3.3313e-07
21290.0 3.334e-07
21310.0 3.3314e-07
21330.0 3.3235e-07
21350.0 3.3097e-07
21370.0 3.2895e-07
21390.0 3.2637e-07
21410.0 3.2322e-07
21430.0 3.1922e-07
21450.0 3.1474e-07
21470.0 3.0986e-07
21490.0 3.0433e-07
21510.0 2.9827e-07
21530.0 2.9212e-07
21550.0 2.8567e-07
21570.0 2.7879e-07
21590.0 2.7203e-07
21610.0 2.6549e-07
21630.0 2.5895e-07
21650.0 2.5256e-07
21670.0 2.4702e-07
21690.0 2.4191e-07
21710.0 2.3731e-07
21730.0 2.3354e-07
21750.0 2.3063e-07
21770.0 2.2841e-07
21790.0 2.2714e-07
21810.0 2.2679e-07
21830.0 2.2729e-07
21850.0 2.2871e-07
21870.0 2.3093e-07
21890.0 2.3379e-07
21910.0 2.3746e-07
21930.0 2.4176e-07
21950.0 2.4643e-07
21970.0 2.516e-07
21990.0 2.574e-07
22010.0 2.6319e-07
22030.0 2.6908e-07
22050.0 2.7526e-07
22070.0 2.8148e-07
22090.0 2.8736e-07
22110.0 2.933e-07
22130.0 2.9922e-07
22150.0 3.0476e-07
22170.0 3.0997e-07
22190.0 3.1514e-07
22210.0 3.1995e-07
22230.0 3.2419e-07
22250.0 3.2817e-07
22270.0 3.3184e-07
22290.0 3.3498e-07
22310.0 3.3767e-07
22330.0 3.4005e-07
22350.0 3.4188e-07
22370.0 3.4317e-07
22390.0 3.4398e-07
22410.0 3.4424e-07
22430.0 3.4391e-07
22450.0 3.4302e-07
22470.0 3.4149e-07
22490.0 3.3934e-07
22510.0 3.3666e-07
22530.0 3.3323e-07
22550.0 3.2906e-07
22570.0 3.2443e-07
22590.0 3.1922e-07
22610.0 3.1321e-07
