#lamb flux
1010.0 8.9957e-09
1030.0 1.2281e-08
1050.0 1.678e-08
1070.0 2.2778e-08
1090.0 3.0713e-08
1110.0 4.0498e-08
1130.0 5.218e-08
1150.0 6.6141e-08
1170.0 8.2387e-08
1190.0 1.001e-07
1210.0 1.1953e-07
1230.0 1.406e-07
1250.0 1.6228e-07
1270.0 1.8379e-07
1290.0 2.0548e-07
1310.0 2.2597e-07
1330.0 2.439e-07
1350.0 2.5929e-07
1370.0 2.7183e-07
1390.0 2.8023e-07
1410.0 2.842e-07
1430.0 2.8457e-07
1450.0 2.8082e-07
1470.0 2.7283e-07
1490.0 2.6154e-07
1510.0 2.478e-07
1530.0 2.3111e-07
1550.0 2.1258e-07
1570.0 1.9318e-07
1590.0 1.7311e-07
1610.0 1.5266e-07
1630.0 1.3265e-07
1650.0 1.1332e-07
1670.0 9.4717e-08
1690.0 7.7166e-08
1710.0 6.0878e-08
1730.0 4.5826e-08
1750.0 3.1998e-08
1770.0 1.9501e-08
1790.0 8.2653e-09
1810.0 1e-99
1830.0 1e-99
1850.0 1e-99
1870.0 1e-99
1890.0 1e-99
1910.0 1e-99
1930.0 1e-99
1950.0 1e-99
1970.0 1e-99
1990.0 1e-99
2010.0 1e-99
2030.0 1e-99
2050.0 1e-99
2070.0 1e-99
2090.0 1e-99
2110.0 1e-99
2130.0 1e-99
2150.0 1e-99
2170.0 1e-99
2190.0 1e-99
2210.0 1e-99
2230.0 1e-99
2250.0 1e-99
2270.0 1e-99
2290.0 4.443e-09
2310.0 1.0859e-08
2330.0 1.7405e-08
2350.0 2.4035e-08
2370.0 3.0676e-08
2390.0 3.7283e-08
2410.0 4.3818e-08
2430.0 5.0168e-08
2450.0 5.6244e-08
2470.0 6.197e-08
2490.0 6.7221e-08
2510.0 7.1898e-08
2530.0 7.6012e-08
2550.0 7.9667e-08
2570.0 8.3171e-08
2590.0 8.6984e-08
2610.0 9.2008e-08
2630.0 9.9303e-08
2650.0 1.0954e-07
2670.0 1.24e-07
2690.0 1.4408e-07
2710.0 1.6876e-07
2730.0 1.9687e-07
2750.0 2.2926e-07
2770.0 2.6208e-07
2790.0 2.913e-07
2810.0 3.1651e-07
2830.0 3.3731e-07
2850.0 3.4919e-07
2870.0 3.5452e-07
2890.0 3.5534e-07
2910.0 3.5155e-07
2930.0 3.4321e-07
2950.0 3.3285e-07
2970.0 3.2062e-07
2990.0 3.0573e-07
3010.0 2.8912e-07
3030.0 2.7204e-07
3050.0 2.541e-07
3070.0 2.3456e-07
3090.0 2.1522e-07
3110.0 1.9611e-07
3130.0 1.7685e-07
3150.0 1.3053e-07
3170.0 8.9197e-08
3190.0 4.2731e-08
3210.0 1e-99
3230.0 1e-99
3250.0 1e-99
3270.0 7.6964e-08
3290.0 9.5207e-08
3310.0 1e-99
3330.0 1e-99
3350.0 1e-99
3370.0 1e-99
3390.0 1e-99
3410.0 1e-99
3430.0 1e-99
3450.0 1e-99
3470.0 1e-99
3490.0 1e-99
3510.0 1e-99
3530.0 1e-99
3550.0 1e-99
3570.0 1e-99
3590.0 1e-99
3610.0 1.1077e-07
3630.0 5.4527e-07
3650.0 6.5816e-07
3670.0 4.4283e-07
3690.0 1.3733e-07
3710.0 1e-99
3730.0 1e-99
3750.0 1e-99
3770.0 1e-99
3790.0 1e-99
3810.0 9.6627e-08
3830.0 6.5227e-08
3850.0 1e-99
3870.0 1e-99
3890.0 1e-99
3910.0 9.4529e-08
3930.0 1.0234e-07
3950.0 1.5085e-07
3970.0 2.0456e-07
3990.0 1.5604e-07
4010.0 2.4294e-07
4030.0 2.2901e-07
4050.0 1.8945e-07
4070.0 1.5704e-07
4090.0 1.7813e-07
4110.0 2.3334e-07
4130.0 2.46e-07
4150.0 2.2315e-07
4170.0 2.0719e-07
4190.0 2.5349e-07
4210.0 2.1165e-07
4230.0 1.8419e-07
4250.0 1.3039e-07
4270.0 5.6558e-08
4290.0 7.6998e-08
4310.0 7.2199e-08
4330.0 6.6933e-08
4350.0 1.7843e-07
4370.0 1.7822e-07
4390.0 2.5333e-07
4410.0 2.999e-07
4430.0 3.6262e-07
4450.0 3.0059e-07
4470.0 2.1232e-07
4490.0 1.976e-07
4510.0 1.668e-07
4530.0 1.4428e-07
4550.0 1.1754e-07
4570.0 1.0977e-07
4590.0 1.1279e-07
4610.0 5.1675e-08
4630.0 1.4283e-08
4650.0 1e-99
4670.0 1e-99
4690.0 1e-99
4710.0 1e-99
4730.0 1e-99
4750.0 1e-99
4770.0 1e-99
4790.0 1e-99
4810.0 1e-99
4830.0 1e-99
4850.0 1e-99
4870.0 1e-99
4890.0 1e-99
4910.0 1e-99
4930.0 1e-99
4950.0 1e-99
4970.0 1e-99
4990.0 1e-99
5010.0 1e-99
5030.0 1e-99
5050.0 1e-99
5070.0 1e-99
5090.0 1e-99
5110.0 1e-99
5130.0 1e-99
5150.0 1e-99
5170.0 1e-99
5190.0 1e-99
5210.0 1e-99
5230.0 1e-99
5250.0 1e-99
5270.0 1e-99
5290.0 1e-99
5310.0 1e-99
5330.0 1e-99
5350.0 1e-99
5370.0 1e-99
5390.0 1e-99
5410.0 1e-99
5430.0 1e-99
5450.0 1e-99
5470.0 1e-99
5490.0 1e-99
5510.0 1e-99
5530.0 1e-99
5550.0 1e-99
5570.0 1e-99
5590.0 1.3877e-08
5610.0 1.7604e-08
5630.0 7.4573e-10
5650.0 7.0703e-09
5670.0 8.438e-09
5690.0 2.6025e-08
5710.0 1e-99
5730.0 1.1859e-08
5750.0 1.7943e-08
5770.0 1.1619e-08
5790.0 5.8589e-08
5810.0 9.5704e-08
5830.0 7.0607e-08
5850.0 9.8156e-09
5870.0 1e-99
5890.0 1e-99
5910.0 9.6159e-09
5930.0 1e-99
5950.0 1.3547e-08
5970.0 1.6978e-08
5990.0 3.5665e-08
6010.0 2.8773e-08
6030.0 3.9554e-08
6050.0 3.6315e-08
6070.0 8.2471e-09
6090.0 2.7312e-08
6110.0 3.9869e-08
6130.0 2.751e-08
6150.0 3.3616e-08
6170.0 4.4259e-08
6190.0 1e-99
6210.0 8.0036e-09
6230.0 2.3412e-08
6250.0 2.2741e-08
6270.0 2.2736e-08
6290.0 4.1655e-08
6310.0 6.583e-08
6330.0 7.0923e-08
6350.0 6.6634e-08
6370.0 7.5874e-08
6390.0 4.9922e-08
6410.0 6.095e-08
6430.0 4.9086e-08
6450.0 5.7143e-08
6470.0 6.5721e-08
6490.0 7.1247e-08
6510.0 4.7728e-08
6530.0 5.4394e-08
6550.0 5.3937e-08
6570.0 4.0453e-08
6590.0 5.5225e-08
6610.0 5.7112e-08
6630.0 6.0791e-08
6650.0 4.8661e-08
6670.0 4.1058e-08
6690.0 3.6783e-08
6710.0 3.1027e-08
6730.0 2.6007e-08
6750.0 2.6156e-08
6770.0 7.4412e-09
6790.0 1e-99
6810.0 1e-99
6830.0 1.1389e-08
6850.0 1e-99
6870.0 1e-99
6890.0 1e-99
6910.0 1e-99
6930.0 1e-99
6950.0 5.8065e-10
6970.0 1e-99
6990.0 1e-99
7010.0 1e-99
7030.0 7.0787e-09
7050.0 7.9028e-09
7070.0 1e-99
7090.0 1e-99
7110.0 1e-99
7130.0 1e-99
7150.0 1e-99
7170.0 1e-99
7190.0 1e-99
7210.0 1e-99
7230.0 1e-99
7250.0 1e-99
7270.0 1e-99
7290.0 5.2493e-10
7310.0 1e-99
7330.0 1e-99
7350.0 1e-99
7370.0 1e-99
7390.0 1.2569e-08
7410.0 1e-99
7430.0 1e-99
7450.0 1e-99
7470.0 2.7543e-09
7490.0 7.7236e-09
7510.0 1e-99
7530.0 4.1079e-09
7550.0 1e-99
7570.0 1e-99
7590.0 1e-99
7610.0 1.3102e-09
7630.0 1e-99
7650.0 1e-99
7670.0 1e-99
7690.0 1e-99
7710.0 1e-99
7730.0 1e-99
7750.0 1e-99
7770.0 1e-99
7790.0 1e-99
7810.0 1e-99
7830.0 1e-99
7850.0 1e-99
7870.0 1e-99
7890.0 1e-99
7910.0 1e-99
7930.0 1e-99
7950.0 1e-99
7970.0 1e-99
7990.0 1e-99
8010.0 1e-99
8030.0 1e-99
8050.0 1e-99
8070.0 1e-99
8090.0 1e-99
8110.0 1e-99
8130.0 1e-99
8150.0 1e-99
8170.0 1e-99
8190.0 1e-99
8210.0 1e-99
8230.0 1e-99
8250.0 1e-99
8270.0 1e-99
8290.0 1e-99
8310.0 1e-99
8330.0 1e-99
8350.0 1e-99
8370.0 1e-99
8390.0 1e-99
8410.0 1e-99
8430.0 1e-99
8450.0 1e-99
8470.0 1e-99
8490.0 1e-99
8510.0 1e-99
8530.0 1e-99
8550.0 1e-99
8570.0 1e-99
8590.0 1e-99
8610.0 1e-99
8630.0 1e-99
8650.0 1e-99
8670.0 1e-99
8690.0 1e-99
8710.0 1e-99
8730.0 1e-99
8750.0 1e-99
8770.0 1e-99
8790.0 1e-99
8810.0 1e-99
8830.0 1e-99
8850.0 1e-99
8870.0 1e-99
8890.0 1e-99
8910.0 1e-99
8930.0 1e-99
8950.0 1e-99
8970.0 1e-99
8990.0 1e-99
9010.0 1e-99
9030.0 1e-99
9050.0 1e-99
9070.0 1e-99
9090.0 1e-99
9110.0 1e-99
9130.0 1e-99
9150.0 1e-99
9170.0 1e-99
9190.0 1e-99
9210.0 1e-99
9230.0 1e-99
9250.0 1e-99
9270.0 1e-99
9290.0 1e-99
9310.0 1e-99
9330.0 1e-99
9350.0 1e-99
9370.0 1e-99
9390.0 1e-99
9410.0 1e-99
9430.0 1e-99
9450.0 1e-99
9470.0 1e-99
9490.0 1e-99
9510.0 1e-99
9530.0 1e-99
9550.0 1e-99
9570.0 1e-99
9590.0 1e-99
9610.0 1e-99
9630.0 1e-99
9650.0 1e-99
9670.0 1e-99
9690.0 1e-99
9710.0 1e-99
9730.0 1e-99
9750.0 1e-99
9770.0 1e-99
9790.0 1e-99
9810.0 1e-99
9830.0 1e-99
9850.0 1e-99
9870.0 1e-99
9890.0 1e-99
9910.0 1e-99
9930.0 1e-99
9950.0 1e-99
9970.0 1e-99
9990.0 1e-99
10010.0 1e-99
10030.0 1e-99
10050.0 1e-99
10070.0 1e-99
10090.0 1e-99
10110.0 1e-99
10130.0 1e-99
10150.0 1e-99
10170.0 1e-99
10190.0 1e-99
10210.0 1e-99
10230.0 1e-99
10250.0 1e-99
10270.0 1e-99
10290.0 1e-99
10310.0 1e-99
10330.0 1e-99
10350.0 1e-99
10370.0 1e-99
10390.0 1e-99
10410.0 1e-99
10430.0 1e-99
10450.0 1e-99
10470.0 1e-99
10490.0 1e-99
10510.0 1e-99
10530.0 1e-99
10550.0 1e-99
10570.0 1e-99
10590.0 1e-99
10610.0 1e-99
10630.0 1e-99
10650.0 1e-99
10670.0 1e-99
10690.0 1e-99
10710.0 1e-99
10730.0 1e-99
10750.0 1e-99
10770.0 1e-99
10790.0 1e-99
10810.0 1e-99
10830.0 1e-99
10850.0 1e-99
10870.0 1e-99
10890.0 1e-99
10910.0 1e-99
10930.0 1e-99
10950.0 1e-99
10970.0 1e-99
10990.0 1e-99
11010.0 3.1351e-08
11030.0 3.117e-08
11050.0 3.0896e-08
11070.0 3.055e-08
11090.0 3.0141e-08
11110.0 2.9693e-08
11130.0 2.922e-08
11150.0 2.8727e-08
11170.0 2.8222e-08
11190.0 2.7719e-08
11210.0 2.7208e-08
11230.0 2.6692e-08
11250.0 2.618e-08
11270.0 2.5673e-08
11290.0 2.5162e-08
11310.0 2.4656e-08
11330.0 2.4166e-08
11350.0 2.368e-08
11370.0 2.3201e-08
11390.0 2.2737e-08
11410.0 2.2285e-08
11430.0 2.1839e-08
11450.0 2.1405e-08
11470.0 2.0985e-08
11490.0 2.0572e-08
11510.0 2.0165e-08
11530.0 1.9769e-08
11550.0 1.938e-08
11570.0 1.8995e-08
11590.0 1.8614e-08
11610.0 1.8239e-08
11630.0 1.7865e-08
11650.0 1.7491e-08
11670.0 1.7121e-08
11690.0 1.6751e-08
11710.0 1.638e-08
11730.0 1.6007e-08
11750.0 1.5636e-08
11770.0 1.5261e-08
11790.0 1.4883e-08
11810.0 1.4507e-08
11830.0 1.413e-08
11850.0 1.375e-08
11870.0 1.3374e-08
11890.0 1.3004e-08
11910.0 1.2637e-08
11930.0 1.2275e-08
11950.0 1.1926e-08
11970.0 1.1585e-08
11990.0 1.1254e-08
12010.0 1.0938e-08
12030.0 1.0636e-08
12050.0 1.035e-08
12070.0 1.008e-08
12090.0 9.8274e-09
12110.0 9.5916e-09
12130.0 9.3738e-09
12150.0 9.1725e-09
12170.0 8.9854e-09
12190.0 8.8176e-09
12210.0 8.6644e-09
12230.0 8.5212e-09
12250.0 8.3907e-09
12270.0 8.2741e-09
12290.0 8.1634e-09
12310.0 8.0564e-09
12330.0 7.9602e-09
12350.0 7.8679e-09
12370.0 7.7743e-09
12390.0 7.6835e-09
12410.0 7.598e-09
12430.0 7.5045e-09
12450.0 7.407e-09
12470.0 7.3081e-09
12490.0 7.203e-09
12510.0 7.0883e-09
12530.0 6.968e-09
12550.0 6.8399e-09
12570.0 6.7013e-09
12590.0 6.5533e-09
12610.0 6.3956e-09
12630.0 6.2271e-09
12650.0 6.0501e-09
12670.0 5.8633e-09
12690.0 5.6662e-09
12710.0 5.4627e-09
12730.0 5.253e-09
12750.0 5.0313e-09
12770.0 4.8054e-09
12790.0 4.5778e-09
12810.0 4.3437e-09
12830.0 4.1032e-09
12850.0 3.8671e-09
12870.0 3.6316e-09
12890.0 3.3921e-09
12910.0 3.1572e-09
12930.0 2.931e-09
12950.0 2.7056e-09
12970.0 2.4854e-09
12990.0 2.2812e-09
13010.0 2.0879e-09
13030.0 1.904e-09
13050.0 1.7365e-09
13070.0 1.5877e-09
13090.0 1.4523e-09
13110.0 1.3345e-09
13130.0 1.2368e-09
13150.0 1.1571e-09
13170.0 1.0961e-09
13190.0 1.0552e-09
13210.0 1.0325e-09
13230.0 1.0291e-09
13250.0 1.045e-09
13270.0 1.0757e-09
13290.0 1.1233e-09
13310.0 1.1898e-09
13330.0 1.267e-09
13350.0 1.3529e-09
13370.0 1.4512e-09
13390.0 1.5581e-09
13410.0 1.6609e-09
13430.0 1.7673e-09
13450.0 1.8761e-09
13470.0 1.9794e-09
13490.0 2.0764e-09
13510.0 2.1754e-09
13530.0 2.2683e-09
13550.0 2.3535e-09
13570.0 2.4363e-09
13590.0 2.5179e-09
13610.0 2.5942e-09
13630.0 2.6663e-09
13650.0 2.7384e-09
13670.0 2.8068e-09
13690.0 2.8697e-09
13710.0 2.9288e-09
13730.0 2.9831e-09
13750.0 3.0282e-09
13770.0 3.0652e-09
13790.0 3.0933e-09
13810.0 3.1112e-09
13830.0 3.1199e-09
13850.0 3.1183e-09
13870.0 3.1061e-09
13890.0 3.0869e-09
13910.0 3.0614e-09
13930.0 3.0275e-09
13950.0 2.9897e-09
13970.0 2.9538e-09
13990.0 2.915e-09
14010.0 2.8756e-09
14030.0 2.841e-09
14050.0 2.8102e-09
14070.0 2.779e-09
14090.0 2.7543e-09
14110.0 2.7361e-09
14130.0 2.7207e-09
14150.0 2.7081e-09
14170.0 2.7026e-09
14190.0 2.7006e-09
14210.0 2.6996e-09
14230.0 2.7025e-09
14250.0 2.7096e-09
14270.0 2.7169e-09
14290.0 2.7258e-09
14310.0 2.7397e-09
14330.0 2.7559e-09
14350.0 2.7736e-09
14370.0 2.7954e-09
14390.0 2.8219e-09
14410.0 2.8505e-09
14430.0 2.8828e-09
14450.0 2.9201e-09
14470.0 2.9608e-09
14490.0 3.004e-09
14510.0 3.0512e-09
14530.0 3.1015e-09
14550.0 3.1534e-09
14570.0 3.2069e-09
14590.0 3.2623e-09
14610.0 3.3181e-09
14630.0 3.3738e-09
14650.0 3.43e-09
14670.0 3.4864e-09
14690.0 3.5419e-09
14710.0 3.5967e-09
14730.0 3.6516e-09
14750.0 3.7053e-09
14770.0 3.7574e-09
14790.0 3.8084e-09
14810.0 3.8584e-09
14830.0 3.9051e-09
14850.0 3.9499e-09
14870.0 3.9936e-09
14890.0 4.0349e-09
14910.0 4.0738e-09
14930.0 4.1127e-09
14950.0 4.1519e-09
14970.0 4.1906e-09
14990.0 4.231e-09
15010.0 4.2742e-09
15030.0 4.319e-09
15050.0 4.3652e-09
15070.0 4.4143e-09
15090.0 4.4643e-09
15110.0 4.5144e-09
15130.0 4.5647e-09
15150.0 4.6151e-09
15170.0 4.6645e-09
15190.0 4.713e-09
15210.0 4.7611e-09
15230.0 4.8084e-09
15250.0 4.8543e-09
15270.0 4.8994e-09
15290.0 4.9442e-09
15310.0 4.9875e-09
15330.0 5.0297e-09
15350.0 5.0713e-09
15370.0 5.112e-09
15390.0 5.1508e-09
15410.0 5.1889e-09
15430.0 5.2263e-09
15450.0 5.2622e-09
15470.0 5.2967e-09
15490.0 5.3307e-09
15510.0 5.3635e-09
15530.0 5.3946e-09
15550.0 5.4248e-09
15570.0 5.4542e-09
15590.0 5.4817e-09
15610.0 5.5078e-09
15630.0 5.5334e-09
15650.0 5.5576e-09
15670.0 5.5801e-09
15690.0 5.6016e-09
15710.0 5.6224e-09
15730.0 5.6412e-09
15750.0 5.6587e-09
15770.0 5.6755e-09
15790.0 5.6909e-09
15810.0 5.7042e-09
15830.0 5.7169e-09
15850.0 5.7288e-09
15870.0 5.7387e-09
15890.0 5.7474e-09
15910.0 5.7554e-09
15930.0 5.7619e-09
15950.0 5.7665e-09
15970.0 5.7704e-09
15990.0 5.7733e-09
16010.0 5.7744e-09
16030.0 5.7741e-09
16050.0 5.7735e-09
16070.0 5.7714e-09
16090.0 5.7676e-09
16110.0 5.763e-09
16130.0 5.7577e-09
16150.0 5.7501e-09
16170.0 5.7417e-09
16190.0 5.7328e-09
16210.0 5.7224e-09
16230.0 5.7104e-09
16250.0 5.698e-09
16270.0 5.6847e-09
16290.0 5.6696e-09
16310.0 5.6536e-09
16330.0 5.6372e-09
16350.0 5.6193e-09
16370.0 5.5996e-09
16390.0 5.5801e-09
16410.0 5.5596e-09
16430.0 5.5375e-09
16450.0 5.5147e-09
16470.0 5.4916e-09
16490.0 5.4669e-09
16510.0 5.4411e-09
16530.0 5.4151e-09
16550.0 5.3882e-09
16570.0 5.3598e-09
16590.0 5.3308e-09
16610.0 5.3019e-09
16630.0 5.2715e-09
16650.0 5.2403e-09
16670.0 5.2088e-09
16690.0 5.1767e-09
16710.0 5.1429e-09
16730.0 5.1091e-09
16750.0 5.075e-09
16770.0 5.0398e-09
16790.0 5.0037e-09
16810.0 4.9678e-09
16830.0 4.9313e-09
16850.0 4.8935e-09
16870.0 4.8557e-09
16890.0 4.8177e-09
16910.0 4.7785e-09
16930.0 4.7386e-09
16950.0 4.6991e-09
16970.0 4.659e-09
16990.0 4.618e-09
17010.0 4.5769e-09
17030.0 4.536e-09
17050.0 4.4939e-09
17070.0 4.4515e-09
17090.0 4.4093e-09
17110.0 4.3666e-09
17130.0 4.3229e-09
17150.0 4.2796e-09
17170.0 4.2364e-09
17190.0 4.1924e-09
17210.0 4.1481e-09
17230.0 4.1043e-09
17250.0 4.0598e-09
17270.0 4.0147e-09
17290.0 3.97e-09
17310.0 3.9253e-09
17330.0 3.88e-09
17350.0 3.8345e-09
17370.0 3.7897e-09
17390.0 3.7444e-09
17410.0 3.6987e-09
17430.0 3.6534e-09
17450.0 3.6082e-09
17470.0 3.5622e-09
17490.0 3.5165e-09
17510.0 3.4713e-09
17530.0 3.4257e-09
17550.0 3.3799e-09
17570.0 3.3346e-09
17590.0 3.2895e-09
17610.0 3.2439e-09
17630.0 3.1985e-09
17650.0 3.1536e-09
17670.0 3.1085e-09
17690.0 3.063e-09
17710.0 3.0184e-09
17730.0 2.9739e-09
17750.0 2.9291e-09
17770.0 2.8846e-09
17790.0 2.8407e-09
17810.0 2.7965e-09
17830.0 2.7523e-09
17850.0 2.7087e-09
17870.0 2.6653e-09
17890.0 2.6217e-09
17910.0 2.5785e-09
17930.0 2.5359e-09
17950.0 2.4932e-09
17970.0 2.4506e-09
17990.0 2.4087e-09
18010.0 2.3669e-09
18030.0 2.3249e-09
18050.0 2.2835e-09
18070.0 2.2426e-09
18090.0 2.2017e-09
18110.0 2.1609e-09
18130.0 2.1209e-09
18150.0 2.0811e-09
18170.0 2.0413e-09
18190.0 2.002e-09
18210.0 1.9632e-09
18230.0 1.9243e-09
18250.0 1.8857e-09
18270.0 1.8479e-09
18290.0 1.8102e-09
18310.0 1.7727e-09
18330.0 1.7358e-09
18350.0 1.6993e-09
18370.0 1.6629e-09
18390.0 1.6268e-09
18410.0 1.5914e-09
18430.0 1.5562e-09
18450.0 1.521e-09
18470.0 1.4866e-09
18490.0 1.4526e-09
18510.0 1.4187e-09
18530.0 1.3853e-09
18550.0 1.3525e-09
18570.0 1.3198e-09
18590.0 1.2874e-09
18610.0 1.2556e-09
18630.0 1.2242e-09
18650.0 1.193e-09
18670.0 1.1622e-09
18690.0 1.1321e-09
18710.0 1.1021e-09
18730.0 1.0725e-09
18750.0 1.0434e-09
18770.0 1.0148e-09
18790.0 9.8619e-10
18810.0 9.5816e-10
18830.0 9.3071e-10
18850.0 9.035e-10
18870.0 8.7658e-10
18890.0 8.5026e-10
18910.0 8.2434e-10
18930.0 7.9859e-10
18950.0 7.7332e-10
18970.0 7.4858e-10
18990.0 7.2408e-10
19010.0 6.998e-10
19030.0 6.7621e-10
19050.0 6.5296e-10
19070.0 6.2994e-10
19090.0 6.0738e-10
19110.0 5.8534e-10
19130.0 5.6346e-10
19150.0 5.4194e-10
19170.0 5.2095e-10
19190.0 5.0029e-10
19210.0 4.7986e-10
19230.0 4.5988e-10
19250.0 4.404e-10
19270.0 4.2113e-10
19290.0 4.022e-10
19310.0 3.8374e-10
19330.0 3.656e-10
19350.0 3.4763e-10
19370.0 3.3015e-10
19390.0 3.1306e-10
19410.0 2.9621e-10
19430.0 2.7967e-10
19450.0 2.6359e-10
19470.0 2.4779e-10
19490.0 2.3222e-10
19510.0 2.1704e-10
19530.0 2.0222e-10
19550.0 1.8759e-10
19570.0 1.7326e-10
19590.0 1.5936e-10
19610.0 1.457e-10
19630.0 1.3227e-10
19650.0 1.1919e-10
19670.0 1.0644e-10
19690.0 9.3855e-11
19710.0 8.1561e-11
19730.0 6.9603e-11
19750.0 5.7868e-11
19770.0 4.6309e-11
19790.0 3.5097e-11
19810.0 2.415e-11
19830.0 1.3365e-11
19850.0 2.8103e-12
19870.0 1e-99
19890.0 1e-99
19910.0 1e-99
19930.0 1e-99
19950.0 1e-99
19970.0 1e-99
19990.0 1e-99
20010.0 1e-99
20030.0 1e-99
20050.0 1e-99
20070.0 1e-99
20090.0 1e-99
20110.0 1e-99
20130.0 1e-99
20150.0 1e-99
20170.0 1e-99
20190.0 1e-99
20210.0 1e-99
20230.0 1e-99
20250.0 1e-99
20270.0 1e-99
20290.0 1e-99
20310.0 1e-99
20330.0 1e-99
20350.0 1e-99
20370.0 1e-99
20390.0 1e-99
20410.0 1e-99
20430.0 1e-99
20450.0 1e-99
20470.0 1e-99
20490.0 1e-99
20510.0 1e-99
20530.0 1e-99
20550.0 1e-99
20570.0 1e-99
20590.0 1e-99
20610.0 1e-99
20630.0 1e-99
20650.0 1e-99
20670.0 1e-99
20690.0 1e-99
20710.0 1e-99
20730.0 1e-99
20750.0 1e-99
20770.0 1e-99
20790.0 1e-99
20810.0 1e-99
20830.0 1e-99
20850.0 1e-99
20870.0 1e-99
20890.0 1e-99
20910.0 1e-99
20930.0 1e-99
20950.0 1e-99
20970.0 1e-99
20990.0 1e-99
21010.0 1e-99
21030.0 1e-99
21050.0 1e-99
21070.0 1e-99
21090.0 1e-99
21110.0 1e-99
21130.0 1e-99
21150.0 1e-99
21170.0 1e-99
21190.0 1e-99
21210.0 1e-99
21230.0 1e-99
21250.0 1e-99
21270.0 1e-99
21290.0 1e-99
21310.0 1e-99
21330.0 1e-99
21350.0 1e-99
21370.0 1e-99
21390.0 1e-99
21410.0 1e-99
21430.0 1e-99
21450.0 1e-99
21470.0 1e-99
21490.0 1e-99
21510.0 1e-99
21530.0 1e-99
21550.0 1e-99
21570.0 1e-99
21590.0 1e-99
21610.0 1e-99
21630.0 1e-99
21650.0 1e-99
21670.0 1e-99
21690.0 1e-99
21710.0 1e-99
21730.0 2.5321e-13
21750.0 2.2543e-11
21770.0 4.5848e-11
21790.0 6.9367e-11
21810.0 9.2725e-11
21830.0 1.165e-10
21850.0 1.4101e-10
21870.0 1.6546e-10
21890.0 1.8979e-10
21910.0 2.1489e-10
21930.0 2.4024e-10
21950.0 2.6535e-10
21970.0 2.9083e-10
21990.0 3.1703e-10
22010.0 3.4274e-10
22030.0 3.6834e-10
22050.0 3.9434e-10
22070.0 4.1111e-10
22090.0 4.1089e-10
22110.0 4.1059e-10
22130.0 4.102e-10
22150.0 4.0957e-10
22170.0 4.0876e-10
22190.0 4.079e-10
22210.0 4.0688e-10
22230.0 4.0563e-10
22250.0 4.0429e-10
22270.0 4.0289e-10
22290.0 4.0132e-10
22310.0 3.9964e-10
22330.0 3.9798e-10
22350.0 3.9623e-10
22370.0 3.9438e-10
22390.0 3.9252e-10
22410.0 3.907e-10
22430.0 3.8876e-10
22450.0 3.8679e-10
22470.0 3.8488e-10
22490.0 3.8292e-10
22510.0 3.8087e-10
22530.0 3.7888e-10
22550.0 3.7689e-10
22570.0 3.7476e-10
22590.0 3.7258e-10
22610.0 3.704e-10
22630.0 3.681e-10
22650.0 3.6561e-10
22670.0 3.6309e-10
22690.0 3.6047e-10
22710.0 3.5762e-10
22730.0 3.5462e-10
22750.0 3.5156e-10
22770.0 3.4823e-10
22790.0 3.4466e-10
22810.0 3.4095e-10
22830.0 3.3705e-10
22850.0 3.3286e-10
22870.0 3.2849e-10
22890.0 3.2396e-10
22910.0 3.1918e-10
22930.0 3.1417e-10
22950.0 3.0898e-10
22970.0 3.0361e-10
22990.0 2.9797e-10
23010.0 2.9213e-10
23030.0 2.861e-10
23050.0 2.7982e-10
23070.0 2.7329e-10
23090.0 2.6655e-10
23110.0 2.668e-10
23130.0 2.6745e-10
23150.0 2.6797e-10
23170.0 2.6833e-10
23190.0 2.6851e-10
23210.0 2.6851e-10
23230.0 2.6829e-10
23250.0 2.6785e-10
23270.0 2.6723e-10
23290.0 2.6641e-10
23310.0 2.6532e-10
23330.0 2.6414e-10
23350.0 2.6285e-10
23370.0 2.614e-10
23390.0 2.599e-10
23410.0 2.5846e-10
23430.0 2.5699e-10
23450.0 2.5554e-10
23470.0 2.5424e-10
23490.0 2.5306e-10
23510.0 2.5195e-10
23530.0 2.51e-10
23550.0 2.5027e-10
23570.0 2.4963e-10
23590.0 2.491e-10
23610.0 2.4871e-10
23630.0 2.484e-10
23650.0 2.4812e-10
23670.0 2.4788e-10
23690.0 2.4768e-10
23710.0 2.4745e-10
23730.0 2.4716e-10
23750.0 2.4687e-10
23770.0 2.4652e-10
23790.0 2.4607e-10
23810.0 2.4555e-10
23830.0 2.45e-10
23850.0 2.4431e-10
23870.0 2.4351e-10
23890.0 2.4271e-10
23910.0 2.4185e-10
23930.0 2.4087e-10
23950.0 2.3989e-10
23970.0 2.3898e-10
23990.0 2.3805e-10
24010.0 2.3717e-10
24030.0 2.3644e-10
24050.0 2.3584e-10
24070.0 2.3529e-10
24090.0 2.3495e-10
24110.0 2.3476e-10
24130.0 2.3465e-10
24150.0 2.3461e-10
24170.0 2.3462e-10
24190.0 2.346e-10
24210.0 2.3445e-10
24230.0 2.3418e-10
24250.0 2.3371e-10
24270.0 2.329e-10
24290.0 2.3167e-10
24310.0 2.3018e-10
24330.0 2.2818e-10
24350.0 2.2557e-10
24370.0 2.2248e-10
24390.0 2.1894e-10
24410.0 2.1446e-10
24430.0 2.0939e-10
24450.0 2.0392e-10
24470.0 1.9775e-10
24490.0 1.9076e-10
24510.0 1.8353e-10
24530.0 1.761e-10
24550.0 1.6798e-10
24570.0 1.5973e-10
24590.0 1.5176e-10
24610.0 1.4369e-10
24630.0 1.3547e-10
24650.0 1.2814e-10
24670.0 1.2133e-10
