#lamb flux
1010.0 2.9289e-06
1030.0 3.3144e-06
1050.0 3.6209e-06
1070.0 3.8163e-06
1090.0 3.8879e-06
1110.0 3.7583e-06
1130.0 3.4367e-06
1150.0 2.9594e-06
1170.0 2.3318e-06
1190.0 1.5614e-06
1210.0 6.9757e-07
1230.0 1e-99
1250.0 1e-99
1270.0 1e-99
1290.0 1e-99
1310.0 1e-99
1330.0 1e-99
1350.0 1e-99
1370.0 1e-99
1390.0 1e-99
1410.0 1e-99
1430.0 1e-99
1450.0 1e-99
1470.0 1e-99
1490.0 1e-99
1510.0 1e-99
1530.0 1e-99
1550.0 1e-99
1570.0 1e-99
1590.0 1e-99
1610.0 1e-99
1630.0 1e-99
1650.0 1e-99
1670.0 1e-99
1690.0 1e-99
1710.0 1e-99
1730.0 1e-99
1750.0 5.0221e-07
1770.0 2.3615e-06
1790.0 4.4479e-06
1810.0 6.7792e-06
1830.0 9.376e-06
1850.0 1.227e-05
1870.0 1.5485e-05
1890.0 1.9036e-05
1910.0 2.2965e-05
1930.0 2.7303e-05
1950.0 3.203e-05
1970.0 3.7171e-05
1990.0 4.2776e-05
2010.0 4.8811e-05
2030.0 5.5244e-05
2050.0 6.2127e-05
2070.0 6.9448e-05
2090.0 7.7067e-05
2110.0 8.5007e-05
2130.0 9.3269e-05
2150.0 0.00010172
2170.0 0.00011025
2190.0 0.00011892
2210.0 0.00012759
2230.0 0.0001361
2250.0 0.00014441
2270.0 0.00015257
2290.0 0.00016031
2310.0 0.00016751
2330.0 0.00017429
2350.0 0.00018051
2370.0 0.00018596
2390.0 0.0001907
2410.0 0.00019473
2430.0 0.00019773
2450.0 0.00019964
2470.0 0.00020044
2490.0 0.00020002
2510.0 0.00019839
2530.0 0.00019588
2550.0 0.00019296
2570.0 0.00019037
2590.0 0.00018896
2610.0 0.00019021
2630.0 0.00019524
2650.0 0.00020424
2670.0 0.00021816
2690.0 0.00023761
2710.0 0.00026037
2730.0 0.00028497
2750.0 0.00031221
2770.0 0.00033869
2790.0 0.00036175
2810.0 0.00038183
2830.0 0.00039896
2850.0 0.00041041
2870.0 0.00041837
2890.0 0.00042438
2910.0 0.00042874
2930.0 0.0004319
2950.0 0.00043539
2970.0 0.0004394
2990.0 0.00044364
3010.0 0.0004485
3030.0 0.00045448
3050.0 0.00046125
3070.0 0.00046826
3090.0 0.00047629
3110.0 0.00048513
3130.0 0.00049431
3150.0 0.00050499
3170.0 0.00051694
3190.0 0.00053024
3210.0 0.00054547
3230.0 0.00056388
3250.0 0.00058535
3270.0 0.00060919
3290.0 0.00063968
3310.0 0.00068071
3330.0 0.00072813
3350.0 0.00077876
3370.0 0.00083344
3390.0 0.00089003
3410.0 0.00094276
3430.0 0.00099151
3450.0 0.0010304
3470.0 0.0010491
3490.0 0.001062
3510.0 0.0010683
3530.0 0.0010535
3550.0 0.0011208
3570.0 0.0011868
3590.0 0.0011951
3610.0 0.0013861
3630.0 0.0014178
3650.0 0.0012927
3670.0 0.0012304
3690.0 0.0012579
3710.0 0.0012999
3730.0 0.0013725
3750.0 0.0013487
3770.0 0.0013526
3790.0 0.0013469
3810.0 0.0013215
3830.0 0.0011949
3850.0 0.0010849
3870.0 0.0011129
3890.0 0.0012271
3910.0 0.0012643
3930.0 0.0012463
3950.0 0.0012323
3970.0 0.0012828
3990.0 0.0013535
4010.0 0.0013503
4030.0 0.0012498
4050.0 0.0012216
4070.0 0.0012348
4090.0 0.00128
4110.0 0.0012635
4130.0 0.0012399
4150.0 0.0012086
4170.0 0.001219
4190.0 0.0012193
4210.0 0.0011477
4230.0 0.0010658
4250.0 0.00096526
4270.0 0.00085998
4290.0 0.00079123
4310.0 0.00073209
4330.0 0.00077829
4350.0 0.00085145
4370.0 0.0008879
4390.0 0.00094945
4410.0 0.001005
4430.0 0.0010214
4450.0 0.0009807
4470.0 0.00096539
4490.0 0.00099514
4510.0 0.0010059
4530.0 0.00099904
4550.0 0.0009965
4570.0 0.0010163
4590.0 0.0010519
4610.0 0.001103
4630.0 0.0011326
4650.0 0.0011093
4670.0 0.0010984
4690.0 0.001029
4710.0 0.00096319
4730.0 0.00096066
4750.0 0.00094497
4770.0 0.00090166
4790.0 0.00086253
4810.0 0.00086297
4830.0 0.00078333
4850.0 0.00084025
4870.0 0.00050957
4890.0 0.00058529
4910.0 0.00075718
4930.0 0.0007767
4950.0 0.0006597
4970.0 0.00062826
4990.0 0.00061267
5010.0 0.00055761
5030.0 0.00054298
5050.0 0.00060406
5070.0 0.00062613
5090.0 0.0006704
5110.0 0.00070669
5130.0 0.00070322
5150.0 0.00074259
5170.0 0.00072413
5190.0 0.00069975
5210.0 0.00073801
5230.0 0.00072961
5250.0 0.00073246
5270.0 0.00071817
5290.0 0.00070795
5310.0 0.00066066
5330.0 0.00063109
5350.0 0.00058297
5370.0 0.0005727
5390.0 0.00061784
5410.0 0.00057842
5430.0 0.00061586
5450.0 0.00060379
5470.0 0.00060383
5490.0 0.00060805
5510.0 0.00056228
5530.0 0.00057172
5550.0 0.00055061
5570.0 0.00055311
5590.0 0.00056131
5610.0 0.00057817
5630.0 0.00057461
5650.0 0.00058662
5670.0 0.00054456
5690.0 0.0005559
5710.0 0.00051633
5730.0 0.00053324
5750.0 0.00051641
5770.0 0.00048139
5790.0 0.00050517
5810.0 0.00050081
5830.0 0.00051672
5850.0 0.0005296
5870.0 0.00052717
5890.0 0.00052187
5910.0 0.00053031
5930.0 0.00051529
5950.0 0.00053027
5970.0 0.00050491
5990.0 0.0005116
6010.0 0.00050184
6030.0 0.0004989
6050.0 0.0005059
6070.0 0.00047281
6090.0 0.00046592
6110.0 0.00048101
6130.0 0.00047403
6150.0 0.00046741
6170.0 0.00045723
6190.0 0.00042662
6210.0 0.00039937
6230.0 0.00040049
6250.0 0.00040531
6270.0 0.00039821
6290.0 0.00041768
6310.0 0.00045135
6330.0 0.00045784
6350.0 0.00044208
6370.0 0.00045164
6390.0 0.000454
6410.0 0.00044513
6430.0 0.00042391
6450.0 0.00042917
6470.0 0.00043429
6490.0 0.0004231
6510.0 0.00041138
6530.0 0.00040168
6550.0 0.00040143
6570.0 0.0003883
6590.0 0.00038664
6610.0 0.00038786
6630.0 0.00037104
6650.0 0.00034776
6670.0 0.00034142
6690.0 0.00035373
6710.0 0.00035098
6730.0 0.00033952
6750.0 0.00033018
6770.0 0.00031904
6790.0 0.00032211
6810.0 0.00032242
6830.0 0.00031535
6850.0 0.00029706
6870.0 0.00029747
6890.0 0.00029764
6910.0 0.00028558
6930.0 0.00028985
6950.0 0.0002776
6970.0 0.00027318
6990.0 0.00026872
7010.0 0.00028137
7030.0 0.0002825
7050.0 0.0002707
7070.0 0.00026763
7090.0 0.00027116
7110.0 0.00026323
7130.0 0.00026508
7150.0 0.00026422
7170.0 0.00026326
7190.0 0.00025541
7210.0 0.0002588
7230.0 0.00027263
7250.0 0.00026026
7270.0 0.0002742
7290.0 0.00026483
7310.0 0.00025285
7330.0 0.00024021
7350.0 0.00024462
7370.0 0.00024364
7390.0 0.00024127
7410.0 0.00022419
7430.0 0.00021301
7450.0 0.00021894
7470.0 0.00022358
7490.0 0.00024425
7510.0 0.00024917
7530.0 0.00024121
7550.0 0.00023711
7570.0 0.00019783
7590.0 0.00020602
7610.0 0.00019188
7630.0 0.00020165
7650.0 0.00019601
7670.0 0.00020601
7690.0 0.00018058
7710.0 0.0002054
7730.0 0.00020077
7750.0 0.00023093
7770.0 0.00023463
7790.0 0.00024172
7810.0 0.00025956
7830.0 0.00025689
7850.0 0.0002821
7870.0 0.00026615
7890.0 0.00027253
7910.0 0.00027057
7930.0 0.00025501
7950.0 0.0002442
7970.0 0.0002415
7990.0 0.0002366
8010.0 0.00021948
8030.0 0.00021798
8050.0 0.00021344
8070.0 0.00021113
8090.0 0.00020232
8110.0 0.00020373
8130.0 0.00020882
8150.0 0.00021379
8170.0 0.00021269
8190.0 0.00021732
8210.0 0.00021447
8230.0 0.00020541
8250.0 0.00020338
8270.0 0.00019967
8290.0 0.00019591
8310.0 0.00018713
8330.0 0.0001886
8350.0 0.00018879
8370.0 0.00018968
8390.0 0.00019223
8410.0 0.00019012
8430.0 0.00019093
8450.0 0.0001923
8470.0 0.00019519
8490.0 0.00019781
8510.0 0.00019324
8530.0 0.00018568
8550.0 0.00018677
8570.0 0.00018591
8590.0 0.00018012
8610.0 0.00018373
8630.0 0.00018117
8650.0 0.00017807
8670.0 0.00017677
8690.0 0.00017591
8710.0 0.00016805
8730.0 0.00017079
8750.0 0.00016533
8770.0 0.00016522
8790.0 0.00016058
8810.0 0.00015809
8830.0 0.00015888
8850.0 0.0001539
8870.0 0.00014658
8890.0 0.00014427
8910.0 0.00013686
8930.0 0.00012702
8950.0 0.0001266
8970.0 0.00012153
8990.0 0.00012034
9010.0 0.00011859
9030.0 0.00011766
9050.0 0.00011684
9070.0 0.00011602
9090.0 0.0001152
9110.0 0.00011436
9130.0 0.00011353
9150.0 0.0001127
9170.0 0.00011187
9190.0 0.00011104
9210.0 0.0001102
9230.0 0.00010935
9250.0 0.00010851
9270.0 0.00010767
9290.0 0.00010682
9310.0 0.00010598
9330.0 0.00010514
9350.0 0.0001043
9370.0 0.00010345
9390.0 0.00010262
9410.0 0.00010178
9430.0 0.00010094
9450.0 0.00010011
9470.0 9.9352e-05
9490.0 9.8558e-05
9510.0 9.7695e-05
9530.0 9.6846e-05
9550.0 9.6014e-05
9570.0 9.5194e-05
9590.0 9.438e-05
9610.0 9.3574e-05
9630.0 9.2779e-05
9650.0 9.1988e-05
9670.0 9.1198e-05
9690.0 9.0419e-05
9710.0 8.9646e-05
9730.0 8.8875e-05
9750.0 8.8111e-05
9770.0 8.7359e-05
9790.0 8.6609e-05
9810.0 8.5864e-05
9830.0 8.512e-05
9850.0 8.4296e-05
9870.0 8.353e-05
9890.0 8.2876e-05
9910.0 8.2212e-05
9930.0 8.1399e-05
9950.0 8.0705e-05
9970.0 8.0082e-05
9990.0 7.9441e-05
10010.0 7.8804e-05
10030.0 7.8158e-05
10050.0 7.7508e-05
10070.0 7.6868e-05
10090.0 7.624e-05
10110.0 7.5603e-05
10130.0 7.4975e-05
10150.0 7.4368e-05
10170.0 7.3764e-05
10190.0 7.3159e-05
10210.0 7.2573e-05
10230.0 7.1999e-05
10250.0 7.1422e-05
10270.0 7.0855e-05
10290.0 7.0305e-05
10310.0 6.9755e-05
10330.0 6.9205e-05
10350.0 6.8675e-05
10370.0 6.8154e-05
10390.0 6.7631e-05
10410.0 6.7105e-05
10430.0 6.6595e-05
10450.0 6.6114e-05
10470.0 6.5629e-05
10490.0 6.5159e-05
10510.0 6.4695e-05
10530.0 6.4223e-05
10550.0 6.3764e-05
10570.0 6.3323e-05
10590.0 6.288e-05
10610.0 6.244e-05
10630.0 6.2018e-05
10650.0 6.1602e-05
10670.0 6.1181e-05
10690.0 6.0773e-05
10710.0 6.0379e-05
10730.0 5.9983e-05
10750.0 5.9586e-05
10770.0 5.9212e-05
10790.0 5.8842e-05
10810.0 5.8469e-05
10830.0 5.8108e-05
10850.0 5.7762e-05
10870.0 5.7407e-05
10890.0 5.706e-05
10910.0 5.6731e-05
10930.0 5.6408e-05
10950.0 5.6086e-05
10970.0 5.5781e-05
10990.0 5.5495e-05
11010.0 5.3894e-05
11030.0 5.3647e-05
11050.0 5.343e-05
11070.0 5.3223e-05
11090.0 5.301e-05
11110.0 5.2811e-05
11130.0 5.2613e-05
11150.0 5.2399e-05
11170.0 5.2176e-05
11190.0 5.196e-05
11210.0 5.1733e-05
11230.0 5.1493e-05
11250.0 5.1264e-05
11270.0 5.1043e-05
11290.0 5.0814e-05
11310.0 5.0595e-05
11330.0 5.0404e-05
11350.0 5.0217e-05
11370.0 5.0038e-05
11390.0 4.988e-05
11410.0 4.9737e-05
11430.0 4.959e-05
11450.0 4.9453e-05
11470.0 4.9329e-05
11490.0 4.92e-05
11510.0 4.906e-05
11530.0 4.8928e-05
11550.0 4.8792e-05
11570.0 4.8638e-05
11590.0 4.8479e-05
11610.0 4.8323e-05
11630.0 4.8149e-05
11650.0 4.796e-05
11670.0 4.7782e-05
11690.0 4.7602e-05
11710.0 4.7408e-05
11730.0 4.7218e-05
11750.0 4.7043e-05
11770.0 4.6857e-05
11790.0 4.6669e-05
11810.0 4.6496e-05
11830.0 4.6328e-05
11850.0 4.6147e-05
11870.0 4.5984e-05
11890.0 4.584e-05
11910.0 4.5696e-05
11930.0 4.5561e-05
11950.0 4.5454e-05
11970.0 4.536e-05
11990.0 4.5277e-05
12010.0 4.5225e-05
12030.0 4.5201e-05
12050.0 4.5199e-05
12070.0 4.5222e-05
12090.0 4.5283e-05
12110.0 4.5369e-05
12130.0 4.5479e-05
12150.0 4.5616e-05
12170.0 4.5774e-05
12190.0 4.5951e-05
12210.0 4.6142e-05
12230.0 4.6343e-05
12250.0 4.655e-05
12270.0 4.6759e-05
12290.0 4.6964e-05
12310.0 4.7161e-05
12330.0 4.735e-05
12350.0 4.7525e-05
12370.0 4.7684e-05
12390.0 4.7826e-05
12410.0 4.7943e-05
12430.0 4.8041e-05
12450.0 4.8117e-05
12470.0 4.8164e-05
12490.0 4.8183e-05
12510.0 4.8182e-05
12530.0 4.8148e-05
12550.0 4.8077e-05
12570.0 4.7984e-05
12590.0 4.7865e-05
12610.0 4.7705e-05
12630.0 4.7515e-05
12650.0 4.7317e-05
12670.0 4.7086e-05
12690.0 4.6823e-05
12710.0 4.6554e-05
12730.0 4.6274e-05
12750.0 4.5955e-05
12770.0 4.5635e-05
12790.0 4.5322e-05
12810.0 4.4994e-05
12830.0 4.4653e-05
12850.0 4.4336e-05
12870.0 4.4027e-05
12890.0 4.3711e-05
12910.0 4.3413e-05
12930.0 4.3142e-05
12950.0 4.2872e-05
12970.0 4.2614e-05
12990.0 4.2392e-05
13010.0 4.2189e-05
13030.0 4.1995e-05
13050.0 4.1825e-05
13070.0 4.1682e-05
13090.0 4.1546e-05
13110.0 4.1424e-05
13130.0 4.1321e-05
13150.0 4.1229e-05
13170.0 4.1138e-05
13190.0 4.1061e-05
13210.0 4.0994e-05
13230.0 4.0928e-05
13250.0 4.0863e-05
13270.0 4.0805e-05
13290.0 4.0745e-05
13310.0 4.0677e-05
13330.0 4.0609e-05
13350.0 4.0537e-05
13370.0 4.0451e-05
13390.0 4.0352e-05
13410.0 4.0247e-05
13430.0 4.0125e-05
13450.0 3.9981e-05
13470.0 3.9824e-05
13490.0 3.9655e-05
13510.0 3.9456e-05
13530.0 3.9241e-05
13550.0 3.9019e-05
13570.0 3.878e-05
13590.0 3.8518e-05
13610.0 3.8251e-05
13630.0 3.7981e-05
13650.0 3.7688e-05
13670.0 3.7385e-05
13690.0 3.7084e-05
13710.0 3.6768e-05
13730.0 3.6428e-05
13750.0 3.6099e-05
13770.0 3.5766e-05
13790.0 3.5415e-05
13810.0 3.5061e-05
13830.0 3.4719e-05
13850.0 3.4364e-05
13870.0 3.4002e-05
13890.0 3.3653e-05
13910.0 3.331e-05
13930.0 3.2958e-05
13950.0 3.2615e-05
13970.0 3.2295e-05
13990.0 3.1973e-05
14010.0 3.1654e-05
14030.0 3.1352e-05
14050.0 3.1059e-05
14070.0 3.0759e-05
14090.0 3.0472e-05
14110.0 3.0196e-05
14130.0 2.9919e-05
14150.0 2.964e-05
14170.0 2.9373e-05
14190.0 2.9107e-05
14210.0 2.8835e-05
14230.0 2.8568e-05
14250.0 2.8308e-05
14270.0 2.8041e-05
14290.0 2.7774e-05
14310.0 2.7521e-05
14330.0 2.7271e-05
14350.0 2.702e-05
14370.0 2.6781e-05
14390.0 2.6553e-05
14410.0 2.6327e-05
14430.0 2.6107e-05
14450.0 2.59e-05
14470.0 2.5698e-05
14490.0 2.5496e-05
14510.0 2.5304e-05
14530.0 2.5119e-05
14550.0 2.4932e-05
14570.0 2.4746e-05
14590.0 2.4564e-05
14610.0 2.438e-05
14630.0 2.4191e-05
14650.0 2.4005e-05
14670.0 2.3818e-05
14690.0 2.3627e-05
14710.0 2.3432e-05
14730.0 2.3243e-05
14750.0 2.305e-05
14770.0 2.2852e-05
14790.0 2.2657e-05
14810.0 2.2464e-05
14830.0 2.2263e-05
14850.0 2.2062e-05
14870.0 2.1865e-05
14890.0 2.1666e-05
14910.0 2.1465e-05
14930.0 2.127e-05
14950.0 2.1081e-05
14970.0 2.0893e-05
14990.0 2.0713e-05
15010.0 2.0545e-05
15030.0 2.0384e-05
15050.0 2.0228e-05
15070.0 2.0083e-05
15090.0 1.9943e-05
15110.0 1.9804e-05
15130.0 1.9668e-05
15150.0 1.9535e-05
15170.0 1.9401e-05
15190.0 1.9266e-05
15210.0 1.9134e-05
15230.0 1.9002e-05
15250.0 1.8869e-05
15270.0 1.8736e-05
15290.0 1.8606e-05
15310.0 1.8475e-05
15330.0 1.8344e-05
15350.0 1.8214e-05
15370.0 1.8085e-05
15390.0 1.7955e-05
15410.0 1.7826e-05
15430.0 1.7698e-05
15450.0 1.757e-05
15470.0 1.7442e-05
15490.0 1.7316e-05
15510.0 1.7191e-05
15530.0 1.7065e-05
15550.0 1.694e-05
15570.0 1.6817e-05
15590.0 1.6693e-05
15610.0 1.6568e-05
15630.0 1.6447e-05
15650.0 1.6326e-05
15670.0 1.6204e-05
15690.0 1.6084e-05
15710.0 1.5966e-05
15730.0 1.5847e-05
15750.0 1.5728e-05
15770.0 1.5612e-05
15790.0 1.5496e-05
15810.0 1.5378e-05
15830.0 1.5264e-05
15850.0 1.5151e-05
15870.0 1.5037e-05
15890.0 1.4924e-05
15910.0 1.4813e-05
15930.0 1.4702e-05
15950.0 1.4591e-05
15970.0 1.4482e-05
15990.0 1.4374e-05
16010.0 1.4266e-05
16030.0 1.4158e-05
16050.0 1.4054e-05
16070.0 1.3949e-05
16090.0 1.3844e-05
16110.0 1.3741e-05
16130.0 1.3639e-05
16150.0 1.3536e-05
16170.0 1.3435e-05
16190.0 1.3335e-05
16210.0 1.3236e-05
16230.0 1.3137e-05
16250.0 1.304e-05
16270.0 1.2944e-05
16290.0 1.2848e-05
16310.0 1.2753e-05
16330.0 1.2659e-05
16350.0 1.2566e-05
16370.0 1.2472e-05
16390.0 1.2381e-05
16410.0 1.2291e-05
16430.0 1.2201e-05
16450.0 1.2111e-05
16470.0 1.2024e-05
16490.0 1.1936e-05
16510.0 1.1849e-05
16530.0 1.1764e-05
16550.0 1.1679e-05
16570.0 1.1594e-05
16590.0 1.1511e-05
16610.0 1.1429e-05
16630.0 1.1348e-05
16650.0 1.1266e-05
16670.0 1.1187e-05
16690.0 1.1108e-05
16710.0 1.1029e-05
16730.0 1.0951e-05
16750.0 1.0875e-05
16770.0 1.0798e-05
16790.0 1.0722e-05
16810.0 1.0648e-05
16830.0 1.0575e-05
16850.0 1.0501e-05
16870.0 1.0429e-05
16890.0 1.0359e-05
16910.0 1.0287e-05
16930.0 1.0216e-05
16950.0 1.0148e-05
16970.0 1.0079e-05
16990.0 1.0011e-05
17010.0 9.9438e-06
17030.0 9.8783e-06
17050.0 9.8121e-06
17070.0 9.7466e-06
17090.0 9.6828e-06
17110.0 9.6194e-06
17130.0 9.5553e-06
17150.0 9.4932e-06
17170.0 9.4323e-06
17190.0 9.3711e-06
17210.0 9.3104e-06
17230.0 9.2517e-06
17250.0 9.1927e-06
17270.0 9.1335e-06
17290.0 9.0759e-06
17310.0 9.0194e-06
17330.0 8.9624e-06
17350.0 8.9059e-06
17370.0 8.8516e-06
17390.0 8.7971e-06
17410.0 8.7425e-06
17430.0 8.6894e-06
17450.0 8.6373e-06
17470.0 8.5839e-06
17490.0 8.5319e-06
17510.0 8.4814e-06
17530.0 8.4308e-06
17550.0 8.3801e-06
17570.0 8.3311e-06
17590.0 8.2828e-06
17610.0 8.2338e-06
17630.0 8.1858e-06
17650.0 8.1391e-06
17670.0 8.0922e-06
17690.0 8.0447e-06
17710.0 7.9995e-06
17730.0 7.9546e-06
17750.0 7.9093e-06
17770.0 7.8649e-06
17790.0 7.822e-06
17810.0 7.7783e-06
17830.0 7.7348e-06
17850.0 7.6928e-06
17870.0 7.6511e-06
17890.0 7.6089e-06
17910.0 7.5675e-06
17930.0 7.5278e-06
17950.0 7.4875e-06
17970.0 7.4473e-06
17990.0 7.4086e-06
18010.0 7.3701e-06
18030.0 7.3306e-06
18050.0 7.2925e-06
18070.0 7.2554e-06
18090.0 7.2179e-06
18110.0 7.1804e-06
18130.0 7.1446e-06
18150.0 7.1088e-06
18170.0 7.0725e-06
18190.0 7.0372e-06
18210.0 7.0029e-06
18230.0 6.9677e-06
18250.0 6.9327e-06
18270.0 6.8994e-06
18290.0 6.866e-06
18310.0 6.8322e-06
18330.0 6.7995e-06
18350.0 6.7677e-06
18370.0 6.7349e-06
18390.0 6.7026e-06
18410.0 6.6716e-06
18430.0 6.6404e-06
18450.0 6.6084e-06
18470.0 6.5779e-06
18490.0 6.5482e-06
18510.0 6.5177e-06
18530.0 6.4876e-06
18550.0 6.4589e-06
18570.0 6.4296e-06
18590.0 6.3998e-06
18610.0 6.3713e-06
18630.0 6.3433e-06
18650.0 6.3146e-06
18670.0 6.2861e-06
18690.0 6.2593e-06
18710.0 6.2319e-06
18730.0 6.2042e-06
18750.0 6.1775e-06
18770.0 6.1514e-06
18790.0 6.1239e-06
18810.0 6.0974e-06
18830.0 6.0719e-06
18850.0 6.046e-06
18870.0 6.0198e-06
18890.0 5.9948e-06
18910.0 5.9701e-06
18930.0 5.9445e-06
18950.0 5.9195e-06
18970.0 5.8955e-06
18990.0 5.8709e-06
19010.0 5.8455e-06
19030.0 5.822e-06
19050.0 5.7985e-06
19070.0 5.7742e-06
19090.0 5.7506e-06
19110.0 5.7281e-06
19130.0 5.7044e-06
19150.0 5.6807e-06
19170.0 5.6581e-06
19190.0 5.6356e-06
19210.0 5.6122e-06
19230.0 5.5895e-06
19250.0 5.5679e-06
19270.0 5.5455e-06
19290.0 5.523e-06
19310.0 5.5016e-06
19330.0 5.4801e-06
19350.0 5.4572e-06
19370.0 5.4357e-06
19390.0 5.4147e-06
19410.0 5.393e-06
19430.0 5.3711e-06
19450.0 5.3507e-06
19470.0 5.3298e-06
19490.0 5.3082e-06
19510.0 5.2875e-06
19530.0 5.2673e-06
19550.0 5.2459e-06
19570.0 5.2246e-06
19590.0 5.2047e-06
19610.0 5.1844e-06
19630.0 5.1634e-06
19650.0 5.1433e-06
19670.0 5.1238e-06
19690.0 5.103e-06
19710.0 5.0825e-06
19730.0 5.063e-06
19750.0 5.043e-06
19770.0 5.022e-06
19790.0 5.0024e-06
19810.0 4.9832e-06
19830.0 4.963e-06
19850.0 4.943e-06
19870.0 4.9242e-06
19890.0 4.9047e-06
19910.0 4.8847e-06
19930.0 4.8664e-06
19950.0 4.8491e-06
19970.0 4.8319e-06
19990.0 4.8163e-06
20010.0 4.8035e-06
20030.0 4.7917e-06
20050.0 4.7814e-06
20070.0 4.7734e-06
20090.0 4.7671e-06
20110.0 4.7611e-06
20130.0 4.7568e-06
20150.0 4.7538e-06
20170.0 4.7513e-06
20190.0 4.7492e-06
20210.0 4.7481e-06
20230.0 4.7475e-06
20250.0 4.747e-06
20270.0 4.7471e-06
20290.0 4.7477e-06
20310.0 4.7484e-06
20330.0 4.749e-06
20350.0 4.7503e-06
20370.0 4.7518e-06
20390.0 4.7532e-06
20410.0 4.7548e-06
20430.0 4.757e-06
20450.0 4.7589e-06
20470.0 4.7611e-06
20490.0 4.7639e-06
20510.0 4.767e-06
20530.0 4.7705e-06
20550.0 4.7747e-06
20570.0 4.7798e-06
20590.0 4.7854e-06
20610.0 4.7919e-06
20630.0 4.7994e-06
20650.0 4.8077e-06
20670.0 4.8169e-06
20690.0 4.8269e-06
20710.0 4.8377e-06
20730.0 4.8491e-06
20750.0 4.8611e-06
20770.0 4.8732e-06
20790.0 4.8855e-06
20810.0 4.8978e-06
20830.0 4.9097e-06
20850.0 4.9211e-06
20870.0 4.9318e-06
20890.0 4.9416e-06
20910.0 4.9505e-06
20930.0 4.9581e-06
20950.0 4.9644e-06
20970.0 4.9696e-06
20990.0 4.9735e-06
21010.0 4.9757e-06
21030.0 4.9765e-06
21050.0 4.9765e-06
21070.0 4.9749e-06
21090.0 4.9717e-06
21110.0 4.968e-06
21130.0 4.9636e-06
21150.0 4.9576e-06
21170.0 4.9509e-06
21190.0 4.9442e-06
21210.0 4.936e-06
21230.0 4.9268e-06
21250.0 4.9178e-06
21270.0 4.9084e-06
21290.0 4.8977e-06
21310.0 4.8866e-06
21330.0 4.8761e-06
21350.0 4.8641e-06
21370.0 4.8512e-06
21390.0 4.8385e-06
21410.0 4.8254e-06
21430.0 4.81e-06
21450.0 4.7948e-06
21470.0 4.7798e-06
21490.0 4.7633e-06
21510.0 4.7457e-06
21530.0 4.7287e-06
21550.0 4.7109e-06
21570.0 4.6912e-06
21590.0 4.6717e-06
21610.0 4.6525e-06
21630.0 4.6317e-06
21650.0 4.6095e-06
21670.0 4.5891e-06
21690.0 4.5678e-06
21710.0 4.5452e-06
21730.0 4.523e-06
21750.0 4.5017e-06
21770.0 4.4782e-06
21790.0 4.4547e-06
21810.0 4.4325e-06
21830.0 4.4098e-06
21850.0 4.386e-06
21870.0 4.3633e-06
21890.0 4.3417e-06
21910.0 4.3189e-06
21930.0 4.2964e-06
21950.0 4.2753e-06
21970.0 4.254e-06
21990.0 4.2316e-06
22010.0 4.211e-06
22030.0 4.1911e-06
22050.0 4.1706e-06
22070.0 4.1504e-06
22090.0 4.1319e-06
22110.0 4.1129e-06
22130.0 4.0934e-06
22150.0 4.075e-06
22170.0 4.0571e-06
22190.0 4.0381e-06
22210.0 4.0192e-06
22230.0 4.0017e-06
22250.0 3.9835e-06
22270.0 3.9647e-06
22290.0 3.9467e-06
22310.0 3.9289e-06
22330.0 3.9096e-06
22350.0 3.8907e-06
22370.0 3.8725e-06
22390.0 3.8536e-06
22410.0 3.8338e-06
22430.0 3.8155e-06
22450.0 3.7973e-06
22470.0 3.7783e-06
22490.0 3.7598e-06
22510.0 3.7425e-06
22530.0 3.7245e-06
22550.0 3.7064e-06
22570.0 3.6898e-06
22590.0 3.6737e-06
22610.0 3.6572e-06
22630.0 3.6414e-06
22650.0 3.6271e-06
22670.0 3.6123e-06
22690.0 3.5976e-06
22710.0 3.5841e-06
22730.0 3.571e-06
22750.0 3.5571e-06
22770.0 3.5443e-06
22790.0 3.5324e-06
