#lamb flux
1010.0 4.5125e-05
1030.0 5.946e-05
1050.0 7.6933e-05
1070.0 9.7798e-05
1090.0 0.00012284
1110.0 0.0001504
1130.0 0.00018009
1150.0 0.00021284
1170.0 0.00024825
1190.0 0.00028378
1210.0 0.00032064
1230.0 0.00035899
1250.0 0.00039669
1270.0 0.00043271
1290.0 0.00046879
1310.0 0.00050249
1330.0 0.00053174
1350.0 0.00055747
1370.0 0.00057969
1390.0 0.00059626
1410.0 0.00060686
1430.0 0.00061355
1450.0 0.00061511
1470.0 0.00061101
1490.0 0.00060289
1510.0 0.00059186
1530.0 0.00057604
1550.0 0.00055758
1570.0 0.0005381
1590.0 0.00051745
1610.0 0.00049551
1630.0 0.0004741
1650.0 0.00045346
1670.0 0.00043315
1690.0 0.00041381
1710.0 0.00039626
1730.0 0.00038015
1750.0 0.00036444
1770.0 0.00035061
1790.0 0.00033856
1810.0 0.00032788
1830.0 0.00031873
1850.0 0.00031167
1870.0 0.000306
1890.0 0.00030171
1910.0 0.00029914
1930.0 0.00029828
1950.0 0.00029869
1970.0 0.00030061
1990.0 0.00030432
2010.0 0.00030953
2030.0 0.00031614
2050.0 0.00032458
2070.0 0.00033489
2090.0 0.00034659
2110.0 0.00036009
2130.0 0.00037566
2150.0 0.00039308
2170.0 0.00041224
2190.0 0.00043376
2210.0 0.00045754
2230.0 0.00048331
2250.0 0.00051141
2270.0 0.00054232
2290.0 0.0005755
2310.0 0.00061089
2330.0 0.00064916
2350.0 0.00069012
2370.0 0.00073325
2390.0 0.00077892
2410.0 0.00082736
2430.0 0.00087744
2450.0 0.00092889
2470.0 0.00098177
2490.0 0.0010356
2510.0 0.0010898
2530.0 0.0011461
2550.0 0.0012071
2570.0 0.0012768
2590.0 0.0013607
2610.0 0.0014725
2630.0 0.0016227
2650.0 0.0018161
2670.0 0.0020676
2690.0 0.0023906
2710.0 0.0027693
2730.0 0.0031916
2750.0 0.0036685
2770.0 0.0041601
2790.0 0.0046283
2810.0 0.005069
2830.0 0.0054734
2850.0 0.0057992
2870.0 0.006067
2890.0 0.0062922
2910.0 0.006477
2930.0 0.0066273
2950.0 0.0067611
2970.0 0.0068813
2990.0 0.006985
3010.0 0.0070765
3030.0 0.007161
3050.0 0.0072343
3070.0 0.0072902
3090.0 0.0073364
3110.0 0.0073683
3130.0 0.0073775
3150.0 0.0074576
3170.0 0.0074976
3190.0 0.0075195
3210.0 0.0075143
3230.0 0.0074534
3250.0 0.0071892
3270.0 0.0067113
3290.0 0.006347
3310.0 0.0063158
3330.0 0.0065654
3350.0 0.0068764
3370.0 0.0071873
3390.0 0.0074912
3410.0 0.007775
3430.0 0.0080422
3450.0 0.0082915
3470.0 0.0085164
3490.0 0.0086439
3510.0 0.008568
3530.0 0.0085475
3550.0 0.0088358
3570.0 0.0094293
3590.0 0.010425
3610.0 0.011193
3630.0 0.011989
3650.0 0.011603
3670.0 0.010334
3690.0 0.0093897
3710.0 0.0093986
3730.0 0.010069
3750.0 0.010516
3770.0 0.010777
3790.0 0.010982
3810.0 0.010702
3830.0 0.0098014
3850.0 0.0088463
3870.0 0.0083493
3890.0 0.0087033
3910.0 0.0090622
3930.0 0.00914
3950.0 0.0094204
3970.0 0.0098649
3990.0 0.010167
4010.0 0.010351
4030.0 0.0101
4050.0 0.0097414
4070.0 0.0096296
4090.0 0.0097244
4110.0 0.0098527
4130.0 0.0096348
4150.0 0.009348
4170.0 0.0092502
4190.0 0.0093166
4210.0 0.0089498
4230.0 0.008286
4250.0 0.0074634
4270.0 0.006685
4290.0 0.0061556
4310.0 0.0058938
4330.0 0.0059969
4350.0 0.0065375
4370.0 0.0069369
4390.0 0.0074563
4410.0 0.0079427
4430.0 0.008141
4450.0 0.0078201
4470.0 0.0074219
4490.0 0.007321
4510.0 0.0073458
4530.0 0.0074057
4550.0 0.0073851
4570.0 0.0074015
4590.0 0.007611
4610.0 0.0078042
4630.0 0.0079725
4650.0 0.008102
4670.0 0.0080593
4690.0 0.0076572
4710.0 0.0071714
4730.0 0.0068984
4750.0 0.0067444
4770.0 0.0065171
4790.0 0.0064035
4810.0 0.0062804
4830.0 0.0061148
4850.0 0.0063656
4870.0 0.0063733
4890.0 0.006218
4910.0 0.0060141
4930.0 0.0056499
4950.0 0.0050695
4970.0 0.0047549
4990.0 0.0045023
5010.0 0.0042638
5030.0 0.0041995
5050.0 0.0044063
5070.0 0.0045953
5090.0 0.0048769
5110.0 0.0050689
5130.0 0.0051771
5150.0 0.0052667
5170.0 0.0052347
5190.0 0.0052261
5210.0 0.0052441
5230.0 0.0051802
5250.0 0.0051855
5270.0 0.0052202
5290.0 0.0051456
5310.0 0.0049483
5330.0 0.0047329
5350.0 0.0045032
5370.0 0.0044069
5390.0 0.0043932
5410.0 0.0043793
5430.0 0.004428
5450.0 0.0043928
5470.0 0.0043838
5490.0 0.0044304
5510.0 0.0043885
5530.0 0.004345
5550.0 0.004325
5570.0 0.0043723
5590.0 0.0044094
5610.0 0.0043734
5630.0 0.004315
5650.0 0.0042452
5670.0 0.0041682
5690.0 0.0040986
5710.0 0.0040075
5730.0 0.0039829
5750.0 0.0039077
5770.0 0.0038104
5790.0 0.0037531
5810.0 0.0037209
5830.0 0.0037541
5850.0 0.0037826
5870.0 0.0037748
5890.0 0.0037689
5910.0 0.0038131
5930.0 0.003842
5950.0 0.0038449
5970.0 0.0038419
5990.0 0.0038687
6010.0 0.0038581
6030.0 0.0038179
6050.0 0.0037717
6070.0 0.0037403
6090.0 0.0037417
6110.0 0.0037195
6130.0 0.0036607
6150.0 0.0035627
6170.0 0.0034157
6190.0 0.003232
6210.0 0.0031388
6230.0 0.0031039
6250.0 0.0031008
6270.0 0.0031425
6290.0 0.0032144
6310.0 0.0032917
6330.0 0.0033337
6350.0 0.0033453
6370.0 0.0033321
6390.0 0.003265
6410.0 0.0031986
6430.0 0.0031215
6450.0 0.0030787
6470.0 0.0030487
6490.0 0.0030376
6510.0 0.0030023
6530.0 0.002973
6550.0 0.0029351
6570.0 0.0028942
6590.0 0.0028772
6610.0 0.0028399
6630.0 0.0027932
6650.0 0.0027278
6670.0 0.0026685
6690.0 0.0026149
6710.0 0.0025629
6730.0 0.0025182
6750.0 0.0024883
6770.0 0.002471
6790.0 0.0024286
6810.0 0.0024156
6830.0 0.0023954
6850.0 0.0023411
6870.0 0.0023027
6890.0 0.0022769
6910.0 0.0022481
6930.0 0.0022143
6950.0 0.0022028
6970.0 0.0021807
6990.0 0.0021606
7010.0 0.0021398
7030.0 0.0021237
7050.0 0.0021027
7070.0 0.0020532
7090.0 0.0020068
7110.0 0.0019878
7130.0 0.0019935
7150.0 0.0020028
7170.0 0.0020057
7190.0 0.0020167
7210.0 0.0020475
7230.0 0.0020728
7250.0 0.002074
7270.0 0.0020528
7290.0 0.0020268
7310.0 0.001976
7330.0 0.0019259
7350.0 0.0018781
7370.0 0.0018646
7390.0 0.0018544
7410.0 0.0018203
7430.0 0.0017999
7450.0 0.0017756
7470.0 0.0017665
7490.0 0.0017421
7510.0 0.0017158
7530.0 0.0017097
7550.0 0.0016563
7570.0 0.0016029
7590.0 0.001572
7610.0 0.0015832
7630.0 0.0015783
7650.0 0.0015903
7670.0 0.0015587
7690.0 0.0015469
7710.0 0.0015636
7730.0 0.0016197
7750.0 0.0016444
7770.0 0.0017132
7790.0 0.0017632
7810.0 0.0017922
7830.0 0.0018479
7850.0 0.0018518
7870.0 0.0018879
7890.0 0.0018634
7910.0 0.0018283
7930.0 0.0017868
7950.0 0.0017596
7970.0 0.0017548
7990.0 0.001742
8010.0 0.0016785
8030.0 0.0016649
8050.0 0.0016302
8070.0 0.0016074
8090.0 0.0015165
8110.0 0.0015255
8130.0 0.0015875
8150.0 0.001634
8170.0 0.0016341
8190.0 0.0016755
8210.0 0.0016506
8230.0 0.0015956
8250.0 0.0015866
8270.0 0.0015564
8290.0 0.0015255
8310.0 0.0014528
8330.0 0.0014601
8350.0 0.0014691
8370.0 0.0014777
8390.0 0.0014889
8410.0 0.0014692
8430.0 0.0014643
8450.0 0.0014698
8470.0 0.0015038
8490.0 0.0015234
8510.0 0.0014793
8530.0 0.0014212
8550.0 0.0014248
8570.0 0.0014078
8590.0 0.0013687
8610.0 0.0013953
8630.0 0.0013809
8650.0 0.0013614
8670.0 0.0013513
8690.0 0.0013412
8710.0 0.0012797
8730.0 0.0012955
8750.0 0.0012576
8770.0 0.0012599
8790.0 0.0012297
8810.0 0.0012062
8830.0 0.0012135
8850.0 0.0011912
8870.0 0.0011357
8890.0 0.0011102
8910.0 0.0010602
8930.0 0.00099204
8950.0 0.00098208
8970.0 0.00094066
8990.0 0.0009294
9010.0 0.00090946
9030.0 0.00090127
9050.0 0.00089524
9070.0 0.00088928
9090.0 0.00088326
9110.0 0.00087712
9130.0 0.00087099
9150.0 0.00086495
9170.0 0.00085886
9190.0 0.00085273
9210.0 0.00084656
9230.0 0.00084037
9250.0 0.00083417
9270.0 0.00082795
9290.0 0.00082171
9310.0 0.00081551
9330.0 0.00080935
9350.0 0.00080318
9370.0 0.00079702
9390.0 0.00079087
9410.0 0.00078472
9430.0 0.00077858
9450.0 0.00077246
9470.0 0.0007669
9490.0 0.00076106
9510.0 0.00075469
9530.0 0.00074841
9550.0 0.00074227
9570.0 0.00073621
9590.0 0.00073019
9610.0 0.00072426
9630.0 0.0007184
9650.0 0.00071257
9670.0 0.00070675
9690.0 0.000701
9710.0 0.00069529
9730.0 0.0006896
9750.0 0.00068395
9770.0 0.0006784
9790.0 0.00067285
9810.0 0.00066734
9830.0 0.00066186
9850.0 0.00065586
9870.0 0.00065008
9890.0 0.00064524
9910.0 0.00064031
9930.0 0.0006343
9950.0 0.00062915
9970.0 0.00062452
9990.0 0.00061975
10010.0 0.00061503
10030.0 0.00061024
10050.0 0.0006054
10070.0 0.00060064
10090.0 0.00059596
10110.0 0.00059124
10130.0 0.00058658
10150.0 0.00058205
10170.0 0.00057756
10190.0 0.00057307
10210.0 0.00056871
10230.0 0.00056443
10250.0 0.00056014
10270.0 0.00055592
10290.0 0.00055183
10310.0 0.00054773
10330.0 0.00054365
10350.0 0.0005397
10370.0 0.00053582
10390.0 0.00053192
10410.0 0.00052795
10430.0 0.00052406
10450.0 0.00052055
10470.0 0.00051698
10490.0 0.0005135
10510.0 0.00051007
10530.0 0.00050656
10550.0 0.00050316
10570.0 0.00049987
10590.0 0.00049658
10610.0 0.00049331
10630.0 0.00049017
10650.0 0.00048708
10670.0 0.00048395
10690.0 0.00048092
10710.0 0.00047799
10730.0 0.00047505
10750.0 0.00047211
10770.0 0.00046934
10790.0 0.00046659
10810.0 0.00046382
10830.0 0.00046115
10850.0 0.00045858
10870.0 0.00045595
10890.0 0.00045337
10910.0 0.00045092
10930.0 0.00044851
10950.0 0.00044609
10970.0 0.00044377
10990.0 0.00044157
11010.0 0.00043746
11030.0 0.00043481
11050.0 0.00043222
11070.0 0.00042958
11090.0 0.00042679
11110.0 0.00042408
11130.0 0.00042138
11150.0 0.00041858
11170.0 0.00041574
11190.0 0.00041301
11210.0 0.00041021
11230.0 0.00040735
11250.0 0.0004046
11270.0 0.00040195
11290.0 0.00039927
11310.0 0.00039668
11330.0 0.00039435
11350.0 0.0003921
11370.0 0.00038993
11390.0 0.00038798
11410.0 0.00038619
11430.0 0.00038442
11450.0 0.0003828
11470.0 0.00038133
11490.0 0.00037989
11510.0 0.00037845
11530.0 0.00037711
11550.0 0.00037581
11570.0 0.00037444
11590.0 0.00037307
11610.0 0.00037175
11630.0 0.00037034
11650.0 0.00036885
11670.0 0.00036744
11690.0 0.00036601
11710.0 0.00036449
11730.0 0.00036298
11750.0 0.00036156
11770.0 0.00036005
11790.0 0.00035851
11810.0 0.00035707
11830.0 0.00035566
11850.0 0.00035415
11870.0 0.00035278
11890.0 0.00035155
11910.0 0.00035034
11930.0 0.00034921
11950.0 0.0003483
11970.0 0.00034751
11990.0 0.0003468
12010.0 0.00034633
12030.0 0.00034608
12050.0 0.00034599
12070.0 0.0003461
12090.0 0.00034648
12110.0 0.00034705
12130.0 0.0003478
12150.0 0.00034876
12170.0 0.00034988
12190.0 0.00035114
12210.0 0.00035252
12230.0 0.00035399
12250.0 0.0003555
12270.0 0.00035704
12290.0 0.00035856
12310.0 0.00036003
12330.0 0.00036143
12350.0 0.00036272
12370.0 0.0003639
12390.0 0.00036494
12410.0 0.00036576
12430.0 0.00036646
12450.0 0.00036699
12470.0 0.00036729
12490.0 0.00036739
12510.0 0.00036737
12530.0 0.00036711
12550.0 0.0003666
12570.0 0.00036596
12590.0 0.00036518
12610.0 0.00036411
12630.0 0.00036286
12650.0 0.00036163
12670.0 0.00036018
12690.0 0.00035855
12710.0 0.00035692
12730.0 0.00035526
12750.0 0.00035335
12770.0 0.00035148
12790.0 0.0003497
12810.0 0.00034784
12830.0 0.00034592
12850.0 0.00034421
12870.0 0.00034258
12890.0 0.00034092
12910.0 0.00033941
12930.0 0.00033813
12950.0 0.00033689
12970.0 0.00033578
12990.0 0.00033497
13010.0 0.00033433
13030.0 0.00033384
13050.0 0.00033357
13070.0 0.00033355
13090.0 0.00033365
13110.0 0.00033392
13130.0 0.00033436
13150.0 0.00033492
13170.0 0.00033554
13190.0 0.00033625
13210.0 0.00033701
13230.0 0.00033777
13250.0 0.00033852
13270.0 0.00033925
13290.0 0.00033992
13310.0 0.00034049
13330.0 0.00034099
13350.0 0.00034139
13370.0 0.00034163
13390.0 0.0003417
13410.0 0.00034167
13430.0 0.00034144
13450.0 0.00034099
13470.0 0.00034038
13490.0 0.00033963
13510.0 0.00033857
13530.0 0.00033734
13550.0 0.00033603
13570.0 0.00033452
13590.0 0.0003328
13610.0 0.00033101
13630.0 0.00032917
13650.0 0.0003271
13670.0 0.00032494
13690.0 0.00032277
13710.0 0.00032046
13730.0 0.00031791
13750.0 0.00031544
13770.0 0.00031292
13790.0 0.00031023
13810.0 0.00030748
13830.0 0.00030482
13850.0 0.00030201
13870.0 0.00029912
13890.0 0.00029633
13910.0 0.00029357
13930.0 0.00029071
13950.0 0.00028791
13970.0 0.0002853
13990.0 0.00028265
14010.0 0.00028002
14030.0 0.00027755
14050.0 0.00027516
14070.0 0.0002727
14090.0 0.00027037
14110.0 0.00026816
14130.0 0.00026595
14150.0 0.00026373
14170.0 0.00026164
14190.0 0.00025958
14210.0 0.00025747
14230.0 0.0002554
14250.0 0.0002534
14270.0 0.00025134
14290.0 0.00024927
14310.0 0.0002473
14330.0 0.00024535
14350.0 0.00024337
14370.0 0.00024145
14390.0 0.00023963
14410.0 0.00023778
14430.0 0.00023597
14450.0 0.00023424
14470.0 0.00023254
14490.0 0.00023082
14510.0 0.00022916
14530.0 0.00022754
14550.0 0.00022589
14570.0 0.00022423
14590.0 0.00022259
14610.0 0.00022093
14630.0 0.0002192
14650.0 0.00021747
14670.0 0.00021574
14690.0 0.00021394
14710.0 0.0002121
14730.0 0.00021029
14750.0 0.00020843
14770.0 0.00020651
14790.0 0.00020459
14810.0 0.00020267
14830.0 0.00020065
14850.0 0.00019862
14870.0 0.0001966
14890.0 0.00019455
14910.0 0.00019246
14930.0 0.00019042
14950.0 0.00018844
14970.0 0.00018646
14990.0 0.00018457
15010.0 0.00018279
15030.0 0.00018107
15050.0 0.0001794
15070.0 0.00017784
15090.0 0.00017632
15110.0 0.00017481
15130.0 0.00017332
15150.0 0.00017186
15170.0 0.00017038
15190.0 0.00016889
15210.0 0.00016741
15230.0 0.00016594
15250.0 0.00016444
15270.0 0.00016295
15290.0 0.00016148
15310.0 0.00015999
15330.0 0.0001585
15350.0 0.00015702
15370.0 0.00015554
15390.0 0.00015405
15410.0 0.00015256
15430.0 0.00015109
15450.0 0.00014961
15470.0 0.00014812
15490.0 0.00014666
15510.0 0.0001452
15530.0 0.00014372
15550.0 0.00014226
15570.0 0.00014082
15590.0 0.00013936
15610.0 0.00013791
15630.0 0.00013648
15650.0 0.00013505
15670.0 0.00013361
15690.0 0.00013219
15710.0 0.00013079
15730.0 0.00012938
15750.0 0.00012798
15770.0 0.00012659
15790.0 0.00012521
15810.0 0.00012383
15830.0 0.00012246
15850.0 0.00012112
15870.0 0.00011976
15890.0 0.00011842
15910.0 0.0001171
15930.0 0.00011578
15950.0 0.00011447
15970.0 0.00011317
15990.0 0.00011188
16010.0 0.0001106
16030.0 0.00010932
16050.0 0.00010807
16070.0 0.00010683
16090.0 0.00010559
16110.0 0.00010436
16130.0 0.00010316
16150.0 0.00010194
16170.0 0.00010075
16190.0 9.9571e-05
16210.0 9.8402e-05
16230.0 9.7237e-05
16250.0 9.6093e-05
16270.0 9.4965e-05
16290.0 9.3836e-05
16310.0 9.2722e-05
16330.0 9.1627e-05
16350.0 9.0539e-05
16370.0 8.945e-05
16390.0 8.839e-05
16410.0 8.7341e-05
16430.0 8.6296e-05
16450.0 8.5264e-05
16470.0 8.4255e-05
16490.0 8.3246e-05
16510.0 8.2246e-05
16530.0 8.1266e-05
16550.0 8.0298e-05
16570.0 7.9333e-05
16590.0 7.8382e-05
16610.0 7.7453e-05
16630.0 7.6528e-05
16650.0 7.5611e-05
16670.0 7.4714e-05
16690.0 7.3828e-05
16710.0 7.2941e-05
16730.0 7.2073e-05
16750.0 7.1222e-05
16770.0 7.0375e-05
16790.0 6.9536e-05
16810.0 6.8719e-05
16830.0 6.791e-05
16850.0 6.7105e-05
16870.0 6.6315e-05
16890.0 6.5542e-05
16910.0 6.477e-05
16930.0 6.4006e-05
16950.0 6.3263e-05
16970.0 6.2528e-05
16990.0 6.1798e-05
17010.0 6.1082e-05
17030.0 6.0382e-05
17050.0 5.9683e-05
17070.0 5.8994e-05
17090.0 5.8322e-05
17110.0 5.7657e-05
17130.0 5.6994e-05
17150.0 5.6348e-05
17170.0 5.5715e-05
17190.0 5.5085e-05
17210.0 5.4465e-05
17230.0 5.3861e-05
17250.0 5.3261e-05
17270.0 5.2665e-05
17290.0 5.2084e-05
17310.0 5.1514e-05
17330.0 5.0946e-05
17350.0 5.0386e-05
17370.0 4.9845e-05
17390.0 4.9306e-05
17410.0 4.8773e-05
17430.0 4.8252e-05
17450.0 4.7743e-05
17470.0 4.7231e-05
17490.0 4.6731e-05
17510.0 4.6245e-05
17530.0 4.5762e-05
17550.0 4.5284e-05
17570.0 4.4819e-05
17590.0 4.4363e-05
17610.0 4.3908e-05
17630.0 4.3462e-05
17650.0 4.3028e-05
17670.0 4.2597e-05
17690.0 4.2166e-05
17710.0 4.1753e-05
17730.0 4.1346e-05
17750.0 4.094e-05
17770.0 4.0543e-05
17790.0 4.0158e-05
17810.0 3.9773e-05
17830.0 3.9393e-05
17850.0 3.9024e-05
17870.0 3.8661e-05
17890.0 3.8299e-05
17910.0 3.7945e-05
17930.0 3.7603e-05
17950.0 3.7262e-05
17970.0 3.6926e-05
17990.0 3.6599e-05
18010.0 3.6278e-05
18030.0 3.5955e-05
18050.0 3.5643e-05
18070.0 3.5339e-05
18090.0 3.5037e-05
18110.0 3.4737e-05
18130.0 3.445e-05
18150.0 3.4166e-05
18170.0 3.3882e-05
18190.0 3.3607e-05
18210.0 3.3339e-05
18230.0 3.307e-05
18250.0 3.2805e-05
18270.0 3.2552e-05
18290.0 3.2301e-05
18310.0 3.2051e-05
18330.0 3.1808e-05
18350.0 3.1574e-05
18370.0 3.1337e-05
18390.0 3.1105e-05
18410.0 3.0882e-05
18430.0 3.0662e-05
18450.0 3.044e-05
18470.0 3.0227e-05
18490.0 3.0021e-05
18510.0 2.9815e-05
18530.0 2.9612e-05
18550.0 2.9418e-05
18570.0 2.9224e-05
18590.0 2.9031e-05
18610.0 2.8845e-05
18630.0 2.8665e-05
18650.0 2.8483e-05
18670.0 2.8306e-05
18690.0 2.8138e-05
18710.0 2.7969e-05
18730.0 2.7802e-05
18750.0 2.7641e-05
18770.0 2.7486e-05
18790.0 2.7326e-05
18810.0 2.7172e-05
18830.0 2.7026e-05
18850.0 2.688e-05
18870.0 2.6734e-05
18890.0 2.6597e-05
18910.0 2.6462e-05
18930.0 2.6326e-05
18950.0 2.6194e-05
18970.0 2.6069e-05
18990.0 2.5943e-05
19010.0 2.5815e-05
19030.0 2.5698e-05
19050.0 2.5583e-05
19070.0 2.5466e-05
19090.0 2.5354e-05
19110.0 2.5249e-05
19130.0 2.514e-05
19150.0 2.5034e-05
19170.0 2.4934e-05
19190.0 2.4836e-05
19210.0 2.4736e-05
19230.0 2.464e-05
19250.0 2.4552e-05
19270.0 2.4461e-05
19290.0 2.4372e-05
19310.0 2.429e-05
19330.0 2.4208e-05
19350.0 2.4123e-05
19370.0 2.4044e-05
19390.0 2.397e-05
19410.0 2.3894e-05
19430.0 2.382e-05
19450.0 2.3753e-05
19470.0 2.3686e-05
19490.0 2.3617e-05
19510.0 2.3553e-05
19530.0 2.3494e-05
19550.0 2.343e-05
19570.0 2.3368e-05
19590.0 2.3315e-05
19610.0 2.3261e-05
19630.0 2.3205e-05
19650.0 2.3155e-05
19670.0 2.3109e-05
19690.0 2.3058e-05
19710.0 2.3011e-05
19730.0 2.2969e-05
19750.0 2.2926e-05
19770.0 2.288e-05
19790.0 2.2842e-05
19810.0 2.2807e-05
19830.0 2.2769e-05
19850.0 2.2734e-05
19870.0 2.2705e-05
19890.0 2.2674e-05
19910.0 2.2644e-05
19930.0 2.2624e-05
19950.0 2.2611e-05
19970.0 2.2603e-05
19990.0 2.2606e-05
20010.0 2.2628e-05
20030.0 2.266e-05
20050.0 2.2705e-05
20070.0 2.2767e-05
20090.0 2.2841e-05
20110.0 2.2923e-05
20130.0 2.3016e-05
20150.0 2.3118e-05
20170.0 2.3226e-05
20190.0 2.334e-05
20210.0 2.346e-05
20230.0 2.3585e-05
20250.0 2.3714e-05
20270.0 2.3846e-05
20290.0 2.3982e-05
20310.0 2.412e-05
20330.0 2.4259e-05
20350.0 2.4401e-05
20370.0 2.4544e-05
20390.0 2.4688e-05
20410.0 2.4833e-05
20430.0 2.498e-05
20450.0 2.5128e-05
20470.0 2.5276e-05
20490.0 2.5428e-05
20510.0 2.5582e-05
20530.0 2.5738e-05
20550.0 2.5898e-05
20570.0 2.6064e-05
20590.0 2.6233e-05
20610.0 2.6406e-05
20630.0 2.6586e-05
20650.0 2.6771e-05
20670.0 2.696e-05
20690.0 2.7155e-05
20710.0 2.7355e-05
20730.0 2.7558e-05
20750.0 2.7764e-05
20770.0 2.7973e-05
20790.0 2.8184e-05
20810.0 2.8395e-05
20830.0 2.8606e-05
20850.0 2.8817e-05
20870.0 2.9024e-05
20890.0 2.9229e-05
20910.0 2.9434e-05
20930.0 2.9636e-05
20950.0 2.9832e-05
20970.0 3.0029e-05
20990.0 3.0225e-05
21010.0 3.0414e-05
21030.0 3.0603e-05
21050.0 3.0795e-05
21070.0 3.0984e-05
21090.0 3.1169e-05
21110.0 3.136e-05
21130.0 3.1553e-05
21150.0 3.1744e-05
21170.0 3.1936e-05
21190.0 3.2134e-05
21210.0 3.2329e-05
21230.0 3.2521e-05
21250.0 3.2719e-05
21270.0 3.2917e-05
21290.0 3.311e-05
21310.0 3.3303e-05
21330.0 3.3501e-05
21350.0 3.3692e-05
21370.0 3.3878e-05
21390.0 3.4066e-05
21410.0 3.4253e-05
21430.0 3.4425e-05
21450.0 3.46e-05
21470.0 3.4778e-05
21490.0 3.4947e-05
21510.0 3.511e-05
21530.0 3.5279e-05
21550.0 3.5445e-05
21570.0 3.5599e-05
21590.0 3.5756e-05
21610.0 3.5917e-05
21630.0 3.6068e-05
21650.0 3.6211e-05
21670.0 3.6369e-05
21690.0 3.6522e-05
21710.0 3.6666e-05
21730.0 3.6815e-05
21750.0 3.6971e-05
21770.0 3.711e-05
21790.0 3.7249e-05
21810.0 3.7398e-05
21830.0 3.7543e-05
21850.0 3.7678e-05
21870.0 3.782e-05
21890.0 3.7972e-05
21910.0 3.8113e-05
21930.0 3.8255e-05
21950.0 3.8409e-05
21970.0 3.8563e-05
21990.0 3.8705e-05
22010.0 3.8866e-05
22030.0 3.9037e-05
22050.0 3.9205e-05
22070.0 3.938e-05
22090.0 3.9576e-05
22110.0 3.9773e-05
22130.0 3.9973e-05
22150.0 4.019e-05
22170.0 4.0421e-05
22190.0 4.065e-05
22210.0 4.089e-05
22230.0 4.1152e-05
22250.0 4.1417e-05
22270.0 4.1686e-05
22290.0 4.1971e-05
22310.0 4.2266e-05
22330.0 4.2555e-05
22350.0 4.2855e-05
22370.0 4.3168e-05
22390.0 4.348e-05
22410.0 4.379e-05
22430.0 4.4116e-05
22450.0 4.4448e-05
22470.0 4.4775e-05
22490.0 4.5111e-05
22510.0 4.5459e-05
22530.0 4.5803e-05
22550.0 4.6148e-05
22570.0 4.651e-05
22590.0 4.6878e-05
22610.0 4.7245e-05
22630.0 4.7622e-05
22650.0 4.8016e-05
22670.0 4.841e-05
22690.0 4.8809e-05
22710.0 4.9225e-05
22730.0 4.9649e-05
22750.0 5.0071e-05
22770.0 5.051e-05
22790.0 5.0966e-05
22810.0 5.1427e-05
22830.0 5.1898e-05
22850.0 5.239e-05
22870.0 5.2895e-05
22890.0 5.341e-05
22910.0 5.3947e-05
22930.0 5.4506e-05
22950.0 5.5082e-05
22970.0 5.5677e-05
