#lamb flux
1010.0 1.8853e-07
1030.0 2.1248e-07
1050.0 2.4003e-07
1070.0 2.7104e-07
1090.0 3.0627e-07
1110.0 3.424e-07
1130.0 3.7876e-07
1150.0 4.1686e-07
1170.0 4.5615e-07
1190.0 4.9341e-07
1210.0 5.3117e-07
1230.0 5.7019e-07
1250.0 6.0842e-07
1270.0 6.4555e-07
1290.0 6.8478e-07
1310.0 7.2399e-07
1330.0 7.6158e-07
1350.0 7.996e-07
1370.0 8.3885e-07
1390.0 8.7711e-07
1410.0 9.1424e-07
1430.0 9.5305e-07
1450.0 9.9185e-07
1470.0 1.0293e-06
1490.0 1.0672e-06
1510.0 1.1073e-06
1530.0 1.1452e-06
1550.0 1.1825e-06
1570.0 1.2212e-06
1590.0 1.2599e-06
1610.0 1.2968e-06
1630.0 1.3349e-06
1650.0 1.3739e-06
1670.0 1.4116e-06
1690.0 1.4488e-06
1710.0 1.4874e-06
1730.0 1.5261e-06
1750.0 1.5624e-06
1770.0 1.5997e-06
1790.0 1.6377e-06
1810.0 1.6744e-06
1830.0 1.7102e-06
1850.0 1.7481e-06
1870.0 1.7849e-06
1890.0 1.8201e-06
1910.0 1.8559e-06
1930.0 1.8923e-06
1950.0 1.9266e-06
1970.0 1.9602e-06
1990.0 1.9947e-06
2010.0 2.0282e-06
2030.0 2.0598e-06
2050.0 2.092e-06
2070.0 2.1246e-06
2090.0 2.1543e-06
2110.0 2.1832e-06
2130.0 2.2124e-06
2150.0 2.2401e-06
2170.0 2.2653e-06
2190.0 2.2909e-06
2210.0 2.3156e-06
2230.0 2.3377e-06
2250.0 2.3586e-06
2270.0 2.3797e-06
2290.0 2.3984e-06
2310.0 2.4144e-06
2330.0 2.43e-06
2350.0 2.4445e-06
2370.0 2.4563e-06
2390.0 2.4673e-06
2410.0 2.4792e-06
2430.0 2.4899e-06
2450.0 2.5005e-06
2470.0 2.514e-06
2490.0 2.5318e-06
2510.0 2.5529e-06
2530.0 2.5858e-06
2550.0 2.6431e-06
2570.0 2.7364e-06
2590.0 2.8817e-06
2610.0 3.123e-06
2630.0 3.4707e-06
2650.0 3.9048e-06
2670.0 4.4299e-06
2690.0 5.0231e-06
2710.0 5.5939e-06
2730.0 6.0974e-06
2750.0 6.539e-06
2770.0 6.8686e-06
2790.0 7.0819e-06
2810.0 7.2146e-06
2830.0 7.2903e-06
2850.0 7.3096e-06
2870.0 7.3018e-06
2890.0 7.2829e-06
2910.0 7.2552e-06
2930.0 7.2194e-06
2950.0 7.1858e-06
2970.0 7.1541e-06
2990.0 7.1198e-06
3010.0 0.00014734
3030.0 0.00014657
3050.0 0.00014582
3070.0 0.00014493
3090.0 0.000144
3110.0 0.00014286
3130.0 0.00014134
3150.0 0.00013935
3170.0 0.00013675
3190.0 0.00013359
3210.0 0.00013015
3230.0 0.0001267
3250.0 0.00012383
3270.0 0.00012193
3290.0 0.0001215
3310.0 0.00012244
3330.0 0.00012506
3350.0 0.00012894
3370.0 0.00013417
3390.0 0.0001406
3410.0 0.00014751
3430.0 0.00015524
3450.0 0.00016408
3470.0 0.00017365
3490.0 0.00018369
3510.0 0.00019489
3530.0 0.00020677
3550.0 0.00021865
3570.0 0.00023104
3590.0 0.00024482
3610.0 0.00025901
3630.0 0.00027394
3650.0 0.00028947
3670.0 0.00030407
3690.0 0.00031547
3710.0 0.00032257
3730.0 0.00032396
3750.0 0.0003196
3770.0 0.00029402
3790.0 0.00026528
3810.0 0.00024596
3830.0 0.00021481
3850.0 0.00015985
3870.0 0.00011364
3890.0 0.00018999
3910.0 0.00030899
3930.0 0.00037369
3950.0 0.00036718
3970.0 0.00037531
3990.0 0.00044083
4010.0 0.00056626
4030.0 0.00057309
4050.0 0.00050792
4070.0 0.00045019
4090.0 0.00042561
4110.0 0.00051301
4130.0 0.00053622
4150.0 0.00052327
4170.0 0.00053065
4190.0 0.00054098
4210.0 0.00053401
4230.0 0.00058983
4250.0 0.00064472
4270.0 0.000654
4290.0 0.00066215
4310.0 0.00067913
4330.0 0.00074881
4350.0 0.00086354
4370.0 0.00098043
4390.0 0.00093071
4410.0 0.00076216
4430.0 0.00063956
4450.0 0.00054783
4470.0 0.00053179
4490.0 0.00058427
4510.0 0.0006554
4530.0 0.00072416
4550.0 0.00083876
4570.0 0.0009925
4590.0 0.0012032
4610.0 0.0015452
4630.0 0.0018772
4650.0 0.0019303
4670.0 0.0018638
4690.0 0.0019863
4710.0 0.0020975
4730.0 0.0017791
4750.0 0.0012712
4770.0 0.0010357
4790.0 0.0010009
4810.0 0.00093064
4830.0 0.00087821
4850.0 0.0010057
4870.0 0.0012981
4890.0 0.001492
4910.0 0.0012659
4930.0 0.0011202
4950.0 0.0012541
4970.0 0.0016809
4990.0 0.0021806
5010.0 0.0023199
5030.0 0.001919
5050.0 0.0012388
5070.0 0.00085117
5090.0 0.00075535
5110.0 0.00078939
5130.0 0.00084987
5150.0 0.00089277
5170.0 0.00089176
5190.0 0.00087284
5210.0 0.00084536
5230.0 0.00086645
5250.0 0.00092611
5270.0 0.0010659
5290.0 0.0012299
5310.0 0.0013553
5330.0 0.0013908
5350.0 0.0014016
5370.0 0.0015236
5390.0 0.0016466
5410.0 0.0016019
5430.0 0.0013847
5450.0 0.0012737
5470.0 0.0014271
5490.0 0.0018309
5510.0 0.0023395
5530.0 0.0026016
5550.0 0.0025232
5570.0 0.0022874
5590.0 0.0020404
5610.0 0.0018856
5630.0 0.0017907
5650.0 0.0018316
5670.0 0.0017885
5690.0 0.0016601
5710.0 0.0015725
5730.0 0.0014272
5750.0 0.0010251
5770.0 0.00089009
5790.0 0.0010014
5810.0 0.0012106
5830.0 0.0013785
5850.0 0.0015126
5870.0 0.0015576
5890.0 0.0015052
5910.0 0.0014413
5930.0 0.0014455
5950.0 0.0015145
5970.0 0.0016144
5990.0 0.0015296
6010.0 0.0012871
6030.0 0.0010691
6050.0 0.00092777
6070.0 0.00092214
6090.0 0.0010394
6110.0 0.0011418
6130.0 0.0011005
6150.0 0.0010147
6170.0 0.0011033
6190.0 0.0013299
6210.0 0.0016224
6230.0 0.0018693
6250.0 0.0018741
6270.0 0.001678
6290.0 0.0013897
6310.0 0.0011043
6330.0 0.00087793
6350.0 0.00079038
6370.0 0.00085515
6390.0 0.0010112
6410.0 0.0011679
6430.0 0.001354
6450.0 0.0015758
6470.0 0.0019269
6490.0 0.0023724
6510.0 0.0026242
6530.0 0.0024404
6550.0 0.0022405
6570.0 0.002176
6590.0 0.0020916
6610.0 0.0018676
6630.0 0.0016816
6650.0 0.0015474
6670.0 0.0016038
6690.0 0.0015837
6710.0 0.0014069
6730.0 0.0012785
6750.0 0.0011456
6770.0 0.0011122
6790.0 0.0012253
6810.0 0.001261
6830.0 0.0012947
6850.0 0.001268
6870.0 0.0012135
6890.0 0.0011845
6910.0 0.00114
6930.0 0.0010709
6950.0 0.0010892
6970.0 0.0011054
6990.0 0.0012344
7010.0 0.0013155
7030.0 0.0012051
7050.0 0.0011301
7070.0 0.001097
7090.0 0.0010042
7110.0 0.00094095
7130.0 0.00096138
7150.0 0.0010091
7170.0 0.0010706
7190.0 0.0010781
7210.0 0.0010696
7230.0 0.001114
7250.0 0.0012767
7270.0 0.0014937
7290.0 0.0016196
7310.0 0.0015823
7330.0 0.0014082
7350.0 0.0012617
7370.0 0.0012167
7390.0 0.0012273
7410.0 0.0012826
7430.0 0.0014018
7450.0 0.0015179
7470.0 0.001668
7490.0 0.0018475
7510.0 0.0017957
7530.0 0.0016999
7550.0 0.0014194
7570.0 0.0011609
7590.0 0.00092107
7610.0 0.00083569
7630.0 0.00088064
7650.0 0.0010078
7670.0 0.0011165
7690.0 0.0012638
7710.0 0.0013898
7730.0 0.0014426
7750.0 0.0014603
7770.0 0.0014525
7790.0 0.0014161
7810.0 0.0014545
7830.0 0.0014107
7850.0 0.0012597
7870.0 0.0011344
7890.0 0.0010448
7910.0 0.00092707
7930.0 0.00079521
7950.0 0.00072474
7970.0 0.00071752
7990.0 0.0007476
8010.0 0.00079272
8030.0 0.0008007
8050.0 0.00080011
8070.0 0.0007796
8090.0 0.00078386
8110.0 0.00074192
8130.0 0.00067571
8150.0 0.00063406
8170.0 0.00060589
8190.0 0.00061259
8210.0 0.0006277
8230.0 0.00066164
8250.0 0.00064356
8270.0 0.00057534
8290.0 0.00045143
8310.0 0.00030699
8330.0 0.00020095
8350.0 0.00014397
8370.0 0.00016628
8390.0 0.0001866
8410.0 0.00023857
8430.0 0.00028993
8450.0 0.00031866
8470.0 0.00033826
8490.0 0.00034136
8510.0 0.00035171
8530.0 0.00038437
8550.0 0.00043573
8570.0 0.00052037
8590.0 0.00062571
8610.0 0.00074082
8630.0 0.00086398
8650.0 0.00095269
8670.0 0.00094744
8690.0 0.00090384
8710.0 0.00085111
8730.0 0.00080754
8750.0 0.00076298
8770.0 0.00073764
8790.0 0.00072117
8810.0 0.00067734
8830.0 0.00059543
8850.0 0.00050756
8870.0 0.00042866
8890.0 0.00039657
8910.0 0.00040931
8930.0 0.00041852
8950.0 0.0004628
8970.0 0.00047282
8990.0 0.00048256
9010.0 0.00048795
9030.0 0.00048976
9050.0 0.00049283
9070.0 0.00049514
9090.0 0.00049685
9110.0 0.0004981
9130.0 0.00049944
9150.0 0.00050094
9170.0 0.00050251
9190.0 0.00050414
9210.0 0.00050608
9230.0 0.00050791
9250.0 0.00050991
9270.0 0.00051201
9290.0 0.00051421
9310.0 0.00051657
9330.0 0.00051904
9350.0 0.00052158
9370.0 0.00052425
9390.0 0.00052706
9410.0 0.00052995
9430.0 0.00053291
9450.0 0.00053604
9470.0 0.00053927
9490.0 0.00054256
9510.0 0.00054596
9530.0 0.0005495
9550.0 0.00055308
9570.0 0.00055674
9590.0 0.00056053
9610.0 0.00056441
9630.0 0.00056833
9650.0 0.00057236
9670.0 0.00057651
9690.0 0.00058069
9710.0 0.00058493
9730.0 0.0005893
9750.0 0.00059372
9770.0 0.00059813
9790.0 0.00060266
9810.0 0.00060728
9830.0 0.00061191
9850.0 0.00061658
9870.0 0.00062136
9890.0 0.00062616
9910.0 0.00063096
9930.0 0.00063583
9950.0 0.00064074
9970.0 0.00064565
9990.0 0.00065056
10010.0 0.00063375
10030.0 0.00063848
10050.0 0.00064318
10070.0 0.00064784
10090.0 0.00065266
10110.0 0.00065739
10130.0 0.00066212
10150.0 0.00066689
10170.0 0.00067161
10190.0 0.00067624
10210.0 0.00068093
10230.0 0.0006856
10250.0 0.00069017
10270.0 0.00069472
10290.0 0.00069929
10310.0 0.00070374
10330.0 0.0007081
10350.0 0.00071247
10370.0 0.0007168
10390.0 0.00072099
10410.0 0.00072512
10430.0 0.00072927
10450.0 0.00073326
10470.0 0.00073714
10490.0 0.000741
10510.0 0.00074477
10530.0 0.00074834
10550.0 0.00075185
10570.0 0.00075534
10590.0 0.00075865
10610.0 0.00076183
10630.0 0.00076496
10650.0 0.00076797
10670.0 0.00077077
10690.0 0.00077349
10710.0 0.00077613
10730.0 0.00077858
10750.0 0.00078083
10770.0 0.00078308
10790.0 0.00078516
10810.0 0.00078702
10830.0 0.00078875
10850.0 0.00079034
10870.0 0.00079151
10890.0 0.00079223
10910.0 0.00079237
10930.0 0.00079147
10950.0 0.00078885
10970.0 0.00078428
10990.0 0.00077758
11010.0 0.00075028
11030.0 0.00073768
11050.0 0.00072292
11070.0 0.00070555
11090.0 0.00068481
11110.0 0.00066351
11130.0 0.0006414
11150.0 0.00061769
11170.0 0.0005935
11190.0 0.0005704
11210.0 0.00054697
11230.0 0.00052351
11250.0 0.00050172
11270.0 0.0004814
11290.0 0.00046167
11310.0 0.00044359
11330.0 0.00042817
11350.0 0.00041397
11370.0 0.00040111
11390.0 0.00039011
11410.0 0.00038046
11430.0 0.00037129
11450.0 0.00036301
11470.0 0.00035536
11490.0 0.00034766
11510.0 0.00033957
11530.0 0.00033147
11550.0 0.00032298
11570.0 0.00031361
11590.0 0.00030375
11610.0 0.00029372
11630.0 0.00028292
11650.0 0.0002716
11670.0 0.0002607
11690.0 0.00024993
11710.0 0.00023911
11730.0 0.00022891
11750.0 0.00021969
11770.0 0.00021085
11790.0 0.00020273
11810.0 0.00019569
11830.0 0.00018943
11850.0 0.00018367
11870.0 0.00017877
11890.0 0.00017456
11910.0 0.00017065
11930.0 0.00016703
11950.0 0.0001637
11970.0 0.00016042
11990.0 0.00015699
12010.0 0.00015353
12030.0 0.00015
12050.0 0.00014623
12070.0 0.00014225
12090.0 0.0001384
12110.0 0.0001345
12130.0 0.00013059
12150.0 0.00012695
12170.0 0.00012369
12190.0 0.00012069
12210.0 0.00011825
12230.0 0.00011648
12250.0 0.00011536
12270.0 0.00011497
12290.0 0.00011532
12310.0 0.00011635
12330.0 0.00011815
12350.0 0.00012062
12370.0 0.00012354
12390.0 0.00012697
12410.0 0.00013102
12430.0 0.00013509
12450.0 0.00013922
12470.0 0.00014351
12490.0 0.00014769
12510.0 0.00015144
12530.0 0.000155
12550.0 0.00015824
12570.0 0.00016086
12590.0 0.00016293
12610.0 0.00016453
12630.0 0.00016549
12650.0 0.00016578
12670.0 0.00016555
12690.0 0.00016476
12710.0 0.00016346
12730.0 0.00016174
12750.0 0.00015954
12770.0 0.000157
12790.0 0.00015422
12810.0 0.00015115
12830.0 0.0001478
12850.0 0.0001444
12870.0 0.00014088
12890.0 0.00013713
12910.0 0.00013332
12930.0 0.00012954
12950.0 0.00012556
12970.0 0.00012144
12990.0 0.00011744
13010.0 0.0001134
13030.0 0.00010923
13050.0 0.00010514
13070.0 0.00010122
13090.0 9.7232e-05
13110.0 9.3334e-05
13130.0 8.9709e-05
13150.0 8.6273e-05
13170.0 8.2938e-05
13190.0 7.9999e-05
13210.0 7.7454e-05
13230.0 7.5196e-05
13250.0 7.3326e-05
13270.0 7.1921e-05
13290.0 7.0912e-05
13310.0 7.0325e-05
13330.0 7.0182e-05
13350.0 7.043e-05
13370.0 7.1079e-05
13390.0 7.2115e-05
13410.0 7.3364e-05
13430.0 7.4877e-05
13450.0 7.6638e-05
13470.0 7.8482e-05
13490.0 8.0336e-05
13510.0 8.2342e-05
13530.0 8.4279e-05
13550.0 8.6045e-05
13570.0 8.7714e-05
13590.0 8.9272e-05
13610.0 9.0581e-05
13630.0 9.1654e-05
13650.0 9.2571e-05
13670.0 9.3253e-05
13690.0 9.369e-05
13710.0 9.3934e-05
13730.0 9.3985e-05
13750.0 9.3826e-05
13770.0 9.35e-05
13790.0 9.3013e-05
13810.0 9.2377e-05
13830.0 9.1634e-05
13850.0 9.0759e-05
13870.0 8.976e-05
13890.0 8.869e-05
13910.0 8.7547e-05
13930.0 8.6288e-05
13950.0 8.4967e-05
13970.0 8.3656e-05
13990.0 8.2274e-05
14010.0 8.085e-05
14030.0 7.9464e-05
14050.0 7.8104e-05
14070.0 7.6711e-05
14090.0 7.5412e-05
14110.0 7.4222e-05
14130.0 7.3105e-05
14150.0 7.2091e-05
14170.0 7.1258e-05
14190.0 7.0571e-05
14210.0 7.0033e-05
14230.0 6.968e-05
14250.0 6.9507e-05
14270.0 6.9514e-05
14290.0 6.9713e-05
14310.0 7.0069e-05
14330.0 7.058e-05
14350.0 7.126e-05
14370.0 7.2054e-05
14390.0 7.2921e-05
14410.0 7.3916e-05
14430.0 7.499e-05
14450.0 7.6077e-05
14470.0 7.7208e-05
14490.0 7.8433e-05
14510.0 7.9641e-05
14530.0 8.0845e-05
14550.0 8.2133e-05
14570.0 8.3486e-05
14590.0 8.4854e-05
14610.0 8.6339e-05
14630.0 8.8007e-05
14650.0 8.9764e-05
14670.0 9.1645e-05
14690.0 9.3768e-05
14710.0 9.6119e-05
14730.0 9.8511e-05
14750.0 0.00010113
14770.0 0.00010398
14790.0 0.00010689
14810.0 0.00010984
14830.0 0.00011303
14850.0 0.00011619
14870.0 0.00011919
14890.0 0.00012214
14910.0 0.000125
14930.0 0.00012752
14950.0 0.0001297
14970.0 0.00013161
14990.0 0.0001331
15010.0 0.00013415
15030.0 0.00013486
15050.0 0.00013525
15070.0 0.00013537
15090.0 0.00013532
15110.0 0.00013516
15130.0 0.00013492
15150.0 0.00013467
15170.0 0.00013438
15190.0 0.00013408
15210.0 0.0001338
15230.0 0.00013351
15250.0 0.00013321
15270.0 0.00013292
15290.0 0.00013265
15310.0 0.00013236
15330.0 0.00013207
15350.0 0.0001318
15370.0 0.00013153
15390.0 0.00013123
15410.0 0.00013096
15430.0 0.00013069
15450.0 0.00013041
15470.0 0.00013012
15490.0 0.00012986
15510.0 0.00012959
15530.0 0.00012931
15550.0 0.00012904
15570.0 0.00012877
15590.0 0.0001285
15610.0 0.00012821
15630.0 0.00012795
15650.0 0.00012768
15670.0 0.0001274
15690.0 0.00012712
15710.0 0.00012686
15730.0 0.00012658
15750.0 0.0001263
15770.0 0.00012603
15790.0 0.00012575
15810.0 0.00012546
15830.0 0.00012518
15850.0 0.00012491
15870.0 0.00012463
15890.0 0.00012434
15910.0 0.00012407
15930.0 0.00012379
15950.0 0.00012349
15970.0 0.0001232
15990.0 0.00012292
16010.0 0.00012262
16030.0 0.00012232
16050.0 0.00012204
16070.0 0.00012174
16090.0 0.00012144
16110.0 0.00012114
16130.0 0.00012085
16150.0 0.00012054
16170.0 0.00012022
16190.0 0.00011992
16210.0 0.00011962
16230.0 0.00011929
16250.0 0.00011898
16270.0 0.00011868
16290.0 0.00011835
16310.0 0.00011803
16330.0 0.00011771
16350.0 0.00011739
16370.0 0.00011704
16390.0 0.00011672
16410.0 0.00011639
16430.0 0.00011605
16450.0 0.00011571
16470.0 0.00011539
16490.0 0.00011504
16510.0 0.00011469
16530.0 0.00011434
16550.0 0.000114
16570.0 0.00011364
16590.0 0.00011327
16610.0 0.00011293
16630.0 0.00011257
16650.0 0.0001122
16670.0 0.00011184
16690.0 0.00011148
16710.0 0.0001111
16730.0 0.00011072
16750.0 0.00011035
16770.0 0.00010997
16790.0 0.00010958
16810.0 0.00010921
16830.0 0.00010883
16850.0 0.00010843
16870.0 0.00010804
16890.0 0.00010766
16910.0 0.00010726
16930.0 0.00010685
16950.0 0.00010646
16970.0 0.00010606
16990.0 0.00010564
17010.0 0.00010524
17030.0 0.00010484
17050.0 0.00010442
17070.0 0.000104
17090.0 0.00010359
17110.0 0.00010318
17130.0 0.00010274
17150.0 0.00010232
17170.0 0.00010191
17190.0 0.00010147
17210.0 0.00010104
17230.0 0.00010062
17250.0 0.00010019
17270.0 9.9742e-05
17290.0 9.9307e-05
17310.0 9.8875e-05
17330.0 9.8428e-05
17350.0 9.7977e-05
17370.0 9.7545e-05
17390.0 9.7101e-05
17410.0 9.6646e-05
17430.0 9.6201e-05
17450.0 9.576e-05
17470.0 9.5294e-05
17490.0 9.4836e-05
17510.0 9.4389e-05
17530.0 9.3932e-05
17550.0 9.3465e-05
17570.0 9.3011e-05
17590.0 9.2559e-05
17610.0 9.2089e-05
17630.0 9.1624e-05
17650.0 9.1168e-05
17670.0 9.0702e-05
17690.0 9.0219e-05
17710.0 8.9759e-05
17730.0 8.9296e-05
17750.0 8.8821e-05
17770.0 8.8349e-05
17790.0 8.789e-05
17810.0 8.7413e-05
17830.0 8.6932e-05
17850.0 8.6463e-05
17870.0 8.5994e-05
17890.0 8.5509e-05
17910.0 8.5029e-05
17930.0 8.4565e-05
17950.0 8.4087e-05
17970.0 8.3604e-05
17990.0 8.3134e-05
18010.0 8.2662e-05
18030.0 8.217e-05
18050.0 8.1692e-05
18070.0 8.1221e-05
18090.0 8.0739e-05
18110.0 8.0252e-05
18130.0 7.9782e-05
18150.0 7.9307e-05
18170.0 7.8821e-05
18190.0 7.8343e-05
18210.0 7.7873e-05
18230.0 7.7387e-05
18250.0 7.6898e-05
18270.0 7.6428e-05
18290.0 7.5952e-05
18310.0 7.5466e-05
18330.0 7.4991e-05
18350.0 7.4524e-05
18370.0 7.404e-05
18390.0 7.3558e-05
18410.0 7.3089e-05
18430.0 7.2614e-05
18450.0 7.2126e-05
18470.0 7.1654e-05
18490.0 7.1188e-05
18510.0 7.071e-05
18530.0 7.0234e-05
18550.0 6.9772e-05
18570.0 6.93e-05
18590.0 6.8818e-05
18610.0 6.8351e-05
18630.0 6.7887e-05
18650.0 6.7413e-05
18670.0 6.6938e-05
18690.0 6.6483e-05
18710.0 6.6018e-05
18730.0 6.5546e-05
18750.0 6.5086e-05
18770.0 6.4632e-05
18790.0 6.4157e-05
18810.0 6.3693e-05
18830.0 6.3241e-05
18850.0 6.2782e-05
18870.0 6.2316e-05
18890.0 6.1866e-05
18910.0 6.1417e-05
18930.0 6.0955e-05
18950.0 6.0501e-05
18970.0 6.0057e-05
18990.0 5.9605e-05
19010.0 5.9141e-05
19030.0 5.8701e-05
19050.0 5.8259e-05
19070.0 5.7808e-05
19090.0 5.7363e-05
19110.0 5.6932e-05
19130.0 5.6484e-05
19150.0 5.6037e-05
19170.0 5.5604e-05
19190.0 5.517e-05
19210.0 5.4725e-05
19230.0 5.4288e-05
19250.0 5.3865e-05
19270.0 5.3431e-05
19290.0 5.2996e-05
19310.0 5.2574e-05
19330.0 5.2151e-05
19350.0 5.1713e-05
19370.0 5.1289e-05
19390.0 5.0873e-05
19410.0 5.0448e-05
19430.0 5.0022e-05
19450.0 4.9612e-05
19470.0 4.9199e-05
19490.0 4.8777e-05
19510.0 4.8364e-05
19530.0 4.796e-05
19550.0 4.7542e-05
19570.0 4.7125e-05
19590.0 4.6725e-05
19610.0 4.6321e-05
19630.0 4.591e-05
19650.0 4.551e-05
19670.0 4.5118e-05
19690.0 4.4711e-05
19710.0 4.4309e-05
19730.0 4.3919e-05
19750.0 4.3524e-05
19770.0 4.312e-05
19790.0 4.2731e-05
19810.0 4.2347e-05
19830.0 4.1953e-05
19850.0 4.1561e-05
19870.0 4.1178e-05
19890.0 4.0779e-05
19910.0 4.0358e-05
19930.0 3.9929e-05
19950.0 3.9469e-05
19970.0 3.8948e-05
19990.0 3.8367e-05
20010.0 3.8495e-05
20030.0 3.7776e-05
20050.0 3.6981e-05
20070.0 3.6157e-05
20090.0 3.5305e-05
20110.0 3.4383e-05
20130.0 3.3481e-05
20150.0 3.2615e-05
20170.0 3.1745e-05
20190.0 3.0888e-05
20210.0 3.0097e-05
20230.0 2.9343e-05
20250.0 2.8604e-05
20270.0 2.793e-05
20290.0 2.7324e-05
20310.0 2.6757e-05
20330.0 2.6239e-05
20350.0 2.5813e-05
20370.0 2.5444e-05
20390.0 2.5132e-05
20410.0 2.489e-05
20430.0 2.4715e-05
20450.0 2.4595e-05
20470.0 2.4538e-05
20490.0 2.4538e-05
20510.0 2.459e-05
20530.0 2.4695e-05
20550.0 2.4841e-05
20570.0 2.5018e-05
20590.0 2.5236e-05
20610.0 2.5485e-05
20630.0 2.5747e-05
20650.0 2.603e-05
20670.0 2.6346e-05
20690.0 2.6657e-05
20710.0 2.697e-05
20730.0 2.73e-05
20750.0 2.7636e-05
20770.0 2.7956e-05
20790.0 2.8286e-05
20810.0 2.8628e-05
20830.0 2.8961e-05
20850.0 2.929e-05
20870.0 2.9641e-05
20890.0 2.9996e-05
20910.0 3.0336e-05
20930.0 3.0691e-05
20950.0 3.106e-05
20970.0 3.1422e-05
20990.0 3.1782e-05
21010.0 3.2164e-05
21030.0 3.2541e-05
21050.0 3.2901e-05
21070.0 3.3264e-05
21090.0 3.3632e-05
21110.0 3.3967e-05
21130.0 3.4284e-05
21150.0 3.4594e-05
21170.0 3.4879e-05
21190.0 3.5127e-05
21210.0 3.5359e-05
21230.0 3.5564e-05
21250.0 3.5725e-05
21270.0 3.585e-05
21290.0 3.5942e-05
21310.0 3.599e-05
21330.0 3.5992e-05
21350.0 3.5951e-05
21370.0 3.586e-05
21390.0 3.5721e-05
21410.0 3.5534e-05
21430.0 3.5281e-05
21450.0 3.4981e-05
21470.0 3.4638e-05
21490.0 3.4237e-05
21510.0 3.3781e-05
21530.0 3.3301e-05
21550.0 3.2782e-05
21570.0 3.2211e-05
21590.0 3.163e-05
21610.0 3.1048e-05
21630.0 3.0444e-05
21650.0 2.9828e-05
21670.0 2.9267e-05
21690.0 2.8722e-05
21710.0 2.8197e-05
21730.0 2.7726e-05
21750.0 2.7319e-05
21770.0 2.6947e-05
21790.0 2.6645e-05
21810.0 2.6421e-05
21830.0 2.6263e-05
21850.0 2.6175e-05
21870.0 2.6164e-05
21890.0 2.6219e-05
21910.0 2.6346e-05
21930.0 2.6541e-05
21950.0 2.6789e-05
21970.0 2.7097e-05
21990.0 2.7478e-05
22010.0 2.7889e-05
22030.0 2.8334e-05
22050.0 2.883e-05
22070.0 2.9358e-05
22090.0 2.9884e-05
22110.0 3.0439e-05
22130.0 3.102e-05
22150.0 3.1585e-05
22170.0 3.2138e-05
22190.0 3.2705e-05
22210.0 3.325e-05
22230.0 3.3743e-05
22250.0 3.4216e-05
22270.0 3.466e-05
22290.0 3.5043e-05
22310.0 3.5374e-05
22330.0 3.5665e-05
22350.0 3.5886e-05
22370.0 3.6038e-05
22390.0 3.6127e-05
22410.0 3.6143e-05
22430.0 3.6086e-05
22450.0 3.596e-05
22470.0 3.5756e-05
22490.0 3.5481e-05
22510.0 3.5147e-05
22530.0 3.473e-05
22550.0 3.4233e-05
22570.0 3.3694e-05
22590.0 3.3096e-05
22610.0 3.2418e-05
22630.0 3.1694e-05
22650.0 3.0955e-05
22670.0 3.0145e-05
22690.0 2.9287e-05
22710.0 2.8427e-05
22730.0 2.7545e-05
22750.0 2.6593e-05
22770.0 2.5666e-05
