#lamb flux
1010.0 1.4727e-07
1030.0 1.613e-07
1050.0 1.7744e-07
1070.0 1.9561e-07
1090.0 2.1624e-07
1110.0 2.3741e-07
1130.0 2.5872e-07
1150.0 2.8104e-07
1170.0 3.0407e-07
1190.0 3.2591e-07
1210.0 3.4805e-07
1230.0 3.7093e-07
1250.0 3.9335e-07
1270.0 4.1513e-07
1290.0 4.3815e-07
1310.0 4.6116e-07
1330.0 4.8323e-07
1350.0 5.0555e-07
1370.0 5.286e-07
1390.0 5.5108e-07
1410.0 5.729e-07
1430.0 5.9572e-07
1450.0 6.1853e-07
1470.0 6.4059e-07
1490.0 6.6289e-07
1510.0 6.8645e-07
1530.0 7.0877e-07
1550.0 7.3079e-07
1570.0 7.5357e-07
1590.0 7.7637e-07
1610.0 7.9815e-07
1630.0 8.206e-07
1650.0 8.4362e-07
1670.0 8.6588e-07
1690.0 8.8783e-07
1710.0 9.106e-07
1730.0 9.3348e-07
1750.0 9.5494e-07
1770.0 9.77e-07
1790.0 9.9947e-07
1810.0 1.0211e-06
1830.0 1.0424e-06
1850.0 1.0648e-06
1870.0 1.0866e-06
1890.0 1.1075e-06
1910.0 1.1288e-06
1930.0 1.1504e-06
1950.0 1.1709e-06
1970.0 1.1909e-06
1990.0 1.2115e-06
2010.0 1.2316e-06
2030.0 1.2507e-06
2050.0 1.2701e-06
2070.0 1.2898e-06
2090.0 1.308e-06
2110.0 1.3257e-06
2130.0 1.3437e-06
2150.0 1.3609e-06
2170.0 1.3768e-06
2190.0 1.393e-06
2210.0 1.4088e-06
2230.0 1.4233e-06
2250.0 1.4372e-06
2270.0 1.4514e-06
2290.0 1.4643e-06
2310.0 1.4758e-06
2330.0 1.4872e-06
2350.0 1.4982e-06
2370.0 1.5076e-06
2390.0 1.5167e-06
2410.0 1.5263e-06
2430.0 1.535e-06
2450.0 1.5435e-06
2470.0 1.5534e-06
2490.0 1.5659e-06
2510.0 1.5816e-06
2530.0 1.6073e-06
2550.0 1.6536e-06
2570.0 1.7307e-06
2590.0 1.8504e-06
2610.0 2.0447e-06
2630.0 2.3186e-06
2650.0 2.654e-06
2670.0 3.052e-06
2690.0 3.4945e-06
2710.0 3.9168e-06
2730.0 4.2896e-06
2750.0 4.6195e-06
2770.0 4.8749e-06
2790.0 5.0554e-06
2810.0 5.1887e-06
2830.0 5.2943e-06
2850.0 5.369e-06
2870.0 5.4323e-06
2890.0 5.496e-06
2910.0 5.5575e-06
2930.0 5.6122e-06
2950.0 5.6712e-06
2970.0 5.7324e-06
2990.0 5.788e-06
3010.0 5.3161e-05
3030.0 5.368e-05
3050.0 5.417e-05
3070.0 5.4541e-05
3090.0 5.4842e-05
3110.0 5.4967e-05
3130.0 5.4783e-05
3150.0 5.4225e-05
3170.0 5.3168e-05
3190.0 5.1622e-05
3210.0 4.9727e-05
3230.0 4.7706e-05
3250.0 4.7517e-05
3270.0 4.5997e-05
3290.0 4.7807e-05
3310.0 4.6079e-05
3330.0 4.6965e-05
3350.0 4.8548e-05
3370.0 5.0621e-05
3390.0 5.3077e-05
3410.0 5.562e-05
3430.0 5.8341e-05
3450.0 6.1265e-05
3470.0 6.421e-05
3490.0 6.704e-05
3510.0 7.0618e-05
3530.0 7.4896e-05
3550.0 7.76e-05
3570.0 7.9595e-05
3590.0 8.4832e-05
3610.0 8.6138e-05
3630.0 9.2603e-05
3650.0 9.7368e-05
3670.0 0.00010242
3690.0 0.00010322
3710.0 0.00010035
3730.0 0.00010182
3750.0 0.00010183
3770.0 0.00010603
3790.0 0.00011228
3810.0 0.0001249
3830.0 0.00015113
3850.0 0.00018
3870.0 0.00020725
3890.0 0.00022517
3910.0 0.00023354
3930.0 0.00024292
3950.0 0.00025251
3970.0 0.00022143
3990.0 0.0001504
4010.0 0.00013006
4030.0 0.0001777
4050.0 0.00022403
4070.0 0.00019912
4090.0 0.00012275
4110.0 0.00011943
4130.0 0.00016984
4150.0 0.00019253
4170.0 0.00016208
4190.0 0.00013829
4210.0 0.00018144
4230.0 0.00019054
4250.0 0.00018098
4270.0 0.00018233
4290.0 0.00016625
4310.0 0.00018663
4330.0 0.00021751
4350.0 0.00024984
4370.0 0.00024877
4390.0 0.0002425
4410.0 0.00021403
4430.0 0.00016883
4450.0 0.00012851
4470.0 0.00013941
4490.0 0.0001509
4510.0 0.00020669
4530.0 0.00021554
4550.0 0.00021218
4570.0 0.00024652
4590.0 0.00031438
4610.0 0.00043009
4630.0 0.00052757
4650.0 0.00053263
4670.0 0.00054987
4690.0 0.00059262
4710.0 0.00058035
4730.0 0.00046776
4750.0 0.00033349
4770.0 0.00027848
4790.0 0.00024554
4810.0 0.0002327
4830.0 0.00025427
4850.0 0.00028557
4870.0 0.00033526
4890.0 0.00036811
4910.0 0.00032772
4930.0 0.00034106
4950.0 0.00042403
4970.0 0.00052525
4990.0 0.0006036
5010.0 0.00060336
5030.0 0.00051097
5050.0 0.00036993
5070.0 0.00027106
5090.0 0.00023447
5110.0 0.00024066
5130.0 0.00026212
5150.0 0.0002468
5170.0 0.00024584
5190.0 0.00024478
5210.0 0.00024934
5230.0 0.00027005
5250.0 0.00027899
5270.0 0.00030082
5290.0 0.00036127
5310.0 0.00040985
5330.0 0.00043322
5350.0 0.00044225
5370.0 0.0004727
5390.0 0.00049197
5410.0 0.00045254
5430.0 0.00041255
5450.0 0.00042183
5470.0 0.00050012
5490.0 0.00064175
5510.0 0.0007717
5530.0 0.00081299
5550.0 0.00078984
5570.0 0.00074706
5590.0 0.00069987
5610.0 0.00066989
5630.0 0.00068189
5650.0 0.00070471
5670.0 0.00068255
5690.0 0.00064296
5710.0 0.00062764
5730.0 0.00055548
5750.0 0.00044368
5770.0 0.0004043
5790.0 0.00045572
5810.0 0.00050756
5830.0 0.000567
5850.0 0.000583
5870.0 0.00056799
5890.0 0.00053853
5910.0 0.00050212
5930.0 0.00050116
5950.0 0.00052946
5970.0 0.00054106
5990.0 0.00047824
6010.0 0.0003896
6030.0 0.00031555
6050.0 0.00028553
6070.0 0.00030271
6090.0 0.00033996
6110.0 0.00034834
6130.0 0.00032627
6150.0 0.00032338
6170.0 0.00035748
6190.0 0.0004172
6210.0 0.00049971
6230.0 0.00056413
6250.0 0.00053521
6270.0 0.00046727
6290.0 0.00039025
6310.0 0.00030948
6330.0 0.00026216
6350.0 0.00025884
6370.0 0.00028409
6390.0 0.00031342
6410.0 0.00036668
6430.0 0.00045127
6450.0 0.00055562
6470.0 0.00065189
6490.0 0.00073688
6510.0 0.00078098
6530.0 0.00075353
6550.0 0.00072388
6570.0 0.00072734
6590.0 0.00072306
6610.0 0.00068818
6630.0 0.00064819
6650.0 0.00060305
6670.0 0.00059735
6690.0 0.00058228
6710.0 0.00053841
6730.0 0.00046843
6750.0 0.00041748
6770.0 0.0004306
6790.0 0.00045972
6810.0 0.0004995
6830.0 0.00050922
6850.0 0.00047858
6870.0 0.0004645
6890.0 0.00045514
6910.0 0.00043007
6930.0 0.00041534
6950.0 0.00041846
6970.0 0.00042743
6990.0 0.00045202
7010.0 0.00048661
7030.0 0.00047703
7050.0 0.00043232
7070.0 0.00038841
7090.0 0.0003319
7110.0 0.00029563
7130.0 0.00031065
7150.0 0.00033655
7170.0 0.00034291
7190.0 0.00033509
7210.0 0.00033159
7230.0 0.00037232
7250.0 0.00042404
7270.0 0.0004564
7290.0 0.00046059
7310.0 0.00043802
7330.0 0.0004023
7350.0 0.00037208
7370.0 0.00035339
7390.0 0.00034948
7410.0 0.00037358
7430.0 0.00043036
7450.0 0.00048046
7470.0 0.00054086
7490.0 0.00061836
7510.0 0.00059119
7530.0 0.00049794
7550.0 0.00041985
7570.0 0.00034913
7590.0 0.00028892
7610.0 0.00027972
7630.0 0.00029381
7650.0 0.00032428
7670.0 0.00037155
7690.0 0.00040911
7710.0 0.00046149
7730.0 0.00048246
7750.0 0.00049917
7770.0 0.00052807
7790.0 0.00053317
7810.0 0.00052526
7830.0 0.00049751
7850.0 0.00048626
7870.0 0.00047055
7890.0 0.00043249
7910.0 0.00039418
7930.0 0.00035843
7950.0 0.00030782
7970.0 0.00029268
7990.0 0.00030235
8010.0 0.00035042
8030.0 0.0003525
8050.0 0.00036603
8070.0 0.00035993
8090.0 0.00035989
8110.0 0.000351
8130.0 0.00033141
8150.0 0.00030804
8170.0 0.00030537
8190.0 0.00030941
8210.0 0.00031265
8230.0 0.00029281
8250.0 0.00027513
8270.0 0.00024219
8290.0 0.00019899
8310.0 0.00015752
8330.0 0.00011281
8350.0 8.4792e-05
8370.0 7.9679e-05
8390.0 8.7883e-05
8410.0 0.00010373
8430.0 0.00013013
8450.0 0.00014371
8470.0 0.000154
8490.0 0.00016928
8510.0 0.00018152
8530.0 0.00020136
8550.0 0.00023783
8570.0 0.00027139
8590.0 0.00029748
8610.0 0.00034221
8630.0 0.00039579
8650.0 0.0004169
8670.0 0.00042301
8690.0 0.00042095
8710.0 0.00040635
8730.0 0.00038951
8750.0 0.00036518
8770.0 0.00035888
8790.0 0.00034702
8810.0 0.00032086
8830.0 0.00030317
8850.0 0.00026415
8870.0 0.00024198
8890.0 0.00022275
8910.0 0.00024428
8930.0 0.00023106
8950.0 0.0002352
8970.0 0.00023958
8990.0 0.00023796
9010.0 0.00024102
9030.0 0.00023257
9050.0 0.00023198
9070.0 0.00023221
9090.0 0.00023245
9110.0 0.00023278
9130.0 0.00023302
9150.0 0.00023324
9170.0 0.00023313
9190.0 0.00023258
9210.0 0.00023501
9230.0 0.00023478
9250.0 0.00023484
9270.0 0.00023498
9290.0 0.00023518
9310.0 0.00023543
9330.0 0.0002357
9350.0 0.000236
9370.0 0.00023631
9390.0 0.00023664
9410.0 0.00023697
9430.0 0.00023733
9450.0 0.00023768
9470.0 0.00023804
9490.0 0.00023842
9510.0 0.00023881
9530.0 0.0002392
9550.0 0.00023962
9570.0 0.00024004
9590.0 0.00024047
9610.0 0.00024092
9630.0 0.00024138
9650.0 0.00024185
9670.0 0.00024233
9690.0 0.00024282
9710.0 0.00024333
9730.0 0.00024384
9750.0 0.00024437
9770.0 0.00024492
9790.0 0.00024548
9810.0 0.00024603
9830.0 0.00024661
9850.0 0.0002472
9870.0 0.00024779
9890.0 0.0002484
9910.0 0.00024902
9930.0 0.00024964
9950.0 0.00025011
9970.0 0.00025081
9990.0 0.0002515
10010.0 0.00025214
10030.0 0.00025282
10050.0 0.00025342
10070.0 0.00025353
10090.0 0.0002544
10110.0 0.00025526
10130.0 0.00025606
10150.0 0.00025684
10170.0 0.00025758
10190.0 0.00025828
10210.0 0.00025899
10230.0 0.0002597
10250.0 0.00026038
10270.0 0.00026106
10290.0 0.00026176
10310.0 0.00026244
10330.0 0.00026309
10350.0 0.00026377
10370.0 0.00026444
10390.0 0.00026508
10410.0 0.00026572
10430.0 0.00026637
10450.0 0.000267
10470.0 0.0002676
10490.0 0.00026821
10510.0 0.00026881
10530.0 0.00026937
10550.0 0.00026993
10570.0 0.00027049
10590.0 0.00027102
10610.0 0.00027153
10630.0 0.00027204
10650.0 0.00027253
10670.0 0.00027298
10690.0 0.00027342
10710.0 0.00027386
10730.0 0.00027426
10750.0 0.00027462
10770.0 0.000275
10790.0 0.00027535
10810.0 0.00027565
10830.0 0.00027593
10850.0 0.00027619
10870.0 0.00027632
10890.0 0.00027631
10910.0 0.00027609
10930.0 0.00027548
10950.0 0.00027424
10970.0 0.00027225
10990.0 0.00026944
11010.0 0.00027141
11030.0 0.00026577
11050.0 0.00025931
11070.0 0.00025191
11090.0 0.00024338
11110.0 0.00023492
11130.0 0.00022647
11150.0 0.00021783
11170.0 0.00020947
11190.0 0.00020192
11210.0 0.00019471
11230.0 0.00018795
11250.0 0.00018209
11270.0 0.00017699
11290.0 0.00017237
11310.0 0.0001684
11330.0 0.00016518
11350.0 0.00016229
11370.0 0.00015966
11390.0 0.0001573
11410.0 0.00015504
11430.0 0.0001526
11450.0 0.00015006
11470.0 0.00014739
11490.0 0.00014441
11510.0 0.00014106
11530.0 0.00013759
11550.0 0.00013393
11570.0 0.00012996
11590.0 0.0001259
11610.0 0.00012193
11630.0 0.00011782
11650.0 0.00011371
11670.0 0.00010991
11690.0 0.00010628
11710.0 0.00010273
11730.0 9.9457e-05
11750.0 9.6514e-05
11770.0 9.3676e-05
11790.0 9.1009e-05
11810.0 8.8596e-05
11830.0 8.6325e-05
11850.0 8.4063e-05
11870.0 8.1945e-05
11890.0 7.9936e-05
11910.0 7.789e-05
11930.0 7.582e-05
11950.0 7.3804e-05
11970.0 7.1745e-05
11990.0 6.9576e-05
12010.0 6.7432e-05
12030.0 6.5322e-05
12050.0 6.3164e-05
12070.0 6.1004e-05
12090.0 5.9036e-05
12110.0 5.7148e-05
12130.0 5.5365e-05
12150.0 5.3808e-05
12170.0 5.2504e-05
12190.0 5.14e-05
12210.0 5.0611e-05
12230.0 5.0153e-05
12250.0 5.0011e-05
12270.0 5.0219e-05
12290.0 5.075e-05
12310.0 5.1553e-05
12330.0 5.2685e-05
12350.0 5.4073e-05
12370.0 5.5601e-05
12390.0 5.7299e-05
12410.0 5.9201e-05
12430.0 6.1021e-05
12450.0 6.2792e-05
12470.0 6.4552e-05
12490.0 6.6181e-05
12510.0 6.7567e-05
12530.0 6.8812e-05
12550.0 6.9867e-05
12570.0 7.0644e-05
12590.0 7.118e-05
12610.0 7.1507e-05
12630.0 7.1588e-05
12650.0 7.1436e-05
12670.0 7.1094e-05
12690.0 7.0562e-05
12710.0 6.9876e-05
12730.0 6.9061e-05
12750.0 6.8091e-05
12770.0 6.7031e-05
12790.0 6.5913e-05
12810.0 6.4707e-05
12830.0 6.3412e-05
12850.0 6.2111e-05
12870.0 6.0768e-05
12890.0 5.9331e-05
12910.0 5.7855e-05
12930.0 5.6365e-05
12950.0 5.4767e-05
12970.0 5.3076e-05
12990.0 5.1399e-05
13010.0 4.9673e-05
13030.0 4.7859e-05
13050.0 4.6054e-05
13070.0 4.4314e-05
13090.0 4.2542e-05
13110.0 4.0815e-05
13130.0 3.9227e-05
13150.0 3.7748e-05
13170.0 3.6346e-05
13190.0 3.5154e-05
13210.0 3.4162e-05
13230.0 3.3324e-05
13250.0 3.2674e-05
13270.0 3.2224e-05
13290.0 3.1937e-05
13310.0 3.1809e-05
13330.0 3.1825e-05
13350.0 3.1949e-05
13370.0 3.2172e-05
13390.0 3.2467e-05
13410.0 3.2774e-05
13430.0 3.31e-05
13450.0 3.3429e-05
13470.0 3.3721e-05
13490.0 3.3966e-05
13510.0 3.4186e-05
13530.0 3.435e-05
13550.0 3.4458e-05
13570.0 3.4528e-05
13590.0 3.4566e-05
13610.0 3.4574e-05
13630.0 3.4563e-05
13650.0 3.4546e-05
13670.0 3.4525e-05
13690.0 3.4503e-05
13710.0 3.4485e-05
13730.0 3.4475e-05
13750.0 3.446e-05
13770.0 3.4442e-05
13790.0 3.4417e-05
13810.0 3.4375e-05
13830.0 3.4309e-05
13850.0 3.4216e-05
13870.0 3.4086e-05
13890.0 3.3919e-05
13910.0 3.3714e-05
13930.0 3.3463e-05
13950.0 3.3174e-05
13970.0 3.2869e-05
13990.0 3.2536e-05
14010.0 3.2186e-05
14030.0 3.1845e-05
14050.0 3.1514e-05
14070.0 3.1186e-05
14090.0 3.089e-05
14110.0 3.0631e-05
14130.0 3.0399e-05
14150.0 3.0199e-05
14170.0 3.004e-05
14190.0 2.9913e-05
14210.0 2.9817e-05
14230.0 2.9755e-05
14250.0 2.9725e-05
14270.0 2.973e-05
14290.0 2.9774e-05
14310.0 2.9851e-05
14330.0 2.9966e-05
14350.0 3.0126e-05
14370.0 3.0321e-05
14390.0 3.0542e-05
14410.0 3.0807e-05
14430.0 3.1104e-05
14450.0 3.1414e-05
14470.0 3.1748e-05
14490.0 3.2123e-05
14510.0 3.2505e-05
14530.0 3.29e-05
14550.0 3.3339e-05
14570.0 3.382e-05
14590.0 3.4326e-05
14610.0 3.4897e-05
14630.0 3.5562e-05
14650.0 3.6284e-05
14670.0 3.7075e-05
14690.0 3.7982e-05
14710.0 3.8995e-05
14730.0 4.0029e-05
14750.0 4.1156e-05
14770.0 4.2375e-05
14790.0 4.3603e-05
14810.0 4.4821e-05
14830.0 4.6115e-05
14850.0 4.7356e-05
14870.0 4.8495e-05
14890.0 4.9575e-05
14910.0 5.0574e-05
14930.0 5.1412e-05
14950.0 5.2098e-05
14970.0 5.2665e-05
14990.0 5.3072e-05
15010.0 5.333e-05
15030.0 5.3474e-05
15050.0 5.3518e-05
15070.0 5.3485e-05
15090.0 5.3405e-05
15110.0 5.3291e-05
15130.0 5.316e-05
15150.0 5.3026e-05
15170.0 5.2882e-05
15190.0 5.2735e-05
15210.0 5.2593e-05
15230.0 5.2453e-05
15250.0 5.2308e-05
15270.0 5.2165e-05
15290.0 5.2031e-05
15310.0 5.1892e-05
15330.0 5.1752e-05
15350.0 5.1618e-05
15370.0 5.1486e-05
15390.0 5.1345e-05
15410.0 5.1211e-05
15430.0 5.1081e-05
15450.0 5.0947e-05
15470.0 5.0811e-05
15490.0 5.0684e-05
15510.0 5.0556e-05
15530.0 5.0423e-05
15550.0 5.0293e-05
15570.0 5.0169e-05
15590.0 5.0038e-05
15610.0 4.9905e-05
15630.0 4.978e-05
15650.0 4.9655e-05
15670.0 4.9525e-05
15690.0 4.9398e-05
15710.0 4.9277e-05
15730.0 4.9149e-05
15750.0 4.902e-05
15770.0 4.8898e-05
15790.0 4.8774e-05
15810.0 4.8642e-05
15830.0 4.8517e-05
15850.0 4.8396e-05
15870.0 4.827e-05
15890.0 4.8143e-05
15910.0 4.8022e-05
15930.0 4.7898e-05
15950.0 4.7767e-05
15970.0 4.7643e-05
15990.0 4.7521e-05
16010.0 4.7393e-05
16030.0 4.7263e-05
16050.0 4.7142e-05
16070.0 4.7017e-05
16090.0 4.6887e-05
16110.0 4.6762e-05
16130.0 4.664e-05
16150.0 4.6507e-05
16170.0 4.6378e-05
16190.0 4.6254e-05
16210.0 4.6126e-05
16230.0 4.5993e-05
16250.0 4.5866e-05
16270.0 4.5741e-05
16290.0 4.5608e-05
16310.0 4.5477e-05
16330.0 4.535e-05
16350.0 4.5219e-05
16370.0 4.508e-05
16390.0 4.4951e-05
16410.0 4.4821e-05
16430.0 4.4686e-05
16450.0 4.4551e-05
16470.0 4.4422e-05
16490.0 4.4286e-05
16510.0 4.4147e-05
16530.0 4.4013e-05
16550.0 4.3879e-05
16570.0 4.3737e-05
16590.0 4.3597e-05
16610.0 4.3464e-05
16630.0 4.3324e-05
16650.0 4.3182e-05
16670.0 4.3044e-05
16690.0 4.2906e-05
16710.0 4.2759e-05
16730.0 4.2616e-05
16750.0 4.2476e-05
16770.0 4.2331e-05
16790.0 4.2183e-05
16810.0 4.2041e-05
16830.0 4.1898e-05
16850.0 4.1748e-05
16870.0 4.1601e-05
16890.0 4.1458e-05
16910.0 4.1306e-05
16930.0 4.1152e-05
16950.0 4.1005e-05
16970.0 4.0856e-05
16990.0 4.0701e-05
17010.0 4.0549e-05
17030.0 4.0402e-05
17050.0 4.0245e-05
17070.0 4.0088e-05
17090.0 3.9936e-05
17110.0 3.9782e-05
17130.0 3.9619e-05
17150.0 3.9463e-05
17170.0 3.9309e-05
17190.0 3.9149e-05
17210.0 3.8988e-05
17230.0 3.8833e-05
17250.0 3.8672e-05
17270.0 3.8506e-05
17290.0 3.8345e-05
17310.0 3.8185e-05
17330.0 3.8019e-05
17350.0 3.7852e-05
17370.0 3.7693e-05
17390.0 3.7528e-05
17410.0 3.7359e-05
17430.0 3.7194e-05
17450.0 3.7032e-05
17470.0 3.6858e-05
17490.0 3.6688e-05
17510.0 3.6523e-05
17530.0 3.6354e-05
17550.0 3.618e-05
17570.0 3.6011e-05
17590.0 3.5844e-05
17610.0 3.5669e-05
17630.0 3.5496e-05
17650.0 3.5327e-05
17670.0 3.5154e-05
17690.0 3.4972e-05
17710.0 3.4802e-05
17730.0 3.463e-05
17750.0 3.4452e-05
17770.0 3.4276e-05
17790.0 3.4105e-05
17810.0 3.3926e-05
17830.0 3.3746e-05
17850.0 3.3571e-05
17870.0 3.3395e-05
17890.0 3.3212e-05
17910.0 3.3032e-05
17930.0 3.2858e-05
17950.0 3.2678e-05
17970.0 3.2496e-05
17990.0 3.2319e-05
18010.0 3.2141e-05
18030.0 3.1954e-05
18050.0 3.1773e-05
18070.0 3.1596e-05
18090.0 3.1413e-05
18110.0 3.1227e-05
18130.0 3.1049e-05
18150.0 3.0869e-05
18170.0 3.0683e-05
18190.0 3.0501e-05
18210.0 3.0322e-05
18230.0 3.0135e-05
18250.0 2.9947e-05
18270.0 2.9768e-05
18290.0 2.9585e-05
18310.0 2.9398e-05
18330.0 2.9215e-05
18350.0 2.9036e-05
18370.0 2.8848e-05
18390.0 2.8662e-05
18410.0 2.848e-05
18430.0 2.8297e-05
18450.0 2.8106e-05
18470.0 2.7922e-05
18490.0 2.7742e-05
18510.0 2.7555e-05
18530.0 2.7369e-05
18550.0 2.7189e-05
18570.0 2.7004e-05
18590.0 2.6814e-05
18610.0 2.663e-05
18630.0 2.6448e-05
18650.0 2.6261e-05
18670.0 2.6073e-05
18690.0 2.5893e-05
18710.0 2.5709e-05
18730.0 2.5522e-05
18750.0 2.5339e-05
18770.0 2.5159e-05
18790.0 2.4968e-05
18810.0 2.4783e-05
18830.0 2.4602e-05
18850.0 2.4418e-05
18870.0 2.4231e-05
18890.0 2.405e-05
18910.0 2.387e-05
18930.0 2.3683e-05
18950.0 2.3499e-05
18970.0 2.332e-05
18990.0 2.3137e-05
19010.0 2.2947e-05
19030.0 2.2769e-05
19050.0 2.2589e-05
19070.0 2.2404e-05
19090.0 2.2223e-05
19110.0 2.2047e-05
19130.0 2.1863e-05
19150.0 2.1678e-05
19170.0 2.15e-05
19190.0 2.1321e-05
19210.0 2.1137e-05
19230.0 2.0955e-05
19250.0 2.0781e-05
19270.0 2.06e-05
19290.0 2.0419e-05
19310.0 2.0244e-05
19330.0 2.0067e-05
19350.0 1.9883e-05
19370.0 1.9705e-05
19390.0 1.9531e-05
19410.0 1.9352e-05
19430.0 1.9172e-05
19450.0 1.9e-05
19470.0 1.8825e-05
19490.0 1.8646e-05
19510.0 1.8471e-05
19530.0 1.8299e-05
19550.0 1.8121e-05
19570.0 1.7942e-05
19590.0 1.7772e-05
19610.0 1.7599e-05
19630.0 1.7422e-05
19650.0 1.7251e-05
19670.0 1.7082e-05
19690.0 1.6907e-05
19710.0 1.6733e-05
19730.0 1.6564e-05
19750.0 1.6393e-05
19770.0 1.6217e-05
19790.0 1.6048e-05
19810.0 1.5881e-05
19830.0 1.5709e-05
19850.0 1.5536e-05
19870.0 1.5368e-05
19890.0 1.5191e-05
19910.0 1.5001e-05
19930.0 1.4805e-05
19950.0 1.4592e-05
19970.0 1.4346e-05
19990.0 1.4067e-05
20010.0 1.3769e-05
20030.0 1.3431e-05
20050.0 1.3061e-05
20070.0 1.2688e-05
20090.0 1.2313e-05
20110.0 1.1924e-05
20130.0 1.1563e-05
20150.0 1.1237e-05
20170.0 1.093e-05
20190.0 1.065e-05
20210.0 1.0412e-05
20230.0 1.0204e-05
20250.0 1.0019e-05
20270.0 9.868e-06
20290.0 9.7476e-06
20310.0 9.65e-06
20330.0 9.5761e-06
20350.0 9.5294e-06
20370.0 9.5029e-06
20390.0 9.497e-06
20410.0 9.5114e-06
20430.0 9.5432e-06
20450.0 9.5969e-06
20470.0 9.6707e-06
20490.0 9.7604e-06
20510.0 9.8689e-06
20530.0 1.0001e-05
20550.0 1.0148e-05
20570.0 1.0305e-05
20590.0 1.0483e-05
20610.0 1.0674e-05
20630.0 1.0868e-05
20650.0 1.107e-05
20670.0 1.1286e-05
20690.0 1.1492e-05
20710.0 1.1692e-05
20730.0 1.1893e-05
20750.0 1.2087e-05
20770.0 1.2263e-05
20790.0 1.2435e-05
20810.0 1.2603e-05
20830.0 1.2759e-05
20850.0 1.2908e-05
20870.0 1.3062e-05
20890.0 1.3217e-05
20910.0 1.3365e-05
20930.0 1.3522e-05
20950.0 1.3688e-05
20970.0 1.3855e-05
20990.0 1.4022e-05
21010.0 1.4201e-05
21030.0 1.4377e-05
21050.0 1.4543e-05
21070.0 1.4704e-05
21090.0 1.4859e-05
21110.0 1.499e-05
21130.0 1.5101e-05
21150.0 1.5196e-05
21170.0 1.5266e-05
21190.0 1.5309e-05
21210.0 1.5331e-05
21230.0 1.5326e-05
21250.0 1.5297e-05
21270.0 1.5246e-05
21290.0 1.5171e-05
21310.0 1.5076e-05
21330.0 1.4967e-05
21350.0 1.4837e-05
21370.0 1.4691e-05
21390.0 1.4537e-05
21410.0 1.4374e-05
21430.0 1.4192e-05
21450.0 1.4011e-05
21470.0 1.3831e-05
21490.0 1.3644e-05
21510.0 1.3457e-05
21530.0 1.328e-05
21550.0 1.3108e-05
21570.0 1.2939e-05
21590.0 1.2784e-05
21610.0 1.2644e-05
21630.0 1.2516e-05
21650.0 1.2402e-05
21670.0 1.2314e-05
21690.0 1.2243e-05
21710.0 1.2191e-05
21730.0 1.2162e-05
21750.0 1.2155e-05
21770.0 1.2171e-05
21790.0 1.2211e-05
21810.0 1.227e-05
21830.0 1.2351e-05
21850.0 1.2456e-05
21870.0 1.2577e-05
21890.0 1.2712e-05
21910.0 1.2868e-05
21930.0 1.304e-05
21950.0 1.3218e-05
21970.0 1.3409e-05
21990.0 1.3618e-05
22010.0 1.3825e-05
22030.0 1.4033e-05
22050.0 1.425e-05
22070.0 1.4467e-05
22090.0 1.4671e-05
22110.0 1.4876e-05
22130.0 1.5078e-05
22150.0 1.5264e-05
22170.0 1.5435e-05
22190.0 1.5599e-05
22210.0 1.5744e-05
22230.0 1.5861e-05
22250.0 1.5961e-05
22270.0 1.6037e-05
22290.0 1.6084e-05
22310.0 1.6105e-05
22330.0 1.6097e-05
22350.0 1.6058e-05
22370.0 1.599e-05
22390.0 1.589e-05
22410.0 1.5754e-05
22430.0 1.5595e-05
22450.0 1.541e-05
22470.0 1.519e-05
22490.0 1.4947e-05
22510.0 1.469e-05
22530.0 1.4401e-05
22550.0 1.4088e-05
22570.0 1.3772e-05
22590.0 1.3444e-05
22610.0 1.3094e-05
22630.0 1.2742e-05
