#lamb flux
1010.0 8.486e-06
1030.0 9.5063e-06
1050.0 1.0519e-05
1070.0 1.1663e-05
1090.0 1.3015e-05
1110.0 1.44e-05
1130.0 1.5799e-05
1150.0 1.7271e-05
1170.0 1.8806e-05
1190.0 2.0289e-05
1210.0 2.1826e-05
1230.0 2.3454e-05
1250.0 2.5093e-05
1270.0 2.6747e-05
1290.0 2.8547e-05
1310.0 3.0416e-05
1330.0 3.2288e-05
1350.0 3.4243e-05
1370.0 3.631e-05
1390.0 3.839e-05
1410.0 4.0466e-05
1430.0 4.2648e-05
1450.0 4.4855e-05
1470.0 4.7017e-05
1490.0 4.9198e-05
1510.0 5.1466e-05
1530.0 5.3619e-05
1550.0 5.5719e-05
1570.0 5.7837e-05
1590.0 5.9908e-05
1610.0 6.1836e-05
1630.0 6.3732e-05
1650.0 6.5598e-05
1670.0 6.7321e-05
1690.0 6.8933e-05
1710.0 7.0519e-05
1730.0 7.2019e-05
1750.0 7.3316e-05
1770.0 7.4569e-05
1790.0 7.5765e-05
1810.0 7.6821e-05
1830.0 7.777e-05
1850.0 7.8752e-05
1870.0 7.9631e-05
1890.0 8.0407e-05
1910.0 8.1181e-05
1930.0 8.1969e-05
1950.0 8.2668e-05
1970.0 8.3343e-05
1990.0 8.4076e-05
2010.0 8.4785e-05
2030.0 8.5442e-05
2050.0 8.6145e-05
2070.0 8.6879e-05
2090.0 8.751e-05
2110.0 8.8113e-05
2130.0 8.8721e-05
2150.0 8.9249e-05
2170.0 8.9651e-05
2190.0 9.0026e-05
2210.0 9.0317e-05
2230.0 9.0448e-05
2250.0 9.0461e-05
2270.0 9.0411e-05
2290.0 9.0191e-05
2310.0 8.9787e-05
2330.0 8.9291e-05
2350.0 8.867e-05
2370.0 8.7865e-05
2390.0 8.6938e-05
2410.0 8.5921e-05
2430.0 8.4719e-05
2450.0 8.3337e-05
2470.0 8.1811e-05
2490.0 8.0128e-05
2510.0 7.8297e-05
2530.0 7.6506e-05
2550.0 7.5031e-05
2570.0 7.4206e-05
2590.0 7.4398e-05
2610.0 7.6392e-05
2630.0 8.0418e-05
2650.0 8.6096e-05
2670.0 9.3436e-05
2690.0 0.00010197
2710.0 0.00011
2730.0 0.00011654
2750.0 0.0001213
2770.0 0.00012296
2790.0 0.00012115
2810.0 0.00011607
2830.0 0.0001076
2850.0 9.668e-05
2870.0 8.3905e-05
2890.0 6.9359e-05
2910.0 5.3785e-05
2930.0 3.8044e-05
2950.0 2.1439e-05
2970.0 5.8264e-06
2990.0 5.8264e-06
3010.0 1.1831e-05
3030.0 1.1831e-05
3050.0 1.1831e-05
3070.0 1.1831e-05
3090.0 1.1831e-05
3110.0 1.1831e-05
3130.0 1.1831e-05
3150.0 1.1831e-05
3170.0 1.1831e-05
3190.0 1.1831e-05
3210.0 1.1831e-05
3230.0 0.00048095
3250.0 0.00085675
3270.0 0.00080367
3290.0 0.0007502
3310.0 0.00057024
3330.0 0.00055344
3350.0 0.00061121
3370.0 0.00069738
3390.0 0.00079223
3410.0 0.00089396
3430.0 0.001028
3450.0 0.0011593
3470.0 0.0012952
3490.0 0.0013451
3510.0 0.0012217
3530.0 0.001175
3550.0 0.0013002
3570.0 0.0013962
3590.0 0.0015132
3610.0 0.0014774
3630.0 0.0017898
3650.0 0.0019541
3670.0 0.0020637
3690.0 0.0020504
3710.0 0.0018563
3730.0 0.0018331
3750.0 0.0017413
3770.0 0.0016818
3790.0 0.0015839
3810.0 0.0015064
3830.0 0.0015545
3850.0 0.00082373
3870.0 0.0011051
3890.0 0.0012811
3910.0 0.0015749
3930.0 0.0020215
3950.0 0.0021913
3970.0 0.002448
3990.0 0.0029325
4010.0 0.0024865
4030.0 0.0021392
4050.0 0.0015449
4070.0 0.0014559
4090.0 0.0021459
4110.0 0.002146
4130.0 0.0023358
4150.0 0.0022386
4170.0 0.0021198
4190.0 0.001924
4210.0 0.0025922
4230.0 0.0027374
4250.0 0.0029833
4270.0 0.0028403
4290.0 0.0028
4310.0 0.0030416
4330.0 0.0035724
4350.0 0.0037288
4370.0 0.0037064
4390.0 0.0033818
4410.0 0.0031201
4430.0 0.0024323
4450.0 0.0019805
4470.0 0.0021385
4490.0 0.0025075
4510.0 0.0026103
4530.0 0.002631
4550.0 0.0026616
4570.0 0.0037923
4590.0 0.0056764
4610.0 0.0066696
4630.0 0.006756
4650.0 0.0072853
4670.0 0.0084942
4690.0 0.0092075
4710.0 0.0076756
4730.0 0.0058547
4750.0 0.0045862
4770.0 0.0039543
4790.0 0.003617
4810.0 0.003429
4830.0 0.0038008
4850.0 0.0044912
4870.0 0.0049247
4890.0 0.0051434
4910.0 0.0048443
4930.0 0.0052375
4950.0 0.0063923
4970.0 0.0074472
4990.0 0.0077232
5010.0 0.0071119
5030.0 0.0059063
5050.0 0.0045492
5070.0 0.0036283
5090.0 0.0032768
5110.0 0.0032255
5130.0 0.003285
5150.0 0.0032618
5170.0 0.0030672
5190.0 0.0028775
5210.0 0.002824
5230.0 0.0031938
5250.0 0.0037993
5270.0 0.0045347
5290.0 0.0051607
5310.0 0.0055105
5330.0 0.0060663
5350.0 0.0067212
5370.0 0.0069531
5390.0 0.0062906
5410.0 0.0055814
5430.0 0.0054561
5450.0 0.0063504
5470.0 0.0078219
5490.0 0.0090784
5510.0 0.0096317
5530.0 0.0094823
5550.0 0.0090521
5570.0 0.0087459
5590.0 0.0084202
5610.0 0.0082636
5630.0 0.0082243
5650.0 0.0082437
5670.0 0.0080854
5690.0 0.0073272
5710.0 0.0061848
5730.0 0.0055342
5750.0 0.0053072
5770.0 0.0054285
5790.0 0.0055977
5810.0 0.0057952
5830.0 0.0058767
5850.0 0.0056035
5870.0 0.0052859
5890.0 0.005145
5910.0 0.0053183
5930.0 0.0055214
5950.0 0.0051869
5970.0 0.0045665
5990.0 0.0037654
6010.0 0.0030484
6030.0 0.0028146
6050.0 0.0030483
6070.0 0.0032404
6090.0 0.0030892
6110.0 0.0027266
6130.0 0.0027902
6150.0 0.0032462
6170.0 0.003732
6190.0 0.0040966
6210.0 0.0041556
6230.0 0.0040903
6250.0 0.0037353
6270.0 0.0031221
6290.0 0.0025776
6310.0 0.0022877
6330.0 0.0022351
6350.0 0.0022752
6370.0 0.0023061
6390.0 0.0025936
6410.0 0.003235
6430.0 0.0039925
6450.0 0.0044793
6470.0 0.0046179
6490.0 0.0045863
6510.0 0.0046812
6530.0 0.0048245
6550.0 0.004801
6570.0 0.0049819
6590.0 0.0051079
6610.0 0.0051949
6630.0 0.005108
6650.0 0.0047703
6670.0 0.0043524
6690.0 0.0039578
6710.0 0.0037457
6730.0 0.0036998
6750.0 0.0037668
6770.0 0.00387
6790.0 0.0039957
6810.0 0.0040805
6830.0 0.0040027
6850.0 0.0038093
6870.0 0.0035687
6890.0 0.0034884
6910.0 0.0033833
6930.0 0.0035015
6950.0 0.0037101
6970.0 0.0038083
6990.0 0.003879
7010.0 0.003768
7030.0 0.0034648
7050.0 0.0030656
7070.0 0.0027354
7090.0 0.0025598
7110.0 0.0025376
7130.0 0.0024767
7150.0 0.0022137
7170.0 0.0021003
7190.0 0.0022978
7210.0 0.0026571
7230.0 0.003064
7250.0 0.0032435
7270.0 0.003206
7290.0 0.0029569
7310.0 0.0027295
7330.0 0.0026192
7350.0 0.0026265
7370.0 0.0026761
7390.0 0.0028033
7410.0 0.0031061
7430.0 0.0035897
7450.0 0.0040528
7470.0 0.0042749
7490.0 0.0041753
7510.0 0.0038952
7530.0 0.0033979
7550.0 0.0030973
7570.0 0.0027736
7590.0 0.002618
7610.0 0.0026935
7630.0 0.0029188
7650.0 0.0032353
7670.0 0.0035567
7690.0 0.0037862
7710.0 0.0040264
7730.0 0.0042741
7750.0 0.0044849
7770.0 0.004453
7790.0 0.0044874
7810.0 0.0045719
7830.0 0.0045589
7850.0 0.0044161
7870.0 0.0042818
7890.0 0.0043121
7910.0 0.0042
7930.0 0.0041424
7950.0 0.0039316
7970.0 0.0038259
7990.0 0.0036923
8010.0 0.0037504
8030.0 0.0037847
8050.0 0.0038152
8070.0 0.0037765
8090.0 0.0037565
8110.0 0.0036274
8130.0 0.0036263
8150.0 0.0035843
8170.0 0.003497
8190.0 0.003427
8210.0 0.0034172
8230.0 0.0033371
8250.0 0.0032727
8270.0 0.0029696
8290.0 0.00243
8310.0 0.0018304
8330.0 0.0014174
8350.0 0.0013281
8370.0 0.0015867
8390.0 0.0019273
8410.0 0.002086
8430.0 0.002144
8450.0 0.0022582
8470.0 0.0024233
8490.0 0.002719
8510.0 0.0031078
8530.0 0.0035743
8550.0 0.0040125
8570.0 0.0043758
8590.0 0.0046567
8610.0 0.00482
8630.0 0.0048352
8650.0 0.0047945
8670.0 0.0048012
8690.0 0.0050487
8710.0 0.0053778
8730.0 0.0056009
8750.0 0.0055869
8770.0 0.005671
8790.0 0.0056559
8810.0 0.0053186
8830.0 0.005017
8850.0 0.0046128
8870.0 0.0042866
8890.0 0.0041828
8910.0 0.0041942
8930.0 0.0039677
8950.0 0.0037082
8970.0 0.003603
8990.0 0.0035768
9010.0 0.0034423
9030.0 0.003365
9050.0 0.0033366
9070.0 0.0033235
9090.0 0.0033122
9110.0 0.0033013
9130.0 0.0032903
9150.0 0.0032796
9170.0 0.0032674
9190.0 0.0032585
9210.0 0.0032626
9230.0 0.003246
9250.0 0.0032324
9270.0 0.0032202
9290.0 0.0032092
9310.0 0.0031985
9330.0 0.0031883
9350.0 0.0031788
9370.0 0.0031693
9390.0 0.0031596
9410.0 0.0031504
9430.0 0.0031408
9450.0 0.0031273
9470.0 0.0031151
9490.0 0.0031102
9510.0 0.0031031
9530.0 0.0030954
9550.0 0.0030876
9570.0 0.0030794
9590.0 0.003071
9610.0 0.0030627
9630.0 0.0030543
9650.0 0.003046
9670.0 0.0030377
9690.0 0.0030294
9710.0 0.0030212
9730.0 0.003013
9750.0 0.0030048
9770.0 0.0029966
9790.0 0.0029885
9810.0 0.0029803
9830.0 0.0029721
9850.0 0.002964
9870.0 0.0029558
9890.0 0.0029475
9910.0 0.0029393
9930.0 0.0029306
9950.0 0.0028996
9970.0 0.0028979
9990.0 0.0028948
10010.0 0.002891
10030.0 0.0028852
10050.0 0.0028778
10070.0 0.0028701
10090.0 0.0028623
10110.0 0.002853
10130.0 0.002844
10150.0 0.0028352
10170.0 0.0028257
10190.0 0.0028153
10210.0 0.0028057
10230.0 0.0027964
10250.0 0.002786
10270.0 0.0027755
10290.0 0.0027658
10310.0 0.0027551
10330.0 0.0027434
10350.0 0.0027326
10370.0 0.0027218
10390.0 0.0027098
10410.0 0.0026977
10430.0 0.0026866
10450.0 0.0026743
10470.0 0.0026613
10490.0 0.0026489
10510.0 0.0026364
10530.0 0.0026221
10550.0 0.0026082
10570.0 0.002595
10590.0 0.0025807
10610.0 0.0025657
10630.0 0.0025514
10650.0 0.0025367
10670.0 0.0025205
10690.0 0.0025047
10710.0 0.0024891
10730.0 0.0024724
10750.0 0.0024546
10770.0 0.0024382
10790.0 0.0024211
10810.0 0.0024027
10830.0 0.0023845
10850.0 0.0023669
10870.0 0.0023471
10890.0 0.002327
10910.0 0.0023075
10930.0 0.002287
10950.0 0.0022647
10970.0 0.0022422
10990.0 0.0022198
11010.0 0.0023423
11030.0 0.0023153
11050.0 0.0022891
11070.0 0.0022623
11090.0 0.0022338
11110.0 0.0022075
11130.0 0.0021822
11150.0 0.0021564
11170.0 0.0021311
11190.0 0.0021077
11210.0 0.0020839
11230.0 0.0020596
11250.0 0.0020364
11270.0 0.0020139
11290.0 0.0019903
11310.0 0.0019668
11330.0 0.0019449
11350.0 0.0019222
11370.0 0.0018987
11390.0 0.0018757
11410.0 0.0018526
11430.0 0.0018272
11450.0 0.0018014
11470.0 0.0017753
11490.0 0.0017473
11510.0 0.0017169
11530.0 0.0016864
11550.0 0.0016549
11570.0 0.0016207
11590.0 0.0015858
11610.0 0.0015511
11630.0 0.0015144
11650.0 0.0014764
11670.0 0.00144
11690.0 0.0014038
11710.0 0.0013668
11730.0 0.0013308
11750.0 0.0012971
11770.0 0.001263
11790.0 0.0012296
11810.0 0.0011985
11830.0 0.0011685
11850.0 0.0011381
11870.0 0.0011098
11890.0 0.0010835
11910.0 0.0010573
11930.0 0.0010318
11950.0 0.0010082
11970.0 0.00098531
11990.0 0.00096239
12010.0 0.00094096
12030.0 0.00092085
12050.0 0.00090117
12070.0 0.00088222
12090.0 0.00086543
12110.0 0.00084961
12130.0 0.00083476
12150.0 0.00082168
12170.0 0.00081037
12190.0 0.00080019
12210.0 0.00079188
12230.0 0.00078553
12250.0 0.00078088
12270.0 0.00077802
12290.0 0.00077699
12310.0 0.00077756
12330.0 0.00077992
12350.0 0.00078394
12370.0 0.00078918
12390.0 0.00079587
12410.0 0.00080444
12430.0 0.00081357
12450.0 0.00082348
12470.0 0.00083464
12490.0 0.00084643
12510.0 0.00085792
12530.0 0.00086999
12550.0 0.00088231
12570.0 0.0008937
12590.0 0.00090422
12610.0 0.00091425
12630.0 0.00092285
12650.0 0.00092921
12670.0 0.00093406
12690.0 0.00093696
12710.0 0.0009375
12730.0 0.00093589
12750.0 0.00093209
12770.0 0.00092607
12790.0 0.00091818
12810.0 0.00090845
12830.0 0.00089695
12850.0 0.00088458
12870.0 0.00087139
12890.0 0.00085718
12910.0 0.00084277
12930.0 0.00082863
12950.0 0.00081419
12970.0 0.00079982
12990.0 0.0007864
13010.0 0.00077343
13030.0 0.00076064
13050.0 0.00074851
13070.0 0.00073717
13090.0 0.00072587
13110.0 0.00071484
13130.0 0.00070437
13150.0 0.0006941
13170.0 0.00068361
13190.0 0.00067354
13210.0 0.00066386
13230.0 0.00065412
13250.0 0.00064456
13270.0 0.0006356
13290.0 0.00062696
13310.0 0.0006186
13330.0 0.00061109
13350.0 0.00060441
13370.0 0.00059842
13390.0 0.00059331
13410.0 0.00058924
13430.0 0.00058595
13450.0 0.00058336
13470.0 0.00058139
13490.0 0.0005798
13510.0 0.00057841
13530.0 0.00057697
13550.0 0.00057524
13570.0 0.00057306
13590.0 0.00057019
13610.0 0.00056661
13630.0 0.00056233
13650.0 0.00055712
13670.0 0.00055118
13690.0 0.00054477
13710.0 0.0005378
13730.0 0.00053018
13750.0 0.00052279
13770.0 0.00051548
13790.0 0.00050816
13810.0 0.00050122
13830.0 0.00049497
13850.0 0.00048905
13870.0 0.00048362
13890.0 0.00047892
13910.0 0.00047479
13930.0 0.00047105
13950.0 0.00046779
13970.0 0.00046502
13990.0 0.00046245
14010.0 0.00046005
14030.0 0.00045781
14050.0 0.00045561
14070.0 0.00045324
14090.0 0.00045078
14110.0 0.00044818
14130.0 0.00044529
14150.0 0.00044207
14170.0 0.0004387
14190.0 0.00043509
14210.0 0.00043112
14230.0 0.00042703
14250.0 0.00042295
14270.0 0.00041868
14290.0 0.0004144
14310.0 0.00041048
14330.0 0.00040677
14350.0 0.00040327
14370.0 0.00040023
14390.0 0.00039769
14410.0 0.0003955
14430.0 0.00039377
14450.0 0.00039254
14470.0 0.00039169
14490.0 0.00039119
14510.0 0.00039104
14530.0 0.00039117
14550.0 0.00039154
14570.0 0.00039217
14590.0 0.000393
14610.0 0.0003941
14630.0 0.00039554
14650.0 0.00039728
14670.0 0.00039935
14690.0 0.00040191
14710.0 0.00040499
14730.0 0.00040837
14750.0 0.00041231
14770.0 0.00041689
14790.0 0.00042191
14810.0 0.00042736
14830.0 0.00043376
14850.0 0.00044074
14870.0 0.00044808
14890.0 0.00045611
14910.0 0.00046482
14930.0 0.00047346
14950.0 0.00048184
14970.0 0.00049008
14990.0 0.00049738
15010.0 0.0005034
15030.0 0.00050832
15050.0 0.00051215
15070.0 0.00051477
15090.0 0.00051665
15110.0 0.00051804
15130.0 0.00051908
15150.0 0.00051995
15170.0 0.00052074
15190.0 0.0005215
15210.0 0.00052226
15230.0 0.00052304
15250.0 0.00052382
15270.0 0.00052462
15290.0 0.00052544
15310.0 0.00052628
15330.0 0.00052713
15350.0 0.000528
15370.0 0.00052889
15390.0 0.00052979
15410.0 0.0005307
15430.0 0.00053163
15450.0 0.00053257
15470.0 0.00053353
15490.0 0.0005345
15510.0 0.00053548
15530.0 0.00053648
15550.0 0.00053748
15570.0 0.00053851
15590.0 0.00053953
15610.0 0.00054057
15630.0 0.00054162
15650.0 0.00054268
15670.0 0.00054375
15690.0 0.00054483
15710.0 0.00054592
15730.0 0.00054702
15750.0 0.00054812
15770.0 0.00054923
15790.0 0.00055035
15810.0 0.00055147
15830.0 0.0005526
15850.0 0.00055374
15870.0 0.00055488
15890.0 0.00055602
15910.0 0.00055717
15930.0 0.00055832
15950.0 0.00055947
15970.0 0.00056063
15990.0 0.00056179
16010.0 0.00056295
16030.0 0.00056411
16050.0 0.00056527
16070.0 0.00056644
16090.0 0.00056759
16110.0 0.00056875
16130.0 0.00056991
16150.0 0.00057106
16170.0 0.00057221
16190.0 0.00057337
16210.0 0.00057451
16230.0 0.00057565
16250.0 0.00057678
16270.0 0.00057792
16290.0 0.00057903
16310.0 0.00058015
16330.0 0.00058126
16350.0 0.00058236
16370.0 0.00058345
16390.0 0.00058453
16410.0 0.00058561
16430.0 0.00058667
16450.0 0.00058772
16470.0 0.00058876
16490.0 0.00058979
16510.0 0.0005908
16530.0 0.00059181
16550.0 0.0005928
16570.0 0.00059377
16590.0 0.00059472
16610.0 0.00059567
16630.0 0.0005966
16650.0 0.00059751
16670.0 0.0005984
16690.0 0.00059928
16710.0 0.00060013
16730.0 0.00060097
16750.0 0.00060179
16770.0 0.00060259
16790.0 0.00060336
16810.0 0.00060412
16830.0 0.00060486
16850.0 0.00060557
16870.0 0.00060626
16890.0 0.00060693
16910.0 0.00060757
16930.0 0.00060818
16950.0 0.00060878
16970.0 0.00060935
16990.0 0.00060989
17010.0 0.00061041
17030.0 0.0006109
17050.0 0.00061136
17070.0 0.00061179
17090.0 0.0006122
17110.0 0.00061258
17130.0 0.00061293
17150.0 0.00061325
17170.0 0.00061354
17190.0 0.0006138
17210.0 0.00061403
17230.0 0.00061424
17250.0 0.00061441
17270.0 0.00061454
17290.0 0.00061464
17310.0 0.00061472
17330.0 0.00061476
17350.0 0.00061476
17370.0 0.00061475
17390.0 0.00061469
17410.0 0.0006146
17430.0 0.00061447
17450.0 0.00061432
17470.0 0.00061412
17490.0 0.0006139
17510.0 0.00061364
17530.0 0.00061335
17550.0 0.00061302
17570.0 0.00061266
17590.0 0.00061227
17610.0 0.00061183
17630.0 0.00061136
17650.0 0.00061087
17670.0 0.00061033
17690.0 0.00060975
17710.0 0.00060915
17730.0 0.00060851
17750.0 0.00060784
17770.0 0.00060713
17790.0 0.00060639
17810.0 0.00060561
17830.0 0.00060479
17850.0 0.00060395
17870.0 0.00060307
17890.0 0.00060215
17910.0 0.0006012
17930.0 0.00060023
17950.0 0.00059921
17970.0 0.00059816
17990.0 0.00059708
18010.0 0.00059597
18030.0 0.00059482
18050.0 0.00059364
18070.0 0.00059244
18090.0 0.00059119
18110.0 0.00058992
18130.0 0.00058862
18150.0 0.00058728
18170.0 0.00058592
18190.0 0.00058452
18210.0 0.0005831
18230.0 0.00058165
18250.0 0.00058016
18270.0 0.00057865
18290.0 0.00057712
18310.0 0.00057555
18330.0 0.00057396
18350.0 0.00057234
18370.0 0.00057069
18390.0 0.00056902
18410.0 0.00056733
18430.0 0.0005656
18450.0 0.00056385
18470.0 0.00056208
18490.0 0.0005603
18510.0 0.00055848
18530.0 0.00055664
18550.0 0.00055478
18570.0 0.0005529
18590.0 0.00055099
18610.0 0.00054907
18630.0 0.00054713
18650.0 0.00054517
18670.0 0.00054318
18690.0 0.00054119
18710.0 0.00053918
18730.0 0.00053714
18750.0 0.00053509
18770.0 0.00053303
18790.0 0.00053094
18810.0 0.00052885
18830.0 0.00052674
18850.0 0.00052461
18870.0 0.00052247
18890.0 0.00052033
18910.0 0.00051817
18930.0 0.00051599
18950.0 0.0005138
18970.0 0.00051161
18990.0 0.0005094
19010.0 0.00050718
19030.0 0.00050496
19050.0 0.00050273
19070.0 0.00050049
19090.0 0.00049824
19110.0 0.00049599
19130.0 0.00049372
19150.0 0.00049145
19170.0 0.00048918
19190.0 0.00048691
19210.0 0.00048462
19230.0 0.00048233
19250.0 0.00048005
19270.0 0.00047775
19290.0 0.00047546
19310.0 0.00047316
19330.0 0.00047086
19350.0 0.00046856
19370.0 0.00046626
19390.0 0.00046396
19410.0 0.00046166
19430.0 0.00045935
19450.0 0.00045706
19470.0 0.00045476
19490.0 0.00045246
19510.0 0.00045017
19530.0 0.00044788
19550.0 0.00044559
19570.0 0.0004433
19590.0 0.00044103
19610.0 0.00043875
19630.0 0.00043647
19650.0 0.00043421
19670.0 0.00043195
19690.0 0.00042969
19710.0 0.00042744
19730.0 0.00042519
19750.0 0.00042296
19770.0 0.00042072
19790.0 0.00041849
19810.0 0.00041627
19830.0 0.00041405
19850.0 0.00041181
19870.0 0.00040956
19890.0 0.00040722
19910.0 0.00040472
19930.0 0.00040201
19950.0 0.00039894
19970.0 0.00039531
19990.0 0.00039103
20010.0 0.00038618
20030.0 0.00038053
20050.0 0.00037411
20070.0 0.00036729
20090.0 0.00036014
20110.0 0.00035241
20130.0 0.00034476
20150.0 0.00033733
20170.0 0.00032986
20190.0 0.00032248
20210.0 0.00031555
20230.0 0.00030885
20250.0 0.00030221
20270.0 0.00029595
20290.0 0.00029008
20310.0 0.00028436
20330.0 0.00027879
20350.0 0.00027376
20370.0 0.00026893
20390.0 0.00026424
20410.0 0.00025987
20430.0 0.00025583
20450.0 0.00025187
20470.0 0.00024815
20490.0 0.00024475
20510.0 0.00024155
20530.0 0.00023851
20550.0 0.00023574
20570.0 0.00023323
20590.0 0.00023087
20610.0 0.00022872
20630.0 0.00022679
20650.0 0.00022504
20670.0 0.00022345
20690.0 0.00022204
20710.0 0.00022078
20730.0 0.00021965
20750.0 0.00021864
20770.0 0.00021772
20790.0 0.00021688
20810.0 0.00021611
20830.0 0.00021538
20850.0 0.00021466
20870.0 0.00021397
20890.0 0.00021326
20910.0 0.00021251
20930.0 0.00021172
20950.0 0.00021088
20970.0 0.00020996
20990.0 0.00020897
21010.0 0.00020788
21030.0 0.0002067
21050.0 0.00020542
21070.0 0.00020404
21090.0 0.00020254
21110.0 0.00020097
21130.0 0.00019933
21150.0 0.00019756
21170.0 0.00019573
21190.0 0.00019386
21210.0 0.00019189
21230.0 0.00018984
21250.0 0.00018779
21270.0 0.00018572
21290.0 0.00018358
21310.0 0.00018144
21330.0 0.00017935
21350.0 0.00017723
21370.0 0.0001751
21390.0 0.00017306
21410.0 0.00017106
21430.0 0.00016905
21450.0 0.00016716
21470.0 0.00016538
21490.0 0.00016366
21510.0 0.00016204
21530.0 0.00016056
21550.0 0.00015921
21570.0 0.00015795
21590.0 0.00015685
21610.0 0.00015589
21630.0 0.00015506
21650.0 0.00015437
21670.0 0.00015381
21690.0 0.00015337
21710.0 0.00015306
21730.0 0.00015284
21750.0 0.00015271
21770.0 0.00015268
21790.0 0.00015272
21810.0 0.00015279
21830.0 0.0001529
21850.0 0.00015306
21870.0 0.0001532
21890.0 0.0001533
21910.0 0.00015342
21930.0 0.0001535
21950.0 0.00015352
21970.0 0.00015349
21990.0 0.00015344
22010.0 0.0001533
22030.0 0.00015309
22050.0 0.00015283
22070.0 0.00015252
22090.0 0.00015213
22110.0 0.0001517
22130.0 0.00015123
22150.0 0.0001507
22170.0 0.00015014
22190.0 0.00014954
22210.0 0.0001489
22230.0 0.00014824
22250.0 0.00014754
22270.0 0.00014681
22290.0 0.00014605
22310.0 0.00014526
22330.0 0.00014441
22350.0 0.00014352
22370.0 0.00014259
22390.0 0.00014158
22410.0 0.00014049
22430.0 0.00013935
22450.0 0.00013813
22470.0 0.0001368
22490.0 0.00013539
22510.0 0.00013393
22530.0 0.00013234
22550.0 0.00013063
22570.0 0.0001289
22590.0 0.0001271
22610.0 0.0001252
22630.0 0.00012327
22650.0 0.00012137
22670.0 0.00011941
22690.0 0.00011742
22710.0 0.00011552
22730.0 0.00011364
22750.0 0.00011174
22770.0 0.00010995
22790.0 0.00010828
22810.0 0.00010665
22830.0 0.0001051
22850.0 0.00010369
22870.0 0.00010236
22890.0 0.00010109
22910.0 9.9938e-05
22930.0 9.8891e-05
22950.0 9.79e-05
22970.0 9.6972e-05
22990.0 9.615e-05
23010.0 9.537e-05
23030.0 9.4621e-05
23050.0 9.3918e-05
23070.0 9.3251e-05
23090.0 9.2573e-05
