#lamb flux
1010.0 1.9052e-09
1030.0 2.0977e-09
1050.0 2.3192e-09
1070.0 2.5685e-09
1090.0 2.8517e-09
1110.0 3.1422e-09
1130.0 3.4345e-09
1150.0 3.7408e-09
1170.0 4.0567e-09
1190.0 4.3562e-09
1210.0 4.6597e-09
1230.0 4.9734e-09
1250.0 5.2808e-09
1270.0 5.5793e-09
1290.0 5.8947e-09
1310.0 6.2098e-09
1330.0 6.512e-09
1350.0 6.8177e-09
1370.0 7.1332e-09
1390.0 7.4409e-09
1410.0 7.7394e-09
1430.0 8.0515e-09
1450.0 8.3635e-09
1470.0 8.6651e-09
1490.0 8.9699e-09
1510.0 9.292e-09
1530.0 9.5971e-09
1550.0 9.8982e-09
1570.0 1.021e-08
1590.0 1.0521e-08
1610.0 1.0819e-08
1630.0 1.1127e-08
1650.0 1.1442e-08
1670.0 1.1747e-08
1690.0 1.2049e-08
1710.0 1.2362e-08
1730.0 1.2677e-08
1750.0 1.2973e-08
1770.0 1.3279e-08
1790.0 1.359e-08
1810.0 1.3892e-08
1830.0 1.4189e-08
1850.0 1.4504e-08
1870.0 1.4811e-08
1890.0 1.5108e-08
1910.0 1.5411e-08
1930.0 1.5722e-08
1950.0 1.6019e-08
1970.0 1.6312e-08
1990.0 1.6617e-08
2010.0 1.6917e-08
2030.0 1.7205e-08
2050.0 1.7503e-08
2070.0 1.7808e-08
2090.0 1.8096e-08
2110.0 1.8382e-08
2130.0 1.8677e-08
2150.0 1.8965e-08
2170.0 1.924e-08
2190.0 1.9525e-08
2210.0 1.9811e-08
2230.0 2.0084e-08
2250.0 2.0355e-08
2270.0 2.0637e-08
2290.0 2.0909e-08
2310.0 2.1169e-08
2330.0 2.1438e-08
2350.0 2.1713e-08
2370.0 2.1986e-08
2390.0 2.2284e-08
2410.0 2.2641e-08
2430.0 2.3056e-08
2450.0 2.3559e-08
2470.0 2.4213e-08
2490.0 2.5047e-08
2510.0 2.6e-08
2530.0 2.7153e-08
2550.0 2.8603e-08
2570.0 3.0411e-08
2590.0 3.2762e-08
2610.0 3.628e-08
2630.0 4.1287e-08
2650.0 4.7806e-08
2670.0 5.6203e-08
2690.0 6.6481e-08
2710.0 7.74e-08
2730.0 8.813e-08
2750.0 9.8641e-08
2770.0 1.0771e-07
2790.0 1.1483e-07
2810.0 1.2041e-07
2830.0 1.2468e-07
2850.0 1.275e-07
2870.0 1.2949e-07
2890.0 1.31e-07
2910.0 1.3215e-07
2930.0 1.3304e-07
2950.0 1.3389e-07
2970.0 1.3471e-07
2990.0 1.3547e-07
3010.0 3.9608e-06
3030.0 3.9825e-06
3050.0 4.0035e-06
3070.0 4.0207e-06
3090.0 4.0347e-06
3110.0 4.041e-06
3130.0 4.0342e-06
3150.0 4.0102e-06
3170.0 3.9614e-06
3190.0 3.8883e-06
3210.0 3.7974e-06
3230.0 3.6942e-06
3250.0 3.5909e-06
3270.0 3.515e-06
3290.0 3.4684e-06
3310.0 3.4699e-06
3330.0 3.5143e-06
3350.0 3.5964e-06
3370.0 3.7161e-06
3390.0 3.8684e-06
3410.0 4.0349e-06
3430.0 4.2225e-06
3450.0 4.4388e-06
3470.0 4.6755e-06
3490.0 4.927e-06
3510.0 5.2117e-06
3530.0 5.5177e-06
3550.0 5.831e-06
3570.0 6.1614e-06
3590.0 6.5222e-06
3610.0 6.9e-06
3630.0 7.2754e-06
3650.0 7.6665e-06
3670.0 8.0218e-06
3690.0 8.2866e-06
3710.0 8.4338e-06
3730.0 8.4196e-06
3750.0 8.2638e-06
3770.0 8.2804e-06
3790.0 8.2231e-06
3810.0 7.6926e-06
3830.0 7.8721e-06
3850.0 9.3209e-06
3870.0 9.7799e-06
3890.0 9.2405e-06
3910.0 9.103e-06
3930.0 9.6141e-06
3950.0 1.0099e-05
3970.0 9.5841e-06
3990.0 7.7367e-06
4010.0 2.1788e-05
4030.0 2.5744e-05
4050.0 2.9478e-05
4070.0 2.6503e-05
4090.0 2.414e-05
4110.0 2.1051e-05
4130.0 2.0333e-05
4150.0 2.2851e-05
4170.0 2.1399e-05
4190.0 2.203e-05
4210.0 2.2376e-05
4230.0 2.4414e-05
4250.0 2.9056e-05
4270.0 2.9896e-05
4290.0 2.7195e-05
4310.0 2.7558e-05
4330.0 2.8821e-05
4350.0 3.3192e-05
4370.0 3.8381e-05
4390.0 3.4701e-05
4410.0 2.4222e-05
4430.0 1.9944e-05
4450.0 1.8424e-05
4470.0 1.3552e-05
4490.0 1.574e-05
4510.0 2.6029e-05
4530.0 3.0479e-05
4550.0 3.0038e-05
4570.0 3.2075e-05
4590.0 3.6e-05
4610.0 5.3083e-05
4630.0 7.0546e-05
4650.0 7.3961e-05
4670.0 6.7594e-05
4690.0 6.5314e-05
4710.0 6.877e-05
4730.0 6.3028e-05
4750.0 4.5842e-05
4770.0 3.3026e-05
4790.0 3.1895e-05
4810.0 3.1161e-05
4830.0 2.9056e-05
4850.0 3.1754e-05
4870.0 4.1974e-05
4890.0 4.9259e-05
4910.0 4.2093e-05
4930.0 3.8121e-05
4950.0 4.2378e-05
4970.0 5.4752e-05
4990.0 7.4169e-05
5010.0 8.559e-05
5030.0 7.379e-05
5050.0 4.8921e-05
5070.0 3.2779e-05
5090.0 2.5966e-05
5110.0 2.6124e-05
5130.0 3.0501e-05
5150.0 3.2314e-05
5170.0 3.1513e-05
5190.0 2.9111e-05
5210.0 3.0907e-05
5230.0 3.3682e-05
5250.0 3.6985e-05
5270.0 3.8496e-05
5290.0 4.2347e-05
5310.0 5.0945e-05
5330.0 5.6127e-05
5350.0 5.5671e-05
5370.0 5.9346e-05
5390.0 6.9575e-05
5410.0 6.7034e-05
5430.0 5.7587e-05
5450.0 5.3993e-05
5470.0 5.8467e-05
5490.0 7.1727e-05
5510.0 8.899e-05
5530.0 0.00010238
5550.0 9.7459e-05
5570.0 8.8376e-05
5590.0 7.5886e-05
5610.0 7.1466e-05
5630.0 7.1876e-05
5650.0 6.7744e-05
5670.0 6.3669e-05
5690.0 5.5548e-05
5710.0 5.487e-05
5730.0 5.1178e-05
5750.0 3.4114e-05
5770.0 2.6077e-05
5790.0 3.0072e-05
5810.0 3.3399e-05
5830.0 4.3197e-05
5850.0 5.2671e-05
5870.0 5.8095e-05
5890.0 5.8262e-05
5910.0 5.7095e-05
5930.0 5.4413e-05
5950.0 5.5573e-05
5970.0 6.4736e-05
5990.0 5.8933e-05
6010.0 4.8501e-05
6030.0 4.0698e-05
6050.0 3.5643e-05
6070.0 3.6938e-05
6090.0 4.0355e-05
6110.0 4.4125e-05
6130.0 4.3906e-05
6150.0 3.7044e-05
6170.0 3.1623e-05
6190.0 3.6036e-05
6210.0 4.9597e-05
6230.0 6.7136e-05
6250.0 7.2776e-05
6270.0 6.161e-05
6290.0 5.2072e-05
6310.0 4.043e-05
6330.0 3.062e-05
6350.0 2.7924e-05
6370.0 2.935e-05
6390.0 3.4159e-05
6410.0 4.2679e-05
6430.0 5.0222e-05
6450.0 5.8485e-05
6470.0 6.5494e-05
6490.0 7.8865e-05
6510.0 8.8231e-05
6530.0 8.7598e-05
6550.0 7.9568e-05
6570.0 6.6335e-05
6590.0 6.0513e-05
6610.0 5.1633e-05
6630.0 4.8536e-05
6650.0 4.6313e-05
6670.0 4.3584e-05
6690.0 3.7758e-05
6710.0 3.4963e-05
6730.0 2.2445e-05
6750.0 2.3736e-05
6770.0 2.8476e-05
6790.0 3.4161e-05
6810.0 2.8963e-05
6830.0 2.9751e-05
6850.0 2.6958e-05
6870.0 2.4732e-05
6890.0 2.3013e-05
6910.0 2.5399e-05
6930.0 2.3834e-05
6950.0 2.5516e-05
6970.0 2.6805e-05
6990.0 3.0247e-05
7010.0 3.007e-05
7030.0 3.1695e-05
7050.0 2.943e-05
7070.0 2.7038e-05
7090.0 2.7639e-05
7110.0 2.8755e-05
7130.0 3.1563e-05
7150.0 3.413e-05
7170.0 3.7867e-05
7190.0 4.1372e-05
7210.0 3.9589e-05
7230.0 4.0549e-05
7250.0 4.3477e-05
7270.0 4.7081e-05
7290.0 5.6556e-05
7310.0 6.1098e-05
7330.0 5.8683e-05
7350.0 5.2964e-05
7370.0 4.4274e-05
7390.0 4.3521e-05
7410.0 4.7927e-05
7430.0 5.3659e-05
7450.0 5.8281e-05
7470.0 5.642e-05
7490.0 4.9456e-05
7510.0 6.153e-05
7530.0 5.9575e-05
7550.0 5.4445e-05
7570.0 4.0951e-05
7590.0 2.5498e-05
7610.0 2.1138e-05
7630.0 2.5353e-05
7650.0 3.0842e-05
7670.0 4.0852e-05
7690.0 4.5059e-05
7710.0 4.5246e-05
7730.0 4.6949e-05
7750.0 5.4898e-05
7770.0 5.5975e-05
7790.0 5.1317e-05
7810.0 4.5313e-05
7830.0 4.7368e-05
7850.0 4.7604e-05
7870.0 4.4461e-05
7890.0 3.6563e-05
7910.0 2.83e-05
7930.0 2.7631e-05
7950.0 2.5134e-05
7970.0 2.2716e-05
7990.0 2.2094e-05
8010.0 4.1971e-06
8030.0 3.8407e-06
8050.0 4.1025e-06
8070.0 4.6626e-06
8090.0 5.7404e-06
8110.0 5.4531e-06
8130.0 3.2467e-06
8150.0 3.4244e-06
8170.0 1.9323e-06
8190.0 1.193e-06
8210.0 3.1812e-06
8230.0 3.848e-06
8250.0 1.6674e-06
8270.0 1.3082e-06
8290.0 2.4134e-06
8310.0 2.1484e-06
8330.0 1.3496e-06
8350.0 1.0508e-06
8370.0 2.4948e-07
8390.0 1.1455e-06
8410.0 1.3014e-06
8430.0 1.6061e-06
8450.0 1.8356e-06
8470.0 3.0187e-06
8490.0 2.5399e-06
8510.0 2.023e-06
8530.0 1.2123e-06
8550.0 3.5655e-06
8570.0 5.2933e-06
8590.0 3.9034e-06
8610.0 5.7503e-06
8630.0 6.4047e-06
8650.0 4.0392e-06
8670.0 5.5111e-06
8690.0 7.8425e-06
8710.0 6.7352e-06
8730.0 7.0485e-06
8750.0 5.5997e-06
8770.0 5.0127e-06
8790.0 5.4394e-06
8810.0 5.8108e-06
8830.0 3.3778e-06
8850.0 1.545e-06
8870.0 1.08e-06
8890.0 2.3675e-06
8910.0 3.6757e-06
8930.0 4.8586e-06
8950.0 5.2872e-06
8970.0 5.0852e-06
8990.0 3.7593e-06
9010.0 1.0653e-05
9030.0 8.9814e-06
9050.0 9.1173e-06
9070.0 9.2838e-06
9090.0 9.4237e-06
9110.0 9.5966e-06
9130.0 9.7237e-06
9150.0 9.8165e-06
9170.0 9.9152e-06
9190.0 1.0021e-05
9210.0 1.0132e-05
9230.0 1.0249e-05
9250.0 1.0367e-05
9270.0 1.049e-05
9290.0 1.0615e-05
9310.0 1.074e-05
9330.0 1.0868e-05
9350.0 1.0999e-05
9370.0 1.1132e-05
9390.0 1.1265e-05
9410.0 1.1401e-05
9430.0 1.1541e-05
9450.0 1.168e-05
9470.0 1.1821e-05
9490.0 1.1966e-05
9510.0 1.2113e-05
9530.0 1.2259e-05
9550.0 1.241e-05
9570.0 1.2564e-05
9590.0 1.2718e-05
9610.0 1.2874e-05
9630.0 1.3034e-05
9650.0 1.3195e-05
9670.0 1.3355e-05
9690.0 1.3521e-05
9710.0 1.3688e-05
9730.0 1.3856e-05
9750.0 1.4026e-05
9770.0 1.4201e-05
9790.0 1.4375e-05
9810.0 1.455e-05
9830.0 1.4729e-05
9850.0 1.4911e-05
9870.0 1.509e-05
9890.0 1.5273e-05
9910.0 1.546e-05
9930.0 1.5647e-05
9950.0 1.5834e-05
9970.0 1.6025e-05
9990.0 1.6218e-05
10010.0 1.416e-05
10030.0 1.4327e-05
10050.0 1.4497e-05
10070.0 1.4669e-05
10090.0 1.4836e-05
10110.0 1.5009e-05
10130.0 1.5181e-05
10150.0 1.5352e-05
10170.0 1.5525e-05
10190.0 1.5701e-05
10210.0 1.5874e-05
10230.0 1.6047e-05
10250.0 1.6223e-05
10270.0 1.6399e-05
10290.0 1.6572e-05
10310.0 1.6748e-05
10330.0 1.6926e-05
10350.0 1.71e-05
10370.0 1.7273e-05
10390.0 1.7449e-05
10410.0 1.7624e-05
10430.0 1.7796e-05
10450.0 1.7969e-05
10470.0 1.8142e-05
10490.0 1.8313e-05
10510.0 1.8482e-05
10530.0 1.8654e-05
10550.0 1.8823e-05
10570.0 1.8989e-05
10590.0 1.9155e-05
10610.0 1.9321e-05
10630.0 1.9483e-05
10650.0 1.9643e-05
10670.0 1.9805e-05
10690.0 1.9964e-05
10710.0 2.0119e-05
10730.0 2.0274e-05
10750.0 2.043e-05
10770.0 2.0578e-05
10790.0 2.0725e-05
10810.0 2.0873e-05
10830.0 2.1015e-05
10850.0 2.1151e-05
10870.0 2.1283e-05
10890.0 2.1402e-05
10910.0 2.1497e-05
10930.0 2.1561e-05
10950.0 2.1573e-05
10970.0 2.1518e-05
10990.0 2.1387e-05
11010.0 1.9957e-05
11030.0 1.9643e-05
11050.0 1.9257e-05
11070.0 1.8793e-05
11090.0 1.8234e-05
11110.0 1.7655e-05
11130.0 1.7052e-05
11150.0 1.6403e-05
11170.0 1.5736e-05
11190.0 1.5089e-05
11210.0 1.4422e-05
11230.0 1.374e-05
11250.0 1.3089e-05
11270.0 1.2465e-05
11290.0 1.184e-05
11310.0 1.1249e-05
11330.0 1.0727e-05
11350.0 1.0235e-05
11370.0 9.7787e-06
11390.0 9.3831e-06
11410.0 9.0358e-06
11430.0 8.7119e-06
11450.0 8.431e-06
11470.0 8.1866e-06
11490.0 7.958e-06
11510.0 7.737e-06
11530.0 7.5312e-06
11550.0 7.3269e-06
11570.0 7.1095e-06
11590.0 6.8852e-06
11610.0 6.6577e-06
11630.0 6.4112e-06
11650.0 6.1485e-06
11670.0 5.8902e-06
11690.0 5.6287e-06
11710.0 5.3596e-06
11730.0 5.099e-06
11750.0 4.8576e-06
11770.0 4.6208e-06
11790.0 4.3986e-06
11810.0 4.2023e-06
11830.0 4.0261e-06
11850.0 3.8632e-06
11870.0 3.7259e-06
11890.0 3.6108e-06
11910.0 3.5088e-06
11930.0 3.4204e-06
11950.0 3.346e-06
11970.0 3.2791e-06
11990.0 3.2157e-06
12010.0 3.1569e-06
12030.0 3.1003e-06
12050.0 3.0423e-06
12070.0 2.9823e-06
12090.0 2.9246e-06
12110.0 2.8661e-06
12130.0 2.8076e-06
12150.0 2.7533e-06
12170.0 2.7052e-06
12190.0 2.6628e-06
12210.0 2.6314e-06
12230.0 2.6133e-06
12250.0 2.6094e-06
12270.0 2.623e-06
12290.0 2.6541e-06
12310.0 2.7014e-06
12330.0 2.7696e-06
12350.0 2.8562e-06
12370.0 2.9556e-06
12390.0 3.0711e-06
12410.0 3.2072e-06
12430.0 3.3457e-06
12450.0 3.4893e-06
12470.0 3.6423e-06
12490.0 3.7959e-06
12510.0 3.9398e-06
12530.0 4.083e-06
12550.0 4.221e-06
12570.0 4.3424e-06
12590.0 4.4486e-06
12610.0 4.5429e-06
12630.0 4.6175e-06
12650.0 4.668e-06
12670.0 4.7002e-06
12690.0 4.7114e-06
12710.0 4.7006e-06
12730.0 4.6704e-06
12750.0 4.6189e-06
12770.0 4.5492e-06
12790.0 4.4655e-06
12810.0 4.3661e-06
12830.0 4.2517e-06
12850.0 4.1323e-06
12870.0 4.0063e-06
12890.0 3.8705e-06
12910.0 3.7327e-06
12930.0 3.5971e-06
12950.0 3.456e-06
12970.0 3.3127e-06
12990.0 3.1772e-06
13010.0 3.0436e-06
13030.0 2.9087e-06
13050.0 2.7793e-06
13070.0 2.658e-06
13090.0 2.5364e-06
13110.0 2.4187e-06
13130.0 2.3101e-06
13150.0 2.2071e-06
13170.0 2.1062e-06
13190.0 2.0161e-06
13210.0 1.9365e-06
13230.0 1.8634e-06
13250.0 1.8001e-06
13270.0 1.7496e-06
13290.0 1.7096e-06
13310.0 1.6812e-06
13330.0 1.6668e-06
13350.0 1.6654e-06
13370.0 1.6778e-06
13390.0 1.7049e-06
13410.0 1.7426e-06
13430.0 1.7926e-06
13450.0 1.855e-06
13470.0 1.9248e-06
13490.0 1.9993e-06
13510.0 2.0838e-06
13530.0 2.1698e-06
13550.0 2.2526e-06
13570.0 2.3345e-06
13590.0 2.4148e-06
13610.0 2.4865e-06
13630.0 2.5494e-06
13650.0 2.6072e-06
13670.0 2.6554e-06
13690.0 2.693e-06
13710.0 2.7224e-06
13730.0 2.7438e-06
13750.0 2.755e-06
13770.0 2.7583e-06
13790.0 2.7541e-06
13810.0 2.7426e-06
13830.0 2.725e-06
13850.0 2.7009e-06
13870.0 2.6703e-06
13890.0 2.6352e-06
13910.0 2.5955e-06
13930.0 2.5494e-06
13950.0 2.4991e-06
13970.0 2.4477e-06
13990.0 2.3917e-06
14010.0 2.3322e-06
14030.0 2.2728e-06
14050.0 2.213e-06
14070.0 2.1499e-06
14090.0 2.0895e-06
14110.0 2.0326e-06
14130.0 1.9775e-06
14150.0 1.9256e-06
14170.0 1.8812e-06
14190.0 1.8428e-06
14210.0 1.81e-06
14230.0 1.7856e-06
14250.0 1.7697e-06
14270.0 1.7616e-06
14290.0 1.7626e-06
14310.0 1.772e-06
14330.0 1.7891e-06
14350.0 1.8148e-06
14370.0 1.8469e-06
14390.0 1.8836e-06
14410.0 1.9269e-06
14430.0 1.9747e-06
14450.0 2.0237e-06
14470.0 2.0747e-06
14490.0 2.1292e-06
14510.0 2.1814e-06
14530.0 2.2312e-06
14550.0 2.2811e-06
14570.0 2.3291e-06
14590.0 2.3729e-06
14610.0 2.4153e-06
14630.0 2.4573e-06
14650.0 2.4965e-06
14670.0 2.5342e-06
14690.0 2.5735e-06
14710.0 2.6147e-06
14730.0 2.6558e-06
14750.0 2.7014e-06
14770.0 2.753e-06
14790.0 2.8089e-06
14810.0 2.8696e-06
14830.0 2.9415e-06
14850.0 3.0197e-06
14870.0 3.1015e-06
14890.0 3.1898e-06
14910.0 3.2837e-06
14930.0 3.3742e-06
14950.0 3.4589e-06
14970.0 3.5393e-06
14990.0 3.6069e-06
15010.0 3.659e-06
15030.0 3.6978e-06
15050.0 3.724e-06
15070.0 3.7374e-06
15090.0 3.7429e-06
15110.0 3.7429e-06
15130.0 3.7393e-06
15150.0 3.7342e-06
15170.0 3.7279e-06
15190.0 3.721e-06
15210.0 3.7143e-06
15230.0 3.7076e-06
15250.0 3.7007e-06
15270.0 3.6938e-06
15290.0 3.6874e-06
15310.0 3.6807e-06
15330.0 3.674e-06
15350.0 3.6676e-06
15370.0 3.6613e-06
15390.0 3.6545e-06
15410.0 3.6481e-06
15430.0 3.6419e-06
15450.0 3.6355e-06
15470.0 3.629e-06
15490.0 3.6229e-06
15510.0 3.6169e-06
15530.0 3.6105e-06
15550.0 3.6044e-06
15570.0 3.5984e-06
15590.0 3.5922e-06
15610.0 3.5859e-06
15630.0 3.58e-06
15650.0 3.5741e-06
15670.0 3.5679e-06
15690.0 3.5619e-06
15710.0 3.5562e-06
15730.0 3.5501e-06
15750.0 3.5441e-06
15770.0 3.5383e-06
15790.0 3.5325e-06
15810.0 3.5263e-06
15830.0 3.5204e-06
15850.0 3.5147e-06
15870.0 3.5088e-06
15890.0 3.5028e-06
15910.0 3.4972e-06
15930.0 3.4914e-06
15950.0 3.4853e-06
15970.0 3.4795e-06
15990.0 3.4738e-06
16010.0 3.4678e-06
16030.0 3.4617e-06
16050.0 3.4561e-06
16070.0 3.4503e-06
16090.0 3.4443e-06
16110.0 3.4385e-06
16130.0 3.4328e-06
16150.0 3.4266e-06
16170.0 3.4206e-06
16190.0 3.4149e-06
16210.0 3.409e-06
16230.0 3.4028e-06
16250.0 3.3969e-06
16270.0 3.3912e-06
16290.0 3.385e-06
16310.0 3.3789e-06
16330.0 3.3731e-06
16350.0 3.367e-06
16370.0 3.3606e-06
16390.0 3.3547e-06
16410.0 3.3487e-06
16430.0 3.3424e-06
16450.0 3.3362e-06
16470.0 3.3303e-06
16490.0 3.324e-06
16510.0 3.3176e-06
16530.0 3.3114e-06
16550.0 3.3052e-06
16570.0 3.2987e-06
16590.0 3.2922e-06
16610.0 3.2861e-06
16630.0 3.2796e-06
16650.0 3.2731e-06
16670.0 3.2667e-06
16690.0 3.2604e-06
16710.0 3.2535e-06
16730.0 3.2469e-06
16750.0 3.2405e-06
16770.0 3.2338e-06
16790.0 3.2269e-06
16810.0 3.2204e-06
16830.0 3.2138e-06
16850.0 3.2068e-06
16870.0 3.2e-06
16890.0 3.1934e-06
16910.0 3.1863e-06
16930.0 3.1792e-06
16950.0 3.1724e-06
16970.0 3.1655e-06
16990.0 3.1582e-06
17010.0 3.1512e-06
17030.0 3.1443e-06
17050.0 3.137e-06
17070.0 3.1297e-06
17090.0 3.1227e-06
17110.0 3.1154e-06
17130.0 3.1078e-06
17150.0 3.1005e-06
17170.0 3.0933e-06
17190.0 3.0858e-06
17210.0 3.0783e-06
17230.0 3.071e-06
17250.0 3.0635e-06
17270.0 3.0556e-06
17290.0 3.0481e-06
17310.0 3.0406e-06
17330.0 3.0327e-06
17350.0 3.0248e-06
17370.0 3.0173e-06
17390.0 3.0096e-06
17410.0 3.0015e-06
17430.0 2.9938e-06
17450.0 2.9861e-06
17470.0 2.9778e-06
17490.0 2.9697e-06
17510.0 2.9619e-06
17530.0 2.9538e-06
17550.0 2.9455e-06
17570.0 2.9375e-06
17590.0 2.9295e-06
17610.0 2.9211e-06
17630.0 2.9128e-06
17650.0 2.9048e-06
17670.0 2.8964e-06
17690.0 2.8877e-06
17710.0 2.8795e-06
17730.0 2.8712e-06
17750.0 2.8626e-06
17770.0 2.8541e-06
17790.0 2.8459e-06
17810.0 2.8373e-06
17830.0 2.8285e-06
17850.0 2.82e-06
17870.0 2.8115e-06
17890.0 2.8026e-06
17910.0 2.7938e-06
17930.0 2.7854e-06
17950.0 2.7766e-06
17970.0 2.7677e-06
17990.0 2.759e-06
18010.0 2.7503e-06
18030.0 2.7411e-06
18050.0 2.7323e-06
18070.0 2.7235e-06
18090.0 2.7145e-06
18110.0 2.7053e-06
18130.0 2.6966e-06
18150.0 2.6877e-06
18170.0 2.6785e-06
18190.0 2.6694e-06
18210.0 2.6606e-06
18230.0 2.6513e-06
18250.0 2.642e-06
18270.0 2.633e-06
18290.0 2.6239e-06
18310.0 2.6146e-06
18330.0 2.6054e-06
18350.0 2.5965e-06
18370.0 2.5871e-06
18390.0 2.5777e-06
18410.0 2.5686e-06
18430.0 2.5594e-06
18450.0 2.5497e-06
18470.0 2.5405e-06
18490.0 2.5314e-06
18510.0 2.5219e-06
18530.0 2.5125e-06
18550.0 2.5034e-06
18570.0 2.494e-06
18590.0 2.4843e-06
18610.0 2.475e-06
18630.0 2.4657e-06
18650.0 2.4561e-06
18670.0 2.4465e-06
18690.0 2.4373e-06
18710.0 2.4279e-06
18730.0 2.4182e-06
18750.0 2.4089e-06
18770.0 2.3996e-06
18790.0 2.3898e-06
18810.0 2.3802e-06
18830.0 2.3709e-06
18850.0 2.3614e-06
18870.0 2.3516e-06
18890.0 2.3423e-06
18910.0 2.3329e-06
18930.0 2.3232e-06
18950.0 2.3136e-06
18970.0 2.3043e-06
18990.0 2.2947e-06
19010.0 2.2848e-06
19030.0 2.2754e-06
19050.0 2.266e-06
19070.0 2.2563e-06
19090.0 2.2468e-06
19110.0 2.2375e-06
19130.0 2.2278e-06
19150.0 2.2181e-06
19170.0 2.2086e-06
19190.0 2.1992e-06
19210.0 2.1894e-06
19230.0 2.1798e-06
19250.0 2.1705e-06
19270.0 2.1609e-06
19290.0 2.1512e-06
19310.0 2.1419e-06
19330.0 2.1324e-06
19350.0 2.1226e-06
19370.0 2.1131e-06
19390.0 2.1037e-06
19410.0 2.0941e-06
19430.0 2.0844e-06
19450.0 2.0751e-06
19470.0 2.0657e-06
19490.0 2.056e-06
19510.0 2.0465e-06
19530.0 2.0373e-06
19550.0 2.0276e-06
19570.0 2.0179e-06
19590.0 2.0086e-06
19610.0 1.9992e-06
19630.0 1.9896e-06
19650.0 1.9802e-06
19670.0 1.971e-06
19690.0 1.9614e-06
19710.0 1.9519e-06
19730.0 1.9426e-06
19750.0 1.9332e-06
19770.0 1.9235e-06
19790.0 1.9142e-06
19810.0 1.905e-06
19830.0 1.8955e-06
19850.0 1.8859e-06
19870.0 1.8765e-06
19890.0 1.8665e-06
19910.0 1.8555e-06
19930.0 1.8439e-06
19950.0 1.8306e-06
19970.0 1.8145e-06
19990.0 1.7953e-06
20010.0 1.6059e-06
20030.0 1.5822e-06
20050.0 1.5545e-06
20070.0 1.5246e-06
20090.0 1.4925e-06
20110.0 1.4563e-06
20130.0 1.4197e-06
20150.0 1.3835e-06
20170.0 1.3461e-06
20190.0 1.3081e-06
20210.0 1.2723e-06
20230.0 1.2373e-06
20250.0 1.2024e-06
20270.0 1.1699e-06
20290.0 1.1403e-06
20310.0 1.1121e-06
20330.0 1.0857e-06
20350.0 1.0638e-06
20370.0 1.0443e-06
20390.0 1.0271e-06
20410.0 1.0132e-06
20430.0 1.0023e-06
20450.0 9.9365e-07
20470.0 9.8772e-07
20490.0 9.8438e-07
20510.0 9.8317e-07
20530.0 9.8406e-07
20550.0 9.8679e-07
20570.0 9.9094e-07
20590.0 9.9668e-07
20610.0 1.0037e-06
20630.0 1.0115e-06
20650.0 1.0203e-06
20670.0 1.0304e-06
20690.0 1.0408e-06
20710.0 1.0515e-06
20730.0 1.063e-06
20750.0 1.0751e-06
20770.0 1.087e-06
20790.0 1.0995e-06
20810.0 1.1126e-06
20830.0 1.1257e-06
20850.0 1.1388e-06
20870.0 1.1528e-06
20890.0 1.1671e-06
20910.0 1.1808e-06
20930.0 1.195e-06
20950.0 1.2097e-06
20970.0 1.224e-06
20990.0 1.2381e-06
21010.0 1.2529e-06
21030.0 1.2674e-06
21050.0 1.2811e-06
21070.0 1.2949e-06
21090.0 1.3086e-06
21110.0 1.3212e-06
21130.0 1.3329e-06
21150.0 1.3443e-06
21170.0 1.3546e-06
21190.0 1.3634e-06
21210.0 1.3713e-06
21230.0 1.3779e-06
21250.0 1.3825e-06
21270.0 1.3854e-06
21290.0 1.3864e-06
21310.0 1.3851e-06
21330.0 1.3817e-06
21350.0 1.3759e-06
21370.0 1.3674e-06
21390.0 1.3567e-06
21410.0 1.3436e-06
21430.0 1.327e-06
21450.0 1.3084e-06
21470.0 1.2881e-06
21490.0 1.2652e-06
21510.0 1.2401e-06
21530.0 1.2146e-06
21550.0 1.1879e-06
21570.0 1.1594e-06
21590.0 1.1313e-06
21610.0 1.1043e-06
21630.0 1.0771e-06
21650.0 1.0507e-06
21670.0 1.0277e-06
21690.0 1.0065e-06
21710.0 9.8736e-07
21730.0 9.7167e-07
21750.0 9.5953e-07
21770.0 9.5023e-07
21790.0 9.448e-07
21810.0 9.4314e-07
21830.0 9.45e-07
21850.0 9.5063e-07
21870.0 9.5951e-07
21890.0 9.7105e-07
21910.0 9.859e-07
21930.0 1.0034e-06
21950.0 1.0223e-06
21970.0 1.0433e-06
21990.0 1.0669e-06
22010.0 1.0904e-06
22030.0 1.1144e-06
22050.0 1.1396e-06
22070.0 1.1649e-06
22090.0 1.1889e-06
22110.0 1.2131e-06
22130.0 1.2373e-06
22150.0 1.2599e-06
22170.0 1.2812e-06
22190.0 1.3023e-06
22210.0 1.3219e-06
22230.0 1.3392e-06
22250.0 1.3554e-06
22270.0 1.3704e-06
22290.0 1.3832e-06
22310.0 1.3941e-06
22330.0 1.4038e-06
22350.0 1.4112e-06
22370.0 1.4164e-06
22390.0 1.4196e-06
22410.0 1.4206e-06
22430.0 1.4191e-06
22450.0 1.4153e-06
22470.0 1.409e-06
22490.0 1.4e-06
22510.0 1.3889e-06
22530.0 1.3748e-06
22550.0 1.3576e-06
22570.0 1.3385e-06
22590.0 1.317e-06
22610.0 1.2924e-06
22630.0 1.2656e-06
