#lamb flux
1010.0 2.1123e-07
1030.0 2.3409e-07
1050.0 2.604e-07
1070.0 2.9001e-07
1090.0 3.2364e-07
1110.0 3.5814e-07
1130.0 3.9287e-07
1150.0 4.2925e-07
1170.0 4.6679e-07
1190.0 5.0238e-07
1210.0 5.3847e-07
1230.0 5.7576e-07
1250.0 6.123e-07
1270.0 6.478e-07
1290.0 6.8532e-07
1310.0 7.2282e-07
1330.0 7.5878e-07
1350.0 7.9517e-07
1370.0 8.3273e-07
1390.0 8.6937e-07
1410.0 9.0493e-07
1430.0 9.4211e-07
1450.0 9.793e-07
1470.0 1.0152e-06
1490.0 1.0516e-06
1510.0 1.09e-06
1530.0 1.1263e-06
1550.0 1.1622e-06
1570.0 1.1993e-06
1590.0 1.2365e-06
1610.0 1.272e-06
1630.0 1.3085e-06
1650.0 1.346e-06
1670.0 1.3823e-06
1690.0 1.418e-06
1710.0 1.4551e-06
1730.0 1.4923e-06
1750.0 1.5272e-06
1770.0 1.5631e-06
1790.0 1.5996e-06
1810.0 1.6349e-06
1830.0 1.6693e-06
1850.0 1.7058e-06
1870.0 1.7412e-06
1890.0 1.7751e-06
1910.0 1.8095e-06
1930.0 1.8445e-06
1950.0 1.8776e-06
1970.0 1.91e-06
1990.0 1.9433e-06
2010.0 1.9756e-06
2030.0 2.0063e-06
2050.0 2.0375e-06
2070.0 2.0691e-06
2090.0 2.098e-06
2110.0 2.1263e-06
2130.0 2.1549e-06
2150.0 2.1822e-06
2170.0 2.2072e-06
2190.0 2.2326e-06
2210.0 2.2574e-06
2230.0 2.2799e-06
2250.0 2.3013e-06
2270.0 2.3231e-06
2290.0 2.3428e-06
2310.0 2.36e-06
2330.0 2.3771e-06
2350.0 2.3933e-06
2370.0 2.407e-06
2390.0 2.4202e-06
2410.0 2.4342e-06
2430.0 2.4471e-06
2450.0 2.46e-06
2470.0 2.4759e-06
2490.0 2.4968e-06
2510.0 2.523e-06
2530.0 2.5648e-06
2550.0 2.6378e-06
2570.0 2.7561e-06
2590.0 2.9365e-06
2610.0 3.2262e-06
2630.0 3.6309e-06
2650.0 4.1223e-06
2670.0 4.7009e-06
2690.0 5.3379e-06
2710.0 5.9377e-06
2730.0 6.4579e-06
2750.0 6.9083e-06
2770.0 7.2444e-06
2790.0 7.4684e-06
2810.0 7.62e-06
2830.0 7.7268e-06
2850.0 7.788e-06
2870.0 7.8313e-06
2890.0 7.8725e-06
2910.0 7.9102e-06
2930.0 7.9405e-06
2950.0 7.9762e-06
2970.0 8.0155e-06
2990.0 8.0501e-06
3010.0 0.00010543
3030.0 0.00010563
3050.0 0.00010581
3070.0 0.00010584
3090.0 0.0001058
3110.0 0.00010553
3130.0 0.00010486
3150.0 0.0001037
3170.0 0.00010188
3190.0 9.9456e-05
3210.0 9.6639e-05
3230.0 9.375e-05
3250.0 9.2718e-05
3270.0 9.0947e-05
3290.0 9.2704e-05
3310.0 9.2033e-05
3330.0 9.4354e-05
3350.0 9.7821e-05
3370.0 0.00010232
3390.0 0.00010768
3410.0 0.00011334
3430.0 0.00011953
3450.0 0.00012643
3470.0 0.00013369
3490.0 0.00014106
3510.0 0.00014959
3530.0 0.00015897
3550.0 0.00016688
3570.0 0.0001742
3590.0 0.00018468
3610.0 0.00019168
3630.0 0.00020327
3650.0 0.00021361
3670.0 0.00022405
3690.0 0.00022993
3710.0 0.0002314
3730.0 0.00023468
3750.0 0.00023472
3770.0 0.00021752
3790.0 0.0001996
3810.0 0.00018642
3830.0 0.00016874
3850.0 0.00014676
3870.0 0.00014561
3890.0 0.00018856
3910.0 0.00025241
3930.0 0.00030206
3950.0 0.00032
3970.0 0.0003134
3990.0 0.00031945
4010.0 0.00036113
4030.0 0.00038716
4050.0 0.00037501
4070.0 0.00033197
4090.0 0.00029317
4110.0 0.00032897
4130.0 0.00035619
4150.0 0.00034972
4170.0 0.00034969
4190.0 0.00034811
4210.0 0.00036119
4230.0 0.00038436
4250.0 0.00041494
4270.0 0.00042266
4290.0 0.00041879
4310.0 0.00044095
4330.0 0.0004843
4350.0 0.00054962
4370.0 0.00061337
4390.0 0.00059112
4410.0 0.00049938
4430.0 0.00041571
4450.0 0.00034824
4470.0 0.0003413
4490.0 0.00037339
4510.0 0.00043121
4530.0 0.00046916
4550.0 0.00052714
4570.0 0.00062888
4590.0 0.00077346
4610.0 0.00099053
4630.0 0.001192
4650.0 0.0012259
4670.0 0.0012225
4690.0 0.0012935
4710.0 0.0013178
4730.0 0.0011106
4750.0 0.00082117
4770.0 0.00067195
4790.0 0.00063256
4810.0 0.00059971
4830.0 0.00058901
4850.0 0.00067765
4870.0 0.00083611
4890.0 0.0009296
4910.0 0.00081448
4930.0 0.00076154
4950.0 0.00087577
4970.0 0.0011373
4990.0 0.0014099
5010.0 0.0014496
5030.0 0.0011952
5050.0 0.00081682
5070.0 0.0005813
5090.0 0.00050752
5110.0 0.00051973
5130.0 0.0005594
5150.0 0.00057742
5170.0 0.00057317
5190.0 0.00056591
5210.0 0.00055589
5230.0 0.00057607
5250.0 0.00061786
5270.0 0.00070839
5290.0 0.00081711
5310.0 0.00089613
5330.0 0.000926
5350.0 0.00094994
5370.0 0.0010326
5390.0 0.0010859
5410.0 0.001028
5430.0 0.00090962
5450.0 0.00087663
5470.0 0.001012
5490.0 0.0012844
5510.0 0.0015857
5530.0 0.0017206
5550.0 0.0016807
5570.0 0.0015555
5590.0 0.0014146
5610.0 0.0013254
5630.0 0.0012963
5650.0 0.0013222
5670.0 0.0012916
5690.0 0.0012134
5710.0 0.0011516
5730.0 0.0010251
5750.0 0.00079383
5770.0 0.0007
5790.0 0.00077258
5810.0 0.00090636
5830.0 0.0010153
5850.0 0.0010758
5870.0 0.0010835
5890.0 0.0010341
5910.0 0.00098852
5930.0 0.00099213
5950.0 0.001041
5970.0 0.0010771
5990.0 0.00099608
6010.0 0.00083647
6030.0 0.00069446
6050.0 0.00061793
6070.0 0.00062705
6090.0 0.00069722
6110.0 0.0007373
6130.0 0.00070168
6150.0 0.00067478
6170.0 0.00074849
6190.0 0.00089274
6210.0 0.0010641
6230.0 0.0011888
6250.0 0.0011713
6270.0 0.0010433
6290.0 0.00086724
6310.0 0.00069491
6330.0 0.00056769
6350.0 0.00053167
6370.0 0.00058442
6390.0 0.00067514
6410.0 0.00077721
6430.0 0.00090603
6450.0 0.0010637
6470.0 0.0013016
6490.0 0.0015707
6510.0 0.0016975
6530.0 0.0015993
6550.0 0.0015002
6570.0 0.0014834
6590.0 0.0014327
6610.0 0.0013218
6630.0 0.0012102
6650.0 0.0011342
6670.0 0.0011504
6690.0 0.0011304
6710.0 0.001018
6730.0 0.00092151
6750.0 0.00082598
6770.0 0.00082471
6790.0 0.00088042
6810.0 0.0009294
6830.0 0.00094684
6850.0 0.00091747
6870.0 0.00088328
6890.0 0.00086173
6910.0 0.00081543
6930.0 0.00078251
6950.0 0.00078452
6970.0 0.00080697
6990.0 0.00088606
7010.0 0.00093394
7030.0 0.00086994
7050.0 0.00080286
7070.0 0.00074209
7090.0 0.00065192
7110.0 0.00060402
7130.0 0.00062033
7150.0 0.00064372
7170.0 0.00067317
7190.0 0.00066918
7210.0 0.00067163
7230.0 0.00072567
7250.0 0.00083445
7270.0 0.0009518
7290.0 0.0010072
7310.0 0.00096547
7330.0 0.00086402
7350.0 0.00078341
7370.0 0.00076605
7390.0 0.00077939
7410.0 0.00082125
7430.0 0.00091083
7450.0 0.00099251
7470.0 0.0010913
7490.0 0.0011695
7510.0 0.001044
7530.0 0.00099605
7550.0 0.00086469
7570.0 0.00073784
7590.0 0.00061148
7610.0 0.000568
7630.0 0.00060134
7650.0 0.00069297
7670.0 0.00077126
7690.0 0.000861
7710.0 0.00095817
7730.0 0.0010104
7750.0 0.0010333
7770.0 0.0010404
7790.0 0.0010395
7810.0 0.0010655
7830.0 0.001033
7850.0 0.00095729
7870.0 0.00088737
7890.0 0.00082487
7910.0 0.0007416
7930.0 0.00065023
7950.0 0.00059233
7970.0 0.00058137
7990.0 0.0006035
8010.0 0.00064403
8030.0 0.00065372
8050.0 0.00065617
8070.0 0.00064078
8090.0 0.00063609
8110.0 0.00061036
8130.0 0.00057668
8150.0 0.00054362
8170.0 0.00053772
8190.0 0.00054973
8210.0 0.00054859
8230.0 0.00055158
8250.0 0.00054456
8270.0 0.00048411
8290.0 0.0003747
8310.0 0.00026616
8330.0 0.00017984
8350.0 0.0001288
8370.0 0.00014346
8390.0 0.00016169
8410.0 0.0002037
8430.0 0.00024804
8450.0 0.00027154
8470.0 0.00028107
8490.0 0.00029558
8510.0 0.00031222
8530.0 0.00035153
8550.0 0.00039472
8570.0 0.00045893
8590.0 0.00054834
8610.0 0.00063695
8630.0 0.00074252
8650.0 0.00082606
8670.0 0.00081722
8690.0 0.0007737
8710.0 0.00073495
8730.0 0.00069831
8750.0 0.00067005
8770.0 0.00065302
8790.0 0.00062913
8810.0 0.00058332
8830.0 0.00053747
8850.0 0.00046792
8870.0 0.00041021
8890.0 0.00037097
8910.0 0.00038112
8930.0 0.00037183
8950.0 0.0003899
8970.0 0.00039748
8990.0 0.00040991
9010.0 0.00042565
9030.0 0.00042436
9050.0 0.00042454
9070.0 0.00042501
9090.0 0.00042541
9110.0 0.00042553
9130.0 0.0004259
9150.0 0.00042654
9170.0 0.00042699
9190.0 0.0004272
9210.0 0.00042928
9230.0 0.00042974
9250.0 0.00043045
9270.0 0.00043125
9290.0 0.00043214
9310.0 0.00043313
9330.0 0.0004342
9350.0 0.00043531
9370.0 0.0004365
9390.0 0.00043776
9410.0 0.00043907
9430.0 0.00044041
9450.0 0.00044185
9470.0 0.00044335
9490.0 0.00044487
9510.0 0.00044646
9530.0 0.00044812
9550.0 0.0004498
9570.0 0.00045152
9590.0 0.00045333
9610.0 0.00045517
9630.0 0.00045703
9650.0 0.00045896
9670.0 0.00046095
9690.0 0.00046295
9710.0 0.000465
9730.0 0.0004671
9750.0 0.00046923
9770.0 0.00047136
9790.0 0.00047356
9810.0 0.0004758
9830.0 0.00047804
9850.0 0.0004803
9870.0 0.00048263
9890.0 0.00048496
9910.0 0.00048729
9930.0 0.00048965
9950.0 0.00049195
9970.0 0.00049435
9990.0 0.00049676
10010.0 0.00049492
10030.0 0.00049732
10050.0 0.00049962
10070.0 0.0005016
10090.0 0.00050416
10110.0 0.00050664
10130.0 0.00050908
10150.0 0.00051153
10170.0 0.00051392
10190.0 0.00051622
10210.0 0.00051856
10230.0 0.0005209
10250.0 0.00052316
10270.0 0.0005254
10290.0 0.00052766
10310.0 0.00052984
10330.0 0.00053194
10350.0 0.00053408
10370.0 0.00053619
10390.0 0.0005382
10410.0 0.00054017
10430.0 0.00054217
10450.0 0.00054407
10470.0 0.00054589
10490.0 0.0005477
10510.0 0.00054947
10530.0 0.00055109
10550.0 0.00055269
10570.0 0.00055429
10590.0 0.00055578
10610.0 0.00055717
10630.0 0.00055856
10650.0 0.00055987
10670.0 0.00056104
10690.0 0.00056217
10710.0 0.00056327
10730.0 0.00056424
10750.0 0.00056508
10770.0 0.00056595
10790.0 0.00056672
10810.0 0.00056734
10830.0 0.00056789
10850.0 0.00056837
10870.0 0.00056854
10890.0 0.0005684
10910.0 0.00056786
10930.0 0.00056655
10950.0 0.00056396
10970.0 0.00055994
10990.0 0.00055436
11010.0 0.00054399
11030.0 0.00053358
11050.0 0.00052155
11070.0 0.00050762
11090.0 0.00049129
11110.0 0.00047479
11130.0 0.00045797
11150.0 0.00044034
11170.0 0.00042278
11190.0 0.00040643
11210.0 0.0003903
11230.0 0.00037463
11250.0 0.00036054
11270.0 0.00034781
11290.0 0.00033584
11310.0 0.00032522
11330.0 0.0003164
11350.0 0.00030844
11370.0 0.0003013
11390.0 0.00029516
11410.0 0.00028963
11430.0 0.00028413
11450.0 0.00027885
11470.0 0.00027361
11490.0 0.00026801
11510.0 0.00026183
11530.0 0.00025546
11550.0 0.00024868
11570.0 0.0002412
11590.0 0.00023341
11610.0 0.0002256
11630.0 0.00021736
11650.0 0.00020892
11670.0 0.00020098
11690.0 0.00019331
11710.0 0.00018576
11730.0 0.00017879
11750.0 0.00017258
11770.0 0.00016669
11790.0 0.00016133
11810.0 0.00015666
11830.0 0.00015248
11850.0 0.00014854
11870.0 0.00014506
11890.0 0.00014193
11910.0 0.00013887
11930.0 0.00013587
11950.0 0.00013297
11970.0 0.00013
11990.0 0.00012682
12010.0 0.0001236
12030.0 0.00012034
12050.0 0.00011691
12070.0 0.00011336
12090.0 0.00011003
12110.0 0.00010675
12130.0 0.00010357
12150.0 0.00010072
12170.0 9.8266e-05
12190.0 9.6124e-05
12210.0 9.4517e-05
12230.0 9.3494e-05
12250.0 9.3028e-05
12270.0 9.3185e-05
12290.0 9.3933e-05
12310.0 9.5183e-05
12330.0 9.7035e-05
12350.0 9.9365e-05
12370.0 0.00010198
12390.0 0.00010493
12410.0 0.00010829
12430.0 0.00011154
12450.0 0.00011476
12470.0 0.000118
12490.0 0.00012105
12510.0 0.00012368
12530.0 0.00012608
12550.0 0.00012816
12570.0 0.00012972
12590.0 0.00013082
12610.0 0.00013151
12630.0 0.00013172
12650.0 0.00013144
12670.0 0.00013077
12690.0 0.0001297
12710.0 0.00012831
12730.0 0.00012664
12750.0 0.00012464
12770.0 0.00012245
12790.0 0.00012015
12810.0 0.00011768
12830.0 0.00011504
12850.0 0.00011241
12870.0 0.00010973
12890.0 0.0001069
12910.0 0.00010404
12930.0 0.0001012
12950.0 9.8219e-05
12970.0 9.5123e-05
12990.0 9.2109e-05
13010.0 8.9056e-05
13030.0 8.5896e-05
13050.0 8.2786e-05
13070.0 7.9815e-05
13090.0 7.6805e-05
13110.0 7.3882e-05
13130.0 7.1194e-05
13150.0 6.8683e-05
13170.0 6.6294e-05
13190.0 6.4245e-05
13210.0 6.2529e-05
13230.0 6.1072e-05
13250.0 5.9941e-05
13270.0 5.9169e-05
13290.0 5.8706e-05
13310.0 5.8566e-05
13330.0 5.8733e-05
13350.0 5.9155e-05
13370.0 5.9839e-05
13390.0 6.0755e-05
13410.0 6.1758e-05
13430.0 6.2893e-05
13450.0 6.4138e-05
13470.0 6.5375e-05
13490.0 6.6562e-05
13510.0 6.7792e-05
13530.0 6.8926e-05
13550.0 6.9913e-05
13570.0 7.0808e-05
13590.0 7.1607e-05
13610.0 7.2245e-05
13630.0 7.274e-05
13650.0 7.3142e-05
13670.0 7.3415e-05
13690.0 7.3562e-05
13710.0 7.3611e-05
13730.0 7.3565e-05
13750.0 7.3417e-05
13770.0 7.3186e-05
13790.0 7.2872e-05
13810.0 7.2478e-05
13830.0 7.2021e-05
13850.0 7.1484e-05
13870.0 7.0864e-05
13890.0 7.019e-05
13910.0 6.9459e-05
13930.0 6.8642e-05
13950.0 6.7773e-05
13970.0 6.6902e-05
13990.0 6.5979e-05
14010.0 6.5026e-05
14030.0 6.4101e-05
14050.0 6.3197e-05
14070.0 6.2282e-05
14090.0 6.1438e-05
14110.0 6.0677e-05
14130.0 5.9975e-05
14150.0 5.9352e-05
14170.0 5.885e-05
14190.0 5.845e-05
14210.0 5.8151e-05
14230.0 5.7974e-05
14250.0 5.791e-05
14270.0 5.7966e-05
14290.0 5.8147e-05
14310.0 5.8425e-05
14330.0 5.8804e-05
14350.0 5.9293e-05
14370.0 5.9853e-05
14390.0 6.0455e-05
14410.0 6.114e-05
14430.0 6.1872e-05
14450.0 6.2605e-05
14470.0 6.3363e-05
14490.0 6.418e-05
14510.0 6.4986e-05
14530.0 6.5793e-05
14550.0 6.6668e-05
14570.0 6.7606e-05
14590.0 6.8576e-05
14610.0 6.9658e-05
14630.0 7.0907e-05
14650.0 7.2257e-05
14670.0 7.3732e-05
14690.0 7.5424e-05
14710.0 7.732e-05
14730.0 7.9259e-05
14750.0 8.1382e-05
14770.0 8.3689e-05
14790.0 8.6026e-05
14810.0 8.8357e-05
14830.0 9.085e-05
14850.0 9.3263e-05
14870.0 9.5499e-05
14890.0 9.7639e-05
14910.0 9.9645e-05
14930.0 0.00010135
14950.0 0.00010277
14970.0 0.00010396
14990.0 0.00010484
15010.0 0.00010541
15030.0 0.00010576
15050.0 0.00010589
15070.0 0.00010586
15090.0 0.00010573
15110.0 0.00010553
15130.0 0.00010529
15150.0 0.00010504
15170.0 0.00010477
15190.0 0.00010449
15210.0 0.00010422
15230.0 0.00010395
15250.0 0.00010368
15270.0 0.00010341
15290.0 0.00010315
15310.0 0.00010289
15330.0 0.00010262
15350.0 0.00010236
15370.0 0.00010211
15390.0 0.00010184
15410.0 0.00010158
15430.0 0.00010133
15450.0 0.00010107
15470.0 0.00010081
15490.0 0.00010056
15510.0 0.00010032
15530.0 0.00010006
15550.0 9.9805e-05
15570.0 9.9562e-05
15590.0 9.9306e-05
15610.0 9.9046e-05
15630.0 9.8802e-05
15650.0 9.8556e-05
15670.0 9.8299e-05
15690.0 9.805e-05
15710.0 9.781e-05
15730.0 9.7556e-05
15750.0 9.7301e-05
15770.0 9.7057e-05
15790.0 9.681e-05
15810.0 9.6548e-05
15830.0 9.6298e-05
15850.0 9.6055e-05
15870.0 9.5801e-05
15890.0 9.5546e-05
15910.0 9.5302e-05
15930.0 9.5051e-05
15950.0 9.4788e-05
15970.0 9.4535e-05
15990.0 9.4286e-05
16010.0 9.4026e-05
16030.0 9.3762e-05
16050.0 9.3515e-05
16070.0 9.3259e-05
16090.0 9.2994e-05
16110.0 9.2737e-05
16130.0 9.2486e-05
16150.0 9.2213e-05
16170.0 9.1946e-05
16190.0 9.1689e-05
16210.0 9.1425e-05
16230.0 9.1151e-05
16250.0 9.0888e-05
16270.0 9.0627e-05
16290.0 9.0352e-05
16310.0 9.0079e-05
16330.0 8.9814e-05
16350.0 8.9541e-05
16370.0 8.9252e-05
16390.0 8.8982e-05
16410.0 8.8711e-05
16430.0 8.8427e-05
16450.0 8.8145e-05
16470.0 8.7874e-05
16490.0 8.7588e-05
16510.0 8.7297e-05
16530.0 8.7015e-05
16550.0 8.6732e-05
16570.0 8.6435e-05
16590.0 8.6141e-05
16610.0 8.586e-05
16630.0 8.5565e-05
16650.0 8.5266e-05
16670.0 8.4976e-05
16690.0 8.4684e-05
16710.0 8.4374e-05
16730.0 8.4072e-05
16750.0 8.3777e-05
16770.0 8.3471e-05
16790.0 8.3158e-05
16810.0 8.2859e-05
16830.0 8.2556e-05
16850.0 8.224e-05
16870.0 8.193e-05
16890.0 8.1626e-05
16910.0 8.1306e-05
16930.0 8.0981e-05
16950.0 8.0672e-05
16970.0 8.0356e-05
16990.0 8.003e-05
17010.0 7.971e-05
17030.0 7.9397e-05
17050.0 7.9068e-05
17070.0 7.8738e-05
17090.0 7.8418e-05
17110.0 7.8092e-05
17130.0 7.7751e-05
17150.0 7.7422e-05
17170.0 7.7097e-05
17190.0 7.6761e-05
17210.0 7.6423e-05
17230.0 7.6096e-05
17250.0 7.576e-05
17270.0 7.5412e-05
17290.0 7.5074e-05
17310.0 7.4739e-05
17330.0 7.4392e-05
17350.0 7.4042e-05
17370.0 7.3708e-05
17390.0 7.3364e-05
17410.0 7.3012e-05
17430.0 7.2668e-05
17450.0 7.2329e-05
17470.0 7.1968e-05
17490.0 7.1614e-05
17510.0 7.127e-05
17530.0 7.0918e-05
17550.0 7.0558e-05
17570.0 7.0208e-05
17590.0 6.9861e-05
17610.0 6.9499e-05
17630.0 6.9141e-05
17650.0 6.8791e-05
17670.0 6.8432e-05
17690.0 6.806e-05
17710.0 6.7707e-05
17730.0 6.7353e-05
17750.0 6.6987e-05
17770.0 6.6624e-05
17790.0 6.6273e-05
17810.0 6.5907e-05
17830.0 6.5537e-05
17850.0 6.5178e-05
17870.0 6.4818e-05
17890.0 6.4445e-05
17910.0 6.4077e-05
17930.0 6.3722e-05
17950.0 6.3355e-05
17970.0 6.2985e-05
17990.0 6.2625e-05
18010.0 6.2263e-05
18030.0 6.1885e-05
18050.0 6.1518e-05
18070.0 6.1157e-05
18090.0 6.0787e-05
18110.0 6.0412e-05
18130.0 6.0052e-05
18150.0 5.9689e-05
18170.0 5.9314e-05
18190.0 5.8947e-05
18210.0 5.8587e-05
18230.0 5.8213e-05
18250.0 5.7837e-05
18270.0 5.7476e-05
18290.0 5.7111e-05
18310.0 5.6737e-05
18330.0 5.6371e-05
18350.0 5.6012e-05
18370.0 5.5639e-05
18390.0 5.5268e-05
18410.0 5.4907e-05
18430.0 5.4542e-05
18450.0 5.4165e-05
18470.0 5.3801e-05
18490.0 5.3442e-05
18510.0 5.3073e-05
18530.0 5.2705e-05
18550.0 5.2349e-05
18570.0 5.1984e-05
18590.0 5.1611e-05
18610.0 5.125e-05
18630.0 5.0892e-05
18650.0 5.0524e-05
18670.0 5.0156e-05
18690.0 4.9804e-05
18710.0 4.9443e-05
18730.0 4.9077e-05
18750.0 4.872e-05
18770.0 4.8368e-05
18790.0 4.7998e-05
18810.0 4.7636e-05
18830.0 4.7285e-05
18850.0 4.6928e-05
18870.0 4.6565e-05
18890.0 4.6214e-05
18910.0 4.5865e-05
18930.0 4.5504e-05
18950.0 4.5148e-05
18970.0 4.4802e-05
18990.0 4.4448e-05
19010.0 4.4084e-05
19030.0 4.374e-05
19050.0 4.3394e-05
19070.0 4.304e-05
19090.0 4.2691e-05
19110.0 4.2353e-05
19130.0 4.2001e-05
19150.0 4.1649e-05
19170.0 4.1308e-05
19190.0 4.0966e-05
19210.0 4.0614e-05
19230.0 4.027e-05
19250.0 3.9937e-05
19270.0 3.9593e-05
19290.0 3.9249e-05
19310.0 3.8916e-05
19330.0 3.8581e-05
19350.0 3.8232e-05
19370.0 3.7896e-05
19390.0 3.7566e-05
19410.0 3.7228e-05
19430.0 3.6888e-05
19450.0 3.6563e-05
19470.0 3.6234e-05
19490.0 3.5896e-05
19510.0 3.5567e-05
19530.0 3.5245e-05
19550.0 3.491e-05
19570.0 3.4575e-05
19590.0 3.4256e-05
19610.0 3.3932e-05
19630.0 3.3601e-05
19650.0 3.328e-05
19670.0 3.2965e-05
19690.0 3.2637e-05
19710.0 3.2313e-05
19730.0 3.1999e-05
19750.0 3.1681e-05
19770.0 3.1353e-05
19790.0 3.1039e-05
19810.0 3.0729e-05
19830.0 3.0409e-05
19850.0 3.009e-05
19870.0 2.978e-05
19890.0 2.9456e-05
19910.0 2.9113e-05
19930.0 2.8766e-05
19950.0 2.8395e-05
19970.0 2.7975e-05
19990.0 2.751e-05
20010.0 2.7148e-05
20030.0 2.6594e-05
20050.0 2.5988e-05
20070.0 2.5371e-05
20090.0 2.4744e-05
20110.0 2.4078e-05
20130.0 2.3444e-05
20150.0 2.2851e-05
20170.0 2.2271e-05
20190.0 2.1717e-05
20210.0 2.1221e-05
20230.0 2.0764e-05
20250.0 2.0332e-05
20270.0 1.9953e-05
20290.0 1.9625e-05
20310.0 1.9333e-05
20330.0 1.9081e-05
20350.0 1.8889e-05
20370.0 1.8737e-05
20390.0 1.8627e-05
20410.0 1.8562e-05
20430.0 1.8539e-05
20450.0 1.8557e-05
20470.0 1.8617e-05
20490.0 1.8711e-05
20510.0 1.8841e-05
20530.0 1.9012e-05
20550.0 1.9208e-05
20570.0 1.9422e-05
20590.0 1.9668e-05
20610.0 1.9935e-05
20630.0 2.0207e-05
20650.0 2.0492e-05
20670.0 2.08e-05
20690.0 2.1097e-05
20710.0 2.1389e-05
20730.0 2.1688e-05
20750.0 2.1984e-05
20770.0 2.226e-05
20790.0 2.2538e-05
20810.0 2.2818e-05
20830.0 2.3087e-05
20850.0 2.3349e-05
20870.0 2.3626e-05
20890.0 2.3905e-05
20910.0 2.4174e-05
20930.0 2.4456e-05
20950.0 2.4753e-05
20970.0 2.5046e-05
20990.0 2.5339e-05
21010.0 2.5651e-05
21030.0 2.5958e-05
21050.0 2.625e-05
21070.0 2.654e-05
21090.0 2.6826e-05
21110.0 2.7079e-05
21130.0 2.7309e-05
21150.0 2.7522e-05
21170.0 2.7703e-05
21190.0 2.7847e-05
21210.0 2.7964e-05
21230.0 2.8046e-05
21250.0 2.8088e-05
21270.0 2.8095e-05
21290.0 2.8065e-05
21310.0 2.7997e-05
21330.0 2.7897e-05
21350.0 2.776e-05
21370.0 2.7586e-05
21390.0 2.7384e-05
21410.0 2.7153e-05
21430.0 2.6879e-05
21450.0 2.6584e-05
21470.0 2.6275e-05
21490.0 2.5937e-05
21510.0 2.5577e-05
21530.0 2.5219e-05
21550.0 2.4852e-05
21570.0 2.4467e-05
21590.0 2.4093e-05
21610.0 2.3736e-05
21630.0 2.3383e-05
21650.0 2.304e-05
21670.0 2.2744e-05
21690.0 2.2472e-05
21710.0 2.2227e-05
21730.0 2.2027e-05
21750.0 2.1871e-05
21770.0 2.1752e-05
21790.0 2.1682e-05
21810.0 2.1661e-05
21830.0 2.1686e-05
21850.0 2.176e-05
21870.0 2.188e-05
21890.0 2.2037e-05
21910.0 2.2242e-05
21930.0 2.2488e-05
21950.0 2.2759e-05
21970.0 2.3067e-05
21990.0 2.3421e-05
22010.0 2.3783e-05
22030.0 2.416e-05
22050.0 2.4567e-05
22070.0 2.4986e-05
22090.0 2.5393e-05
22110.0 2.5813e-05
22130.0 2.6241e-05
22150.0 2.6648e-05
22170.0 2.7037e-05
22190.0 2.7426e-05
22210.0 2.7788e-05
22230.0 2.8103e-05
22250.0 2.8394e-05
22270.0 2.8652e-05
22290.0 2.8859e-05
22310.0 2.902e-05
22330.0 2.9137e-05
22350.0 2.9197e-05
22370.0 2.9202e-05
22390.0 2.9151e-05
22410.0 2.9037e-05
22430.0 2.8871e-05
22450.0 2.8651e-05
22470.0 2.8367e-05
22490.0 2.8032e-05
22510.0 2.7659e-05
22530.0 2.7223e-05
22550.0 2.6731e-05
22570.0 2.6219e-05
22590.0 2.5672e-05
22610.0 2.5073e-05
22630.0 2.4454e-05
22650.0 2.3839e-05
22670.0 2.3183e-05
22690.0 2.2507e-05
22710.0 2.1846e-05
