#lamb flux
1010.0 1.0779e-05
1030.0 1.4382e-05
1050.0 1.8905e-05
1070.0 2.446e-05
1090.0 3.13e-05
1110.0 3.9067e-05
1130.0 4.7679e-05
1150.0 5.7387e-05
1170.0 6.8107e-05
1190.0 7.9141e-05
1210.0 9.0822e-05
1230.0 0.00010313
1250.0 0.00011543
1270.0 0.00012733
1290.0 0.00013929
1310.0 0.00015052
1330.0 0.00016034
1350.0 0.00016896
1370.0 0.00017634
1390.0 0.00018176
1410.0 0.00018512
1430.0 0.00018701
1450.0 0.00018707
1470.0 0.00018517
1490.0 0.00018181
1510.0 0.00017756
1530.0 0.00017184
1550.0 0.00016519
1570.0 0.00015809
1590.0 0.00015057
1610.0 0.00014264
1630.0 0.00013484
1650.0 0.00012725
1670.0 0.00011975
1690.0 0.00011255
1710.0 0.00010584
1730.0 9.9554e-05
1750.0 9.3595e-05
1770.0 8.8169e-05
1790.0 8.3228e-05
1810.0 7.8648e-05
1830.0 7.4455e-05
1850.0 7.0751e-05
1870.0 6.7359e-05
1890.0 6.4256e-05
1910.0 6.1501e-05
1930.0 5.907e-05
1950.0 5.6861e-05
1970.0 5.4912e-05
1990.0 5.3265e-05
2010.0 5.1859e-05
2030.0 5.0681e-05
2050.0 4.9804e-05
2070.0 4.9235e-05
2090.0 4.8921e-05
2110.0 4.8939e-05
2130.0 4.9347e-05
2150.0 5.014e-05
2170.0 5.134e-05
2190.0 5.3057e-05
2210.0 5.5313e-05
2230.0 5.8117e-05
2250.0 6.1546e-05
2270.0 6.5696e-05
2290.0 7.0541e-05
2310.0 7.6105e-05
2330.0 8.2499e-05
2350.0 8.9731e-05
2370.0 9.7751e-05
2390.0 0.00010663
2410.0 0.00011641
2430.0 0.00012697
2450.0 0.00013828
2470.0 0.00015039
2490.0 0.00016325
2510.0 0.00017674
2530.0 0.00019116
2550.0 0.00020702
2570.0 0.00022491
2590.0 0.00024578
2610.0 0.0002723
2630.0 0.0003064
2650.0 0.00034899
2670.0 0.00040316
2690.0 0.00047174
2710.0 0.0005517
2730.0 0.00064075
2750.0 0.00074123
2770.0 0.00084512
2790.0 0.00094455
2810.0 0.0010386
2830.0 0.0011254
2850.0 0.001196
2870.0 0.0012544
2890.0 0.0013038
2910.0 0.0013444
2930.0 0.0013774
2950.0 0.0014064
2970.0 0.0014322
2990.0 0.0014539
3010.0 0.0014725
3030.0 0.0014892
3050.0 0.0015031
3070.0 0.0015128
3090.0 0.0015202
3110.0 0.0015243
3130.0 0.0015238
3150.0 0.0015308
3170.0 0.0015318
3190.0 0.0015294
3210.0 0.0015226
3230.0 0.0015079
3250.0 0.0014656
3270.0 0.0013925
3290.0 0.0013298
3310.0 0.0013045
3330.0 0.0013066
3350.0 0.0013099
3370.0 0.0013063
3390.0 0.001297
3410.0 0.0012857
3430.0 0.0012744
3450.0 0.0012748
3470.0 0.0013037
3490.0 0.0013056
3510.0 0.0012565
3530.0 0.001306
3550.0 0.0014347
3570.0 0.0017892
3590.0 0.0020159
3610.0 0.0021941
3630.0 0.0023866
3650.0 0.0023109
3670.0 0.0020392
3690.0 0.0018191
3710.0 0.0017702
3730.0 0.0018452
3750.0 0.0018932
3770.0 0.0019213
3790.0 0.0019349
3810.0 0.0019388
3830.0 0.0017885
3850.0 0.0015937
3870.0 0.0015092
3890.0 0.001577
3910.0 0.0016309
3930.0 0.0016345
3950.0 0.0016843
3970.0 0.0017646
3990.0 0.0018012
4010.0 0.0018292
4030.0 0.0017794
4050.0 0.0017313
4070.0 0.0017054
4090.0 0.0017186
4110.0 0.0017233
4130.0 0.0016893
4150.0 0.0016329
4170.0 0.0016161
4190.0 0.0016084
4210.0 0.0015232
4230.0 0.0014105
4250.0 0.0012735
4270.0 0.0011414
4290.0 0.0010744
4310.0 0.0010371
4330.0 0.00107
4350.0 0.0011693
4370.0 0.0012394
4390.0 0.0013543
4410.0 0.0014508
4430.0 0.0014869
4450.0 0.0014136
4470.0 0.0013313
4490.0 0.0013119
4510.0 0.0013024
4530.0 0.0013046
4550.0 0.0012996
4570.0 0.0013142
4590.0 0.0013535
4610.0 0.0013875
4630.0 0.0014189
4650.0 0.0014385
4670.0 0.0014282
4690.0 0.001353
4710.0 0.0012818
4730.0 0.0012336
4750.0 0.0011981
4770.0 0.0011563
4790.0 0.0011449
4810.0 0.0011246
4830.0 0.0011956
4850.0 0.0011389
4870.0 0.0012097
4890.0 0.0011352
4910.0 0.0010495
4930.0 0.00099349
4950.0 0.00091474
4970.0 0.00082712
4990.0 0.00078778
5010.0 0.00074311
5030.0 0.00074347
5050.0 0.00074584
5070.0 0.00079447
5090.0 0.00082538
5110.0 0.00086433
5130.0 0.00089082
5150.0 0.00090179
5170.0 0.00090273
5190.0 0.00091011
5210.0 0.00090043
5230.0 0.00088618
5250.0 0.0008921
5270.0 0.00092217
5290.0 0.0009116
5310.0 0.00088852
5330.0 0.00085375
5350.0 0.00081604
5370.0 0.00079211
5390.0 0.00076499
5410.0 0.00078222
5430.0 0.00077257
5450.0 0.00076719
5470.0 0.00076239
5490.0 0.00079321
5510.0 0.00081415
5530.0 0.00079805
5550.0 0.00080542
5570.0 0.00081446
5590.0 0.00082044
5610.0 0.00080028
5630.0 0.00078486
5650.0 0.00076209
5670.0 0.00076503
5690.0 0.00073861
5710.0 0.00073526
5730.0 0.00072365
5750.0 0.00071171
5770.0 0.00070197
5790.0 0.00067635
5810.0 0.00066152
5830.0 0.00066225
5850.0 0.00066429
5870.0 0.00066147
5890.0 0.00066275
5910.0 0.00067161
5930.0 0.00068592
5950.0 0.00067925
5970.0 0.00069261
5990.0 0.0006954
6010.0 0.00069699
6030.0 0.0006889
6050.0 0.00067148
6070.0 0.00067722
6090.0 0.00068281
6110.0 0.00066819
6130.0 0.0006517
6150.0 0.00063194
6170.0 0.00060331
6190.0 0.00056721
6210.0 0.00056196
6230.0 0.00055438
6250.0 0.00054794
6270.0 0.00056014
6290.0 0.00056737
6310.0 0.00056892
6330.0 0.00057729
6350.0 0.00058313
6370.0 0.00057766
6390.0 0.00055617
6410.0 0.00054658
6430.0 0.00053649
6450.0 0.00052252
6470.0 0.00051408
6490.0 0.00051723
6510.0 0.00051261
6530.0 0.00051178
6550.0 0.00050424
6570.0 0.0004987
6590.0 0.000495
6610.0 0.00048742
6630.0 0.00048483
6650.0 0.00047991
6670.0 0.00046854
6690.0 0.00044891
6710.0 0.00043725
6730.0 0.00043384
6750.0 0.00043313
6770.0 0.00043613
6790.0 0.00042289
6810.0 0.0004212
6830.0 0.0004164
6850.0 0.00041202
6870.0 0.00040068
6890.0 0.00039422
6910.0 0.00039647
6930.0 0.00038559
6950.0 0.00039055
6970.0 0.00038679
6990.0 0.00038435
7010.0 0.00037125
7030.0 0.00037035
7050.0 0.00036879
7070.0 0.00035649
7090.0 0.00033945
7110.0 0.0003385
7130.0 0.00034212
7150.0 0.00034203
7170.0 0.00034581
7190.0 0.00034811
7210.0 0.00035917
7230.0 0.00036017
7250.0 0.00036943
7270.0 0.0003568
7290.0 0.00036092
7310.0 0.00035382
7330.0 0.0003519
7350.0 0.00034247
7370.0 0.00033836
7390.0 0.00034236
7410.0 0.00033657
7430.0 0.00034296
7450.0 0.00033226
7470.0 0.00033186
7490.0 0.00031492
7510.0 0.00029732
7530.0 0.00030565
7550.0 0.00029109
7570.0 0.00030256
7590.0 0.0002838
7610.0 0.00029852
7630.0 0.00029107
7650.0 0.00029913
7670.0 0.00028462
7690.0 0.00029123
7710.0 0.00028092
7730.0 0.00029759
7750.0 0.0002846
7770.0 0.00030086
7790.0 0.00030902
7810.0 0.00030713
7830.0 0.00032556
7850.0 0.0003106
7870.0 0.00033433
7890.0 0.00032392
7910.0 0.00031925
7930.0 0.00031308
7950.0 0.00030965
7970.0 0.00031373
7990.0 0.0003116
8010.0 0.00029864
8030.0 0.00029605
8050.0 0.00028992
8070.0 0.00028546
8090.0 0.00026769
8110.0 0.00026915
8130.0 0.00028181
8150.0 0.00029062
8170.0 0.00029121
8190.0 0.00029889
8210.0 0.00029419
8230.0 0.00028537
8250.0 0.00028409
8270.0 0.00027864
8290.0 0.00027303
8310.0 0.00025991
8330.0 0.00026096
8350.0 0.00026308
8370.0 0.00026467
8390.0 0.00026604
8410.0 0.00026241
8430.0 0.00026082
8450.0 0.0002615
8470.0 0.00026837
8490.0 0.00027178
8510.0 0.00026332
8530.0 0.00025308
8550.0 0.00025337
8570.0 0.0002496
8590.0 0.00024312
8610.0 0.0002478
8630.0 0.00024573
8650.0 0.00024255
8670.0 0.00024075
8690.0 0.00023872
8710.0 0.00022779
8730.0 0.0002301
8750.0 0.00022364
8770.0 0.00022418
8790.0 0.00021931
8810.0 0.00021481
8830.0 0.00021605
8850.0 0.00021312
8870.0 0.00020322
8890.0 0.00019805
8910.0 0.0001896
8930.0 0.00017802
8950.0 0.0001757
8970.0 0.00016824
8990.0 0.00016609
9010.0 0.00016208
9030.0 0.00016055
9050.0 0.00015949
9070.0 0.00015845
9090.0 0.0001574
9110.0 0.00015632
9130.0 0.00015525
9150.0 0.0001542
9170.0 0.00015313
9190.0 0.00015206
9210.0 0.00015098
9230.0 0.0001499
9250.0 0.00014882
9270.0 0.00014773
9290.0 0.00014663
9310.0 0.00014555
9330.0 0.00014447
9350.0 0.0001434
9370.0 0.00014232
9390.0 0.00014125
9410.0 0.00014017
9430.0 0.0001391
9450.0 0.00013803
9470.0 0.00013706
9490.0 0.00013604
9510.0 0.00013493
9530.0 0.00013383
9550.0 0.00013275
9570.0 0.00013169
9590.0 0.00013064
9610.0 0.0001296
9630.0 0.00012858
9650.0 0.00012756
9670.0 0.00012654
9690.0 0.00012553
9710.0 0.00012454
9730.0 0.00012354
9750.0 0.00012255
9770.0 0.00012158
9790.0 0.00012061
9810.0 0.00011964
9830.0 0.00011868
9850.0 0.00011764
9870.0 0.00011662
9890.0 0.00011577
9910.0 0.0001149
9930.0 0.00011385
9950.0 0.00011295
9970.0 0.00011214
9990.0 0.0001113
10010.0 0.00011047
10030.0 0.00010963
10050.0 0.00010878
10070.0 0.00010794
10090.0 0.00010712
10110.0 0.00010629
10130.0 0.00010547
10150.0 0.00010468
10170.0 0.00010389
10190.0 0.0001031
10210.0 0.00010233
10230.0 0.00010158
10250.0 0.00010082
10270.0 0.00010008
10290.0 9.9359e-05
10310.0 9.8638e-05
10330.0 9.792e-05
10350.0 9.7225e-05
10370.0 9.6541e-05
10390.0 9.5856e-05
10410.0 9.5151e-05
10430.0 9.4459e-05
10450.0 9.3847e-05
10470.0 9.322e-05
10490.0 9.2609e-05
10510.0 9.2004e-05
10530.0 9.1387e-05
10550.0 9.0787e-05
10570.0 9.0208e-05
10590.0 8.9628e-05
10610.0 8.9051e-05
10630.0 8.8498e-05
10650.0 8.7953e-05
10670.0 8.7401e-05
10690.0 8.6867e-05
10710.0 8.635e-05
10730.0 8.5831e-05
10750.0 8.5312e-05
10770.0 8.4822e-05
10790.0 8.4337e-05
10810.0 8.385e-05
10830.0 8.3377e-05
10850.0 8.2924e-05
10870.0 8.2459e-05
10890.0 8.2004e-05
10910.0 8.1571e-05
10930.0 8.1143e-05
10950.0 8.0713e-05
10970.0 8.0299e-05
10990.0 7.9904e-05
11010.0 8.4274e-05
11030.0 8.3773e-05
11050.0 8.3255e-05
11070.0 8.2711e-05
11090.0 8.2123e-05
11110.0 8.1541e-05
11130.0 8.0955e-05
11150.0 8.0345e-05
11170.0 7.9727e-05
11190.0 7.9129e-05
11210.0 7.8518e-05
11230.0 7.7895e-05
11250.0 7.7295e-05
11270.0 7.6712e-05
11290.0 7.6124e-05
11310.0 7.5554e-05
11330.0 7.5034e-05
11350.0 7.4529e-05
11370.0 7.4042e-05
11390.0 7.3597e-05
11410.0 7.3185e-05
11430.0 7.2778e-05
11450.0 7.2402e-05
11470.0 7.2057e-05
11490.0 7.1721e-05
11510.0 7.1386e-05
11530.0 7.1074e-05
11550.0 7.077e-05
11570.0 7.0455e-05
11590.0 7.0142e-05
11610.0 6.9838e-05
11630.0 6.9518e-05
11650.0 6.9183e-05
11670.0 6.8861e-05
11690.0 6.8534e-05
11710.0 6.8189e-05
11730.0 6.7843e-05
11750.0 6.7512e-05
11770.0 6.7162e-05
11790.0 6.6805e-05
11810.0 6.6463e-05
11830.0 6.6126e-05
11850.0 6.5771e-05
11870.0 6.5438e-05
11890.0 6.5133e-05
11910.0 6.4828e-05
11930.0 6.4539e-05
11950.0 6.4288e-05
11970.0 6.4058e-05
11990.0 6.3843e-05
12010.0 6.3669e-05
12030.0 6.3536e-05
12050.0 6.3429e-05
12070.0 6.3355e-05
12090.0 6.3331e-05
12110.0 6.3338e-05
12130.0 6.3377e-05
12150.0 6.345e-05
12170.0 6.3554e-05
12190.0 6.3679e-05
12210.0 6.3825e-05
12230.0 6.3987e-05
12250.0 6.4157e-05
12270.0 6.4329e-05
12290.0 6.4498e-05
12310.0 6.4659e-05
12330.0 6.4803e-05
12350.0 6.4928e-05
12370.0 6.5033e-05
12390.0 6.511e-05
12410.0 6.5148e-05
12430.0 6.5162e-05
12450.0 6.5147e-05
12470.0 6.5089e-05
12490.0 6.4995e-05
12510.0 6.4882e-05
12530.0 6.4726e-05
12550.0 6.4526e-05
12570.0 6.4307e-05
12590.0 6.4064e-05
12610.0 6.3773e-05
12630.0 6.3455e-05
12650.0 6.3143e-05
12670.0 6.2797e-05
12690.0 6.2423e-05
12710.0 6.2055e-05
12730.0 6.1685e-05
12750.0 6.1276e-05
12770.0 6.0878e-05
12790.0 6.0501e-05
12810.0 6.0115e-05
12830.0 5.9723e-05
12850.0 5.937e-05
12870.0 5.9035e-05
12890.0 5.8698e-05
12910.0 5.8391e-05
12930.0 5.8125e-05
12950.0 5.787e-05
12970.0 5.7639e-05
12990.0 5.7462e-05
13010.0 5.732e-05
13030.0 5.7204e-05
13050.0 5.7131e-05
13070.0 5.7101e-05
13090.0 5.7097e-05
13110.0 5.7123e-05
13130.0 5.718e-05
13150.0 5.7258e-05
13170.0 5.7349e-05
13190.0 5.7454e-05
13210.0 5.7565e-05
13230.0 5.7676e-05
13250.0 5.778e-05
13270.0 5.7879e-05
13290.0 5.7964e-05
13310.0 5.8029e-05
13330.0 5.8077e-05
13350.0 5.8106e-05
13370.0 5.8105e-05
13390.0 5.8072e-05
13410.0 5.8021e-05
13430.0 5.7935e-05
13450.0 5.781e-05
13470.0 5.7657e-05
13490.0 5.7481e-05
13510.0 5.7253e-05
13530.0 5.6997e-05
13550.0 5.6728e-05
13570.0 5.6427e-05
13590.0 5.609e-05
13610.0 5.5745e-05
13630.0 5.5393e-05
13650.0 5.5003e-05
13670.0 5.46e-05
13690.0 5.4199e-05
13710.0 5.3775e-05
13730.0 5.3313e-05
13750.0 5.2868e-05
13770.0 5.2416e-05
13790.0 5.1936e-05
13810.0 5.145e-05
13830.0 5.098e-05
13850.0 5.0488e-05
13870.0 4.9983e-05
13890.0 4.9497e-05
13910.0 4.9016e-05
13930.0 4.852e-05
13950.0 4.8033e-05
13970.0 4.758e-05
13990.0 4.7123e-05
14010.0 4.6669e-05
14030.0 4.6243e-05
14050.0 4.5832e-05
14070.0 4.5412e-05
14090.0 4.5016e-05
14110.0 4.4642e-05
14130.0 4.4271e-05
14150.0 4.3902e-05
14170.0 4.3557e-05
14190.0 4.322e-05
14210.0 4.2877e-05
14230.0 4.2545e-05
14250.0 4.2226e-05
14270.0 4.1899e-05
14290.0 4.1571e-05
14310.0 4.126e-05
14330.0 4.0952e-05
14350.0 4.0641e-05
14370.0 4.034e-05
14390.0 4.0053e-05
14410.0 3.9762e-05
14430.0 3.9477e-05
14450.0 3.9205e-05
14470.0 3.8937e-05
14490.0 3.8665e-05
14510.0 3.8404e-05
14530.0 3.8149e-05
14550.0 3.7889e-05
14570.0 3.7628e-05
14590.0 3.7372e-05
14610.0 3.7111e-05
14630.0 3.684e-05
14650.0 3.6571e-05
14670.0 3.63e-05
14690.0 3.602e-05
14710.0 3.5733e-05
14730.0 3.5451e-05
14750.0 3.5161e-05
14770.0 3.4862e-05
14790.0 3.4563e-05
14810.0 3.4263e-05
14830.0 3.3947e-05
14850.0 3.3628e-05
14870.0 3.3313e-05
14890.0 3.2991e-05
14910.0 3.2663e-05
14930.0 3.2343e-05
14950.0 3.2033e-05
14970.0 3.1724e-05
14990.0 3.143e-05
15010.0 3.1155e-05
15030.0 3.0892e-05
15050.0 3.0638e-05
15070.0 3.0402e-05
15090.0 3.0173e-05
15110.0 2.9947e-05
15130.0 2.9724e-05
15150.0 2.9505e-05
15170.0 2.9284e-05
15190.0 2.9062e-05
15210.0 2.8842e-05
15230.0 2.8621e-05
15250.0 2.8398e-05
15270.0 2.8174e-05
15290.0 2.7954e-05
15310.0 2.7732e-05
15330.0 2.7508e-05
15350.0 2.7287e-05
15370.0 2.7065e-05
15390.0 2.684e-05
15410.0 2.6617e-05
15430.0 2.6396e-05
15450.0 2.6174e-05
15470.0 2.595e-05
15490.0 2.573e-05
15510.0 2.551e-05
15530.0 2.5288e-05
15550.0 2.5068e-05
15570.0 2.485e-05
15590.0 2.463e-05
15610.0 2.441e-05
15630.0 2.4193e-05
15650.0 2.3977e-05
15670.0 2.376e-05
15690.0 2.3544e-05
15710.0 2.3332e-05
15730.0 2.3117e-05
15750.0 2.2904e-05
15770.0 2.2693e-05
15790.0 2.2483e-05
15810.0 2.2271e-05
15830.0 2.2063e-05
15850.0 2.1857e-05
15870.0 2.165e-05
15890.0 2.1444e-05
15910.0 2.1242e-05
15930.0 2.104e-05
15950.0 2.0837e-05
15970.0 2.0637e-05
15990.0 2.044e-05
16010.0 2.0241e-05
16030.0 2.0044e-05
16050.0 1.9851e-05
16070.0 1.9659e-05
16090.0 1.9466e-05
16110.0 1.9276e-05
16130.0 1.9089e-05
16150.0 1.89e-05
16170.0 1.8713e-05
16190.0 1.853e-05
16210.0 1.8348e-05
16230.0 1.8165e-05
16250.0 1.7986e-05
16270.0 1.781e-05
16290.0 1.7632e-05
16310.0 1.7457e-05
16330.0 1.7285e-05
16350.0 1.7113e-05
16370.0 1.6941e-05
16390.0 1.6774e-05
16410.0 1.6608e-05
16430.0 1.6442e-05
16450.0 1.6278e-05
16470.0 1.6118e-05
16490.0 1.5957e-05
16510.0 1.5797e-05
16530.0 1.5641e-05
16550.0 1.5486e-05
16570.0 1.5331e-05
16590.0 1.5178e-05
16610.0 1.5029e-05
16630.0 1.488e-05
16650.0 1.4732e-05
16670.0 1.4588e-05
16690.0 1.4444e-05
16710.0 1.43e-05
16730.0 1.416e-05
16750.0 1.4021e-05
16770.0 1.3883e-05
16790.0 1.3746e-05
16810.0 1.3613e-05
16830.0 1.3481e-05
16850.0 1.3349e-05
16870.0 1.3219e-05
16890.0 1.3092e-05
16910.0 1.2965e-05
16930.0 1.2838e-05
16950.0 1.2716e-05
16970.0 1.2594e-05
16990.0 1.2473e-05
17010.0 1.2354e-05
17030.0 1.2238e-05
17050.0 1.2121e-05
17070.0 1.2006e-05
17090.0 1.1893e-05
17110.0 1.1782e-05
17130.0 1.167e-05
17150.0 1.1561e-05
17170.0 1.1455e-05
17190.0 1.1348e-05
17210.0 1.1243e-05
17230.0 1.1141e-05
17250.0 1.1039e-05
17270.0 1.0937e-05
17290.0 1.0838e-05
17310.0 1.0741e-05
17330.0 1.0644e-05
17350.0 1.0548e-05
17370.0 1.0455e-05
17390.0 1.0362e-05
17410.0 1.027e-05
17430.0 1.018e-05
17450.0 1.0092e-05
17470.0 1.0003e-05
17490.0 9.9156e-06
17510.0 9.831e-06
17530.0 9.7467e-06
17550.0 9.6628e-06
17570.0 9.5814e-06
17590.0 9.5014e-06
17610.0 9.421e-06
17630.0 9.3422e-06
17650.0 9.2656e-06
17670.0 9.1891e-06
17690.0 9.1124e-06
17710.0 9.0389e-06
17730.0 8.9663e-06
17750.0 8.8936e-06
17770.0 8.8224e-06
17790.0 8.7535e-06
17810.0 8.684e-06
17830.0 8.6152e-06
17850.0 8.5486e-06
17870.0 8.4828e-06
17890.0 8.4168e-06
17910.0 8.3523e-06
17930.0 8.29e-06
17950.0 8.2275e-06
17970.0 8.1656e-06
17990.0 8.1057e-06
18010.0 8.0465e-06
18030.0 7.9865e-06
18050.0 7.9286e-06
18070.0 7.8722e-06
18090.0 7.8157e-06
18110.0 7.7596e-06
18130.0 7.7058e-06
18150.0 7.6525e-06
18170.0 7.5989e-06
18190.0 7.5468e-06
18210.0 7.4962e-06
18230.0 7.445e-06
18250.0 7.3943e-06
18270.0 7.3459e-06
18290.0 7.2978e-06
18310.0 7.2495e-06
18330.0 7.2028e-06
18350.0 7.1575e-06
18370.0 7.1114e-06
18390.0 7.0662e-06
18410.0 7.0226e-06
18430.0 6.9793e-06
18450.0 6.9355e-06
18470.0 6.8935e-06
18490.0 6.8527e-06
18510.0 6.8115e-06
18530.0 6.771e-06
18550.0 6.7323e-06
18570.0 6.6932e-06
18590.0 6.6539e-06
18610.0 6.6164e-06
18630.0 6.5796e-06
18650.0 6.5425e-06
18670.0 6.5059e-06
18690.0 6.4713e-06
18710.0 6.4364e-06
18730.0 6.4014e-06
18750.0 6.3679e-06
18770.0 6.3352e-06
18790.0 6.3013e-06
18810.0 6.2688e-06
18830.0 6.2376e-06
18850.0 6.2063e-06
18870.0 6.1748e-06
18890.0 6.145e-06
18910.0 6.1157e-06
18930.0 6.0857e-06
18950.0 6.0567e-06
18970.0 6.0289e-06
18990.0 6.0008e-06
19010.0 5.972e-06
19030.0 5.9456e-06
19050.0 5.9193e-06
19070.0 5.8926e-06
19090.0 5.8667e-06
19110.0 5.8422e-06
19130.0 5.8167e-06
19150.0 5.7915e-06
19170.0 5.7677e-06
19190.0 5.7442e-06
19210.0 5.7199e-06
19230.0 5.6966e-06
19250.0 5.6748e-06
19270.0 5.6523e-06
19290.0 5.6299e-06
19310.0 5.6089e-06
19330.0 5.588e-06
19350.0 5.5659e-06
19370.0 5.5454e-06
19390.0 5.5257e-06
19410.0 5.5054e-06
19430.0 5.4852e-06
19450.0 5.4667e-06
19470.0 5.4479e-06
19490.0 5.4286e-06
19510.0 5.4103e-06
19530.0 5.3929e-06
19550.0 5.3745e-06
19570.0 5.3562e-06
19590.0 5.3397e-06
19610.0 5.3229e-06
19630.0 5.3055e-06
19650.0 5.2893e-06
19670.0 5.274e-06
19690.0 5.2574e-06
19710.0 5.2414e-06
19730.0 5.2265e-06
19750.0 5.2114e-06
19770.0 5.1953e-06
19790.0 5.1809e-06
19810.0 5.1671e-06
19830.0 5.1524e-06
19850.0 5.1382e-06
19870.0 5.1255e-06
19890.0 5.1122e-06
19910.0 5.0988e-06
19930.0 5.0876e-06
19950.0 5.0781e-06
19970.0 5.0696e-06
19990.0 5.0638e-06
20010.0 5.062e-06
20030.0 5.0627e-06
20050.0 5.0662e-06
20070.0 5.0733e-06
20090.0 5.083e-06
20110.0 5.0945e-06
20130.0 5.1082e-06
20150.0 5.1236e-06
20170.0 5.1401e-06
20190.0 5.1576e-06
20210.0 5.1762e-06
20230.0 5.1956e-06
20250.0 5.2154e-06
20270.0 5.2357e-06
20290.0 5.2565e-06
20310.0 5.2775e-06
20330.0 5.2985e-06
20350.0 5.3198e-06
20370.0 5.341e-06
20390.0 5.3621e-06
20410.0 5.3832e-06
20430.0 5.4044e-06
20450.0 5.4253e-06
20470.0 5.4463e-06
20490.0 5.4676e-06
20510.0 5.4891e-06
20530.0 5.5107e-06
20550.0 5.533e-06
20570.0 5.5561e-06
20590.0 5.5795e-06
20610.0 5.6036e-06
20630.0 5.6287e-06
20650.0 5.6545e-06
20670.0 5.6807e-06
20690.0 5.7078e-06
20710.0 5.7356e-06
20730.0 5.7635e-06
20750.0 5.7917e-06
20770.0 5.8202e-06
20790.0 5.8486e-06
20810.0 5.8765e-06
20830.0 5.9041e-06
20850.0 5.9314e-06
20870.0 5.9575e-06
20890.0 5.9828e-06
20910.0 6.0079e-06
20930.0 6.032e-06
20950.0 6.0549e-06
20970.0 6.0775e-06
20990.0 6.0999e-06
21010.0 6.1209e-06
21030.0 6.1416e-06
21050.0 6.1628e-06
21070.0 6.1835e-06
21090.0 6.2035e-06
21110.0 6.2246e-06
21130.0 6.2461e-06
21150.0 6.267e-06
21170.0 6.2883e-06
21190.0 6.3107e-06
21210.0 6.3323e-06
21230.0 6.3535e-06
21250.0 6.3757e-06
21270.0 6.3978e-06
21290.0 6.4188e-06
21310.0 6.4396e-06
21330.0 6.4612e-06
21350.0 6.4813e-06
21370.0 6.5002e-06
21390.0 6.5194e-06
21410.0 6.5381e-06
21430.0 6.5539e-06
21450.0 6.57e-06
21470.0 6.5864e-06
21490.0 6.601e-06
21510.0 6.6142e-06
21530.0 6.6284e-06
21550.0 6.6417e-06
21570.0 6.6527e-06
21590.0 6.6642e-06
21610.0 6.6763e-06
21630.0 6.6866e-06
21650.0 6.695e-06
21670.0 6.7063e-06
21690.0 6.7165e-06
21710.0 6.725e-06
21730.0 6.7341e-06
21750.0 6.7446e-06
21770.0 6.7519e-06
21790.0 6.7592e-06
21810.0 6.768e-06
21830.0 6.776e-06
21850.0 6.7819e-06
21870.0 6.7891e-06
21890.0 6.7977e-06
21910.0 6.8042e-06
21930.0 6.8106e-06
21950.0 6.819e-06
21970.0 6.827e-06
21990.0 6.8328e-06
22010.0 6.8419e-06
22030.0 6.8525e-06
22050.0 6.8624e-06
22070.0 6.8734e-06
22090.0 6.8881e-06
22110.0 6.903e-06
22130.0 6.9183e-06
22150.0 6.9368e-06
22170.0 6.9577e-06
22190.0 6.9784e-06
22210.0 7.0013e-06
22230.0 7.028e-06
22250.0 7.0554e-06
22270.0 7.0836e-06
22290.0 7.1147e-06
22310.0 7.1475e-06
22330.0 7.1798e-06
22350.0 7.2138e-06
22370.0 7.2499e-06
22390.0 7.2862e-06
22410.0 7.322e-06
22430.0 7.3603e-06
22450.0 7.3994e-06
22470.0 7.4378e-06
22490.0 7.4772e-06
22510.0 7.5184e-06
22530.0 7.5588e-06
22550.0 7.5993e-06
22570.0 7.6419e-06
22590.0 7.6854e-06
22610.0 7.7285e-06
22630.0 7.7729e-06
22650.0 7.8198e-06
22670.0 7.8664e-06
22690.0 7.9137e-06
22710.0 7.9633e-06
22730.0 8.0141e-06
22750.0 8.0645e-06
