#lamb flux
1010.0 9.9454e-08
1030.0 1.0977e-07
1050.0 1.2164e-07
1070.0 1.3501e-07
1090.0 1.5018e-07
1110.0 1.6575e-07
1130.0 1.8142e-07
1150.0 1.9783e-07
1170.0 2.1476e-07
1190.0 2.3081e-07
1210.0 2.4708e-07
1230.0 2.6389e-07
1250.0 2.8036e-07
1270.0 2.9636e-07
1290.0 3.1326e-07
1310.0 3.3015e-07
1330.0 3.4635e-07
1350.0 3.6273e-07
1370.0 3.7964e-07
1390.0 3.9613e-07
1410.0 4.1212e-07
1430.0 4.2885e-07
1450.0 4.4557e-07
1470.0 4.6174e-07
1490.0 4.7808e-07
1510.0 4.9534e-07
1530.0 5.117e-07
1550.0 5.2783e-07
1570.0 5.4453e-07
1590.0 5.6125e-07
1610.0 5.7723e-07
1630.0 5.937e-07
1650.0 6.1062e-07
1670.0 6.2698e-07
1690.0 6.4315e-07
1710.0 6.5995e-07
1730.0 6.7686e-07
1750.0 6.9277e-07
1770.0 7.0916e-07
1790.0 7.259e-07
1810.0 7.4211e-07
1830.0 7.5807e-07
1850.0 7.7502e-07
1870.0 7.9155e-07
1890.0 8.0755e-07
1910.0 8.2389e-07
1930.0 8.4065e-07
1950.0 8.5667e-07
1970.0 8.7253e-07
1990.0 8.8901e-07
2010.0 9.0524e-07
2030.0 9.209e-07
2050.0 9.3708e-07
2070.0 9.5368e-07
2090.0 9.6934e-07
2110.0 9.8498e-07
2130.0 1.0011e-06
2150.0 1.0169e-06
2170.0 1.0321e-06
2190.0 1.0478e-06
2210.0 1.0636e-06
2230.0 1.0788e-06
2250.0 1.0938e-06
2270.0 1.1096e-06
2290.0 1.1249e-06
2310.0 1.1395e-06
2330.0 1.1547e-06
2350.0 1.1702e-06
2370.0 1.1857e-06
2390.0 1.2025e-06
2410.0 1.2226e-06
2430.0 1.2457e-06
2450.0 1.2735e-06
2470.0 1.3094e-06
2490.0 1.3548e-06
2510.0 1.4066e-06
2530.0 1.469e-06
2550.0 1.5473e-06
2570.0 1.6447e-06
2590.0 1.7714e-06
2610.0 1.9611e-06
2630.0 2.2314e-06
2650.0 2.5843e-06
2670.0 3.0399e-06
2690.0 3.5988e-06
2710.0 4.1942e-06
2730.0 4.7813e-06
2750.0 5.3583e-06
2770.0 5.8586e-06
2790.0 6.2541e-06
2810.0 6.5662e-06
2830.0 6.8082e-06
2850.0 6.9713e-06
2870.0 7.0892e-06
2890.0 7.1811e-06
2910.0 7.2532e-06
2930.0 7.3111e-06
2950.0 7.3661e-06
2970.0 7.4199e-06
2990.0 7.4701e-06
3010.0 0.00021425
3030.0 0.00021568
3050.0 0.00021706
3070.0 0.00021822
3090.0 0.00021921
3110.0 0.00021976
3130.0 0.0002196
3150.0 0.00021849
3170.0 0.00021602
3190.0 0.00021221
3210.0 0.00020743
3230.0 0.00020198
3250.0 0.00019657
3270.0 0.0001926
3290.0 0.00019029
3310.0 0.00019053
3330.0 0.00019315
3350.0 0.00019783
3370.0 0.00020457
3390.0 0.0002131
3410.0 0.00022239
3430.0 0.00023284
3450.0 0.00024488
3470.0 0.00025804
3490.0 0.00027199
3510.0 0.00028778
3530.0 0.00030471
3550.0 0.00032193
3570.0 0.00033998
3590.0 0.00035963
3610.0 0.00038002
3630.0 0.00040032
3650.0 0.00042141
3670.0 0.00044063
3690.0 0.00045497
3710.0 0.00046309
3730.0 0.00046293
3750.0 0.00045562
3770.0 0.00045454
3790.0 0.0004517
3810.0 0.00043312
3830.0 0.00044525
3850.0 0.00050986
3870.0 0.00053775
3890.0 0.00052384
3910.0 0.00052175
3930.0 0.00054158
3950.0 0.00055782
3970.0 0.00051685
3990.0 0.00043282
4010.0 0.0012648
4030.0 0.0015174
4050.0 0.0017394
4070.0 0.0015311
4090.0 0.0013899
4110.0 0.00122
4130.0 0.0011453
4150.0 0.0012474
4170.0 0.0012024
4190.0 0.0012633
4210.0 0.0012647
4230.0 0.0013553
4250.0 0.0016077
4270.0 0.0016384
4290.0 0.0015011
4310.0 0.0015433
4330.0 0.0016298
4350.0 0.001848
4370.0 0.0021176
4390.0 0.0019559
4410.0 0.0014112
4430.0 0.0011814
4450.0 0.001088
4470.0 0.00082066
4490.0 0.00091208
4510.0 0.001432
4530.0 0.0016625
4550.0 0.0016598
4570.0 0.0018266
4590.0 0.0020677
4610.0 0.0028966
4630.0 0.0038004
4650.0 0.0040615
4670.0 0.0037399
4690.0 0.0035871
4710.0 0.0037852
4730.0 0.0035284
4750.0 0.002608
4770.0 0.0018984
4790.0 0.0017976
4810.0 0.0017316
4830.0 0.0015978
4850.0 0.0017501
4870.0 0.0023126
4890.0 0.0027214
4910.0 0.0023612
4930.0 0.0021103
4950.0 0.0023303
4970.0 0.0029977
4990.0 0.0040618
5010.0 0.0046793
5030.0 0.0040866
5050.0 0.0027415
5070.0 0.0018195
5090.0 0.0014558
5110.0 0.0014833
5130.0 0.0017205
5150.0 0.0018468
5170.0 0.0018115
5190.0 0.0016846
5210.0 0.0017725
5230.0 0.0018916
5250.0 0.0020549
5270.0 0.0021834
5290.0 0.0024119
5310.0 0.0028468
5330.0 0.0031447
5350.0 0.0031223
5370.0 0.0033001
5390.0 0.003822
5410.0 0.0037596
5430.0 0.0032847
5450.0 0.0030437
5470.0 0.0032587
5490.0 0.0039878
5510.0 0.0049692
5530.0 0.0057068
5550.0 0.0054801
5570.0 0.0049767
5590.0 0.0043043
5610.0 0.0040047
5630.0 0.0039447
5650.0 0.0037395
5670.0 0.0035308
5690.0 0.0031238
5710.0 0.0030626
5730.0 0.002836
5750.0 0.001953
5770.0 0.0015106
5790.0 0.0017242
5810.0 0.0019333
5830.0 0.0024251
5850.0 0.0029166
5870.0 0.0032281
5890.0 0.0032635
5910.0 0.0032003
5930.0 0.0030475
5950.0 0.0031083
5970.0 0.0035761
5990.0 0.0033163
6010.0 0.0027586
6030.0 0.0023241
6050.0 0.0020288
6070.0 0.0020532
6090.0 0.0022333
6110.0 0.0024734
6130.0 0.0024902
6150.0 0.0021251
6170.0 0.0018459
6190.0 0.0020877
6210.0 0.0028067
6230.0 0.0037324
6250.0 0.0040446
6270.0 0.0034871
6290.0 0.0029396
6310.0 0.0022896
6330.0 0.0017457
6350.0 0.0015717
6370.0 0.0016525
6390.0 0.0019157
6410.0 0.0023756
6430.0 0.0027832
6450.0 0.0032088
6470.0 0.0036389
6490.0 0.0043893
6510.0 0.0049089
6530.0 0.0048412
6550.0 0.0043862
6570.0 0.0036939
6590.0 0.003347
6610.0 0.002873
6630.0 0.0026447
6650.0 0.0025105
6670.0 0.0024051
6690.0 0.0021342
6710.0 0.0019553
6730.0 0.0013426
6750.0 0.0013667
6770.0 0.0015495
6790.0 0.0018149
6810.0 0.0016059
6830.0 0.0016519
6850.0 0.0015242
6870.0 0.0013947
6890.0 0.0013217
6910.0 0.0014295
6930.0 0.0013401
6950.0 0.0014023
6970.0 0.0014744
6990.0 0.0016693
7010.0 0.0016729
7030.0 0.0017271
7050.0 0.0016282
7070.0 0.0015273
7090.0 0.0015444
7110.0 0.0015969
7130.0 0.0017334
7150.0 0.0018553
7170.0 0.0020523
7190.0 0.0022503
7210.0 0.002186
7230.0 0.0022438
7250.0 0.0024087
7270.0 0.0026174
7290.0 0.0031231
7310.0 0.0033829
7330.0 0.0032615
7350.0 0.0029473
7370.0 0.0025211
7390.0 0.0024591
7410.0 0.0026532
7430.0 0.0029582
7450.0 0.0032182
7470.0 0.0031566
7490.0 0.0028295
7510.0 0.0033363
7530.0 0.0032699
7550.0 0.002961
7570.0 0.0022756
7590.0 0.0015012
7610.0 0.0012706
7630.0 0.0014757
7650.0 0.0017655
7670.0 0.0022564
7690.0 0.0024853
7710.0 0.0025492
7730.0 0.0026649
7750.0 0.0030442
7770.0 0.0030974
7790.0 0.0028427
7810.0 0.0025574
7830.0 0.0026528
7850.0 0.0026163
7870.0 0.0024182
7890.0 0.0020127
7910.0 0.0016022
7930.0 0.0015446
7950.0 0.0014063
7970.0 0.0012886
7990.0 0.0012695
8010.0 0.00017475
8030.0 0.00016258
8050.0 0.00017037
8070.0 0.00018935
8090.0 0.0002276
8110.0 0.00021785
8130.0 0.00013868
8150.0 0.00014401
8170.0 9.0663e-05
8190.0 6.4786e-05
8210.0 0.00013849
8230.0 0.00016433
8250.0 8.9136e-05
8270.0 7.2543e-05
8290.0 0.00010862
8310.0 9.338e-05
8330.0 5.9803e-05
8350.0 4.5401e-05
8370.0 1.4678e-05
8390.0 5.0265e-05
8410.0 5.7366e-05
8430.0 7.0704e-05
8450.0 8.1433e-05
8470.0 0.0001255
8490.0 0.00010978
8510.0 9.2422e-05
8530.0 6.7e-05
8550.0 0.00015404
8570.0 0.00021722
8590.0 0.00017517
8610.0 0.00024826
8630.0 0.0002822
8650.0 0.00020843
8670.0 0.00026148
8690.0 0.00033804
8710.0 0.00029386
8730.0 0.00029879
8750.0 0.00024327
8770.0 0.00022092
8790.0 0.00023373
8810.0 0.00024357
8830.0 0.00015324
8850.0 8.152e-05
8870.0 5.8809e-05
8890.0 0.0001004
8910.0 0.00014651
8930.0 0.00018896
8950.0 0.000203
8970.0 0.00019645
8990.0 0.00014949
9010.0 0.00063698
9030.0 0.00055355
9050.0 0.00055936
9070.0 0.00056701
9090.0 0.00057353
9110.0 0.00058158
9130.0 0.00058759
9150.0 0.00059204
9170.0 0.00059679
9190.0 0.00060185
9210.0 0.00060719
9230.0 0.00061282
9250.0 0.00061851
9270.0 0.0006244
9290.0 0.00063045
9310.0 0.0006365
9330.0 0.00064265
9350.0 0.00064903
9370.0 0.00065544
9390.0 0.00066189
9410.0 0.00066852
9430.0 0.00067534
9450.0 0.00068209
9470.0 0.00068897
9490.0 0.00069604
9510.0 0.00070318
9530.0 0.00071032
9550.0 0.00071773
9570.0 0.00072524
9590.0 0.00073275
9610.0 0.00074039
9630.0 0.00074823
9650.0 0.00075612
9670.0 0.000764
9690.0 0.0007721
9710.0 0.00078032
9730.0 0.00078854
9750.0 0.00079687
9770.0 0.00080548
9790.0 0.00081404
9810.0 0.00082264
9830.0 0.00083143
9850.0 0.00084033
9870.0 0.00084917
9890.0 0.00085816
9910.0 0.00086734
9930.0 0.0008765
9950.0 0.00088569
9970.0 0.00089508
9990.0 0.00090457
10010.0 0.00078753
10030.0 0.00079573
10050.0 0.00080408
10070.0 0.00081256
10090.0 0.00082077
10110.0 0.00082919
10130.0 0.00083763
10150.0 0.00084602
10170.0 0.0008545
10190.0 0.00086313
10210.0 0.00087165
10230.0 0.00088014
10250.0 0.00088878
10270.0 0.0008974
10290.0 0.00090591
10310.0 0.00091453
10330.0 0.00092325
10350.0 0.00093181
10370.0 0.00094034
10390.0 0.00094898
10410.0 0.00095758
10430.0 0.00096599
10450.0 0.0009745
10470.0 0.00098303
10490.0 0.00099141
10510.0 0.00099972
10530.0 0.0010082
10550.0 0.0010165
10570.0 0.0010246
10590.0 0.0010328
10610.0 0.001041
10630.0 0.001049
10650.0 0.0010569
10670.0 0.0010649
10690.0 0.0010727
10710.0 0.0010803
10730.0 0.001088
10750.0 0.0010957
10770.0 0.001103
10790.0 0.0011103
10810.0 0.0011176
10830.0 0.0011246
10850.0 0.0011313
10870.0 0.0011378
10890.0 0.0011437
10910.0 0.0011483
10930.0 0.0011512
10950.0 0.0011515
10970.0 0.0011482
10990.0 0.001141
11010.0 0.0010722
11030.0 0.0010552
11050.0 0.0010344
11070.0 0.0010095
11090.0 0.00097957
11110.0 0.00094859
11130.0 0.00091627
11150.0 0.0008815
11170.0 0.00084569
11190.0 0.00081097
11210.0 0.00077514
11230.0 0.00073844
11250.0 0.00070339
11270.0 0.00066975
11290.0 0.00063607
11310.0 0.00060417
11330.0 0.00057606
11350.0 0.00054951
11370.0 0.00052495
11390.0 0.00050368
11410.0 0.00048504
11430.0 0.00046769
11450.0 0.0004527
11470.0 0.0004397
11490.0 0.00042758
11510.0 0.00041589
11530.0 0.00040502
11550.0 0.00039422
11570.0 0.00038272
11590.0 0.00037083
11610.0 0.00035875
11630.0 0.00034562
11650.0 0.0003316
11670.0 0.00031779
11690.0 0.0003038
11710.0 0.00028938
11730.0 0.00027542
11750.0 0.00026249
11770.0 0.00024981
11790.0 0.00023791
11810.0 0.00022743
11830.0 0.00021803
11850.0 0.00020937
11870.0 0.00020209
11890.0 0.00019602
11910.0 0.00019067
11930.0 0.00018605
11950.0 0.00018219
11970.0 0.00017872
11990.0 0.00017545
12010.0 0.00017241
12030.0 0.00016949
12050.0 0.00016648
12070.0 0.00016336
12090.0 0.00016036
12110.0 0.00015731
12130.0 0.00015426
12150.0 0.00015144
12170.0 0.00014896
12190.0 0.0001468
12210.0 0.00014525
12230.0 0.00014443
12250.0 0.00014441
12270.0 0.00014536
12290.0 0.00014728
12310.0 0.00015009
12330.0 0.00015408
12350.0 0.00015908
12370.0 0.0001648
12390.0 0.00017141
12410.0 0.00017918
12430.0 0.00018708
12450.0 0.00019526
12470.0 0.00020396
12490.0 0.00021271
12510.0 0.00022091
12530.0 0.00022906
12550.0 0.00023693
12570.0 0.00024386
12590.0 0.00024994
12610.0 0.00025535
12630.0 0.00025965
12650.0 0.00026259
12670.0 0.0002645
12690.0 0.00026523
12710.0 0.00026472
12730.0 0.00026312
12750.0 0.00026031
12770.0 0.00025648
12790.0 0.00025186
12810.0 0.00024635
12830.0 0.00023999
12850.0 0.00023335
12870.0 0.00022633
12890.0 0.00021874
12910.0 0.00021104
12930.0 0.00020346
12950.0 0.00019555
12970.0 0.00018751
12990.0 0.0001799
13010.0 0.0001724
13030.0 0.00016482
13050.0 0.00015754
13070.0 0.00015072
13090.0 0.00014388
13110.0 0.00013726
13130.0 0.00013115
13150.0 0.00012537
13170.0 0.0001197
13190.0 0.00011465
13210.0 0.0001102
13230.0 0.00010613
13250.0 0.00010261
13270.0 9.9818e-05
13290.0 9.7634e-05
13310.0 9.6107e-05
13330.0 9.5378e-05
13350.0 9.5392e-05
13370.0 9.6188e-05
13390.0 9.7816e-05
13410.0 0.00010004
13430.0 0.00010296
13450.0 0.00010658
13470.0 0.00011061
13490.0 0.00011489
13510.0 0.00011973
13530.0 0.00012465
13550.0 0.00012937
13570.0 0.00013403
13590.0 0.00013858
13610.0 0.00014263
13630.0 0.00014618
13650.0 0.00014942
13670.0 0.00015213
13690.0 0.00015422
13710.0 0.00015585
13730.0 0.00015703
13750.0 0.00015762
13770.0 0.00015778
13790.0 0.00015751
13810.0 0.00015683
13830.0 0.00015582
13850.0 0.00015443
13870.0 0.00015268
13890.0 0.00015067
13910.0 0.0001484
13930.0 0.00014578
13950.0 0.00014291
13970.0 0.00013998
13990.0 0.00013679
14010.0 0.00013339
14030.0 0.00013001
14050.0 0.00012659
14070.0 0.00012299
14090.0 0.00011954
14110.0 0.0001163
14130.0 0.00011316
14150.0 0.00011019
14170.0 0.00010767
14190.0 0.00010548
14210.0 0.00010362
14230.0 0.00010224
14250.0 0.00010134
14270.0 0.0001009
14290.0 0.00010098
14310.0 0.00010153
14330.0 0.00010253
14350.0 0.00010401
14370.0 0.00010586
14390.0 0.00010796
14410.0 0.00011044
14430.0 0.00011317
14450.0 0.00011597
14470.0 0.00011887
14490.0 0.00012196
14510.0 0.00012492
14530.0 0.00012773
14550.0 0.00013055
14570.0 0.00013325
14590.0 0.00013572
14610.0 0.0001381
14630.0 0.00014046
14650.0 0.00014266
14670.0 0.00014478
14690.0 0.00014699
14710.0 0.00014931
14730.0 0.00015163
14750.0 0.0001542
14770.0 0.00015711
14790.0 0.00016027
14810.0 0.00016369
14830.0 0.00016775
14850.0 0.00017216
14870.0 0.00017677
14890.0 0.00018174
14910.0 0.00018703
14930.0 0.00019212
14950.0 0.00019687
14970.0 0.00020138
14990.0 0.00020517
15010.0 0.00020807
15030.0 0.00021023
15050.0 0.00021167
15070.0 0.00021238
15090.0 0.00021266
15110.0 0.00021261
15130.0 0.00021238
15150.0 0.00021204
15170.0 0.00021165
15190.0 0.00021122
15210.0 0.0002108
15230.0 0.00021038
15250.0 0.00020994
15270.0 0.00020951
15290.0 0.00020911
15310.0 0.00020869
15330.0 0.00020827
15350.0 0.00020786
15370.0 0.00020746
15390.0 0.00020704
15410.0 0.00020663
15430.0 0.00020624
15450.0 0.00020584
15470.0 0.00020542
15490.0 0.00020504
15510.0 0.00020465
15530.0 0.00020425
15550.0 0.00020386
15570.0 0.00020348
15590.0 0.00020308
15610.0 0.00020268
15630.0 0.00020231
15650.0 0.00020193
15670.0 0.00020154
15690.0 0.00020116
15710.0 0.00020079
15730.0 0.00020041
15750.0 0.00020002
15770.0 0.00019965
15790.0 0.00019928
15810.0 0.00019889
15830.0 0.00019851
15850.0 0.00019815
15870.0 0.00019778
15890.0 0.0001974
15910.0 0.00019704
15930.0 0.00019667
15950.0 0.00019628
15970.0 0.00019592
15990.0 0.00019555
16010.0 0.00019518
16030.0 0.00019479
16050.0 0.00019444
16070.0 0.00019407
16090.0 0.00019369
16110.0 0.00019333
16130.0 0.00019297
16150.0 0.00019259
16170.0 0.00019221
16190.0 0.00019185
16210.0 0.00019148
16230.0 0.0001911
16250.0 0.00019073
16270.0 0.00019037
16290.0 0.00018999
16310.0 0.00018961
16330.0 0.00018925
16350.0 0.00018888
16370.0 0.00018848
16390.0 0.00018811
16410.0 0.00018775
16430.0 0.00018736
16450.0 0.00018698
16470.0 0.00018662
16490.0 0.00018623
16510.0 0.00018584
16530.0 0.00018547
16550.0 0.00018509
16570.0 0.0001847
16590.0 0.0001843
16610.0 0.00018393
16630.0 0.00018355
16650.0 0.00018315
16670.0 0.00018277
16690.0 0.00018239
16710.0 0.00018198
16730.0 0.00018159
16750.0 0.0001812
16770.0 0.0001808
16790.0 0.00018039
16810.0 0.00018001
16830.0 0.00017962
16850.0 0.00017921
16870.0 0.0001788
16890.0 0.00017841
16910.0 0.000178
16930.0 0.00017758
16950.0 0.00017718
16970.0 0.00017678
16990.0 0.00017636
17010.0 0.00017595
17030.0 0.00017555
17050.0 0.00017512
17070.0 0.0001747
17090.0 0.00017429
17110.0 0.00017387
17130.0 0.00017344
17150.0 0.00017301
17170.0 0.0001726
17190.0 0.00017217
17210.0 0.00017174
17230.0 0.00017132
17250.0 0.00017089
17270.0 0.00017045
17290.0 0.00017002
17310.0 0.00016959
17330.0 0.00016914
17350.0 0.0001687
17370.0 0.00016827
17390.0 0.00016783
17410.0 0.00016738
17430.0 0.00016694
17450.0 0.00016651
17470.0 0.00016604
17490.0 0.00016559
17510.0 0.00016515
17530.0 0.0001647
17550.0 0.00016423
17570.0 0.00016378
17590.0 0.00016334
17610.0 0.00016287
17630.0 0.00016241
17650.0 0.00016196
17670.0 0.00016149
17690.0 0.00016101
17710.0 0.00016055
17730.0 0.0001601
17750.0 0.00015962
17770.0 0.00015915
17790.0 0.0001587
17810.0 0.00015822
17830.0 0.00015773
17850.0 0.00015727
17870.0 0.0001568
17890.0 0.00015631
17910.0 0.00015582
17930.0 0.00015536
17950.0 0.00015488
17970.0 0.00015439
17990.0 0.00015392
18010.0 0.00015344
18030.0 0.00015294
18050.0 0.00015245
18070.0 0.00015197
18090.0 0.00015148
18110.0 0.00015098
18130.0 0.0001505
18150.0 0.00015002
18170.0 0.00014951
18190.0 0.00014902
18210.0 0.00014854
18230.0 0.00014804
18250.0 0.00014753
18270.0 0.00014704
18290.0 0.00014655
18310.0 0.00014604
18330.0 0.00014554
18350.0 0.00014506
18370.0 0.00014455
18390.0 0.00014404
18410.0 0.00014355
18430.0 0.00014305
18450.0 0.00014253
18470.0 0.00014202
18490.0 0.00014153
18510.0 0.00014102
18530.0 0.00014051
18550.0 0.00014002
18570.0 0.00013951
18590.0 0.00013899
18610.0 0.00013848
18630.0 0.00013798
18650.0 0.00013746
18670.0 0.00013695
18690.0 0.00013645
18710.0 0.00013594
18730.0 0.00013542
18750.0 0.00013492
18770.0 0.00013442
18790.0 0.00013389
18810.0 0.00013337
18830.0 0.00013287
18850.0 0.00013235
18870.0 0.00013183
18890.0 0.00013133
18910.0 0.00013082
18930.0 0.0001303
18950.0 0.00012978
18970.0 0.00012928
18990.0 0.00012876
19010.0 0.00012823
19030.0 0.00012773
19050.0 0.00012722
19070.0 0.00012669
19090.0 0.00012618
19110.0 0.00012568
19130.0 0.00012516
19150.0 0.00012463
19170.0 0.00012413
19190.0 0.00012362
19210.0 0.00012309
19230.0 0.00012257
19250.0 0.00012207
19270.0 0.00012155
19290.0 0.00012103
19310.0 0.00012053
19330.0 0.00012002
19350.0 0.00011949
19370.0 0.00011897
19390.0 0.00011847
19410.0 0.00011795
19430.0 0.00011743
19450.0 0.00011693
19470.0 0.00011642
19490.0 0.0001159
19510.0 0.00011538
19530.0 0.00011488
19550.0 0.00011436
19570.0 0.00011384
19590.0 0.00011334
19610.0 0.00011283
19630.0 0.00011231
19650.0 0.0001118
19670.0 0.0001113
19690.0 0.00011078
19710.0 0.00011027
19730.0 0.00010977
19750.0 0.00010926
19770.0 0.00010873
19790.0 0.00010823
19810.0 0.00010773
19830.0 0.00010722
19850.0 0.0001067
19870.0 0.00010619
19890.0 0.00010564
19910.0 0.00010504
19930.0 0.00010441
19950.0 0.00010368
19970.0 0.00010279
19990.0 0.00010172
20010.0 9.0688e-05
20030.0 8.9364e-05
20050.0 8.7816e-05
20070.0 8.6142e-05
20090.0 8.4343e-05
20110.0 8.231e-05
20130.0 8.0254e-05
20150.0 7.8217e-05
20170.0 7.6106e-05
20190.0 7.3967e-05
20210.0 7.1946e-05
20230.0 6.9976e-05
20250.0 6.8003e-05
20270.0 6.6171e-05
20290.0 6.4498e-05
20310.0 6.2908e-05
20330.0 6.1422e-05
20350.0 6.0188e-05
20370.0 5.909e-05
20390.0 5.8127e-05
20410.0 5.7347e-05
20430.0 5.6744e-05
20450.0 5.6264e-05
20470.0 5.594e-05
20490.0 5.5762e-05
20510.0 5.5705e-05
20530.0 5.5767e-05
20550.0 5.5931e-05
20570.0 5.6176e-05
20590.0 5.6509e-05
20610.0 5.6915e-05
20630.0 5.7363e-05
20650.0 5.7866e-05
20670.0 5.8442e-05
20690.0 5.903e-05
20710.0 5.9639e-05
20730.0 6.0295e-05
20750.0 6.0981e-05
20770.0 6.1655e-05
20790.0 6.2363e-05
20810.0 6.3111e-05
20830.0 6.3856e-05
20850.0 6.4602e-05
20870.0 6.5402e-05
20890.0 6.6216e-05
20910.0 6.7e-05
20930.0 6.7814e-05
20950.0 6.8656e-05
20970.0 6.9477e-05
20990.0 7.0286e-05
21010.0 7.1136e-05
21030.0 7.1968e-05
21050.0 7.276e-05
21070.0 7.3551e-05
21090.0 7.4344e-05
21110.0 7.5066e-05
21130.0 7.5745e-05
21150.0 7.6402e-05
21170.0 7.6996e-05
21190.0 7.7507e-05
21210.0 7.7965e-05
21230.0 7.8346e-05
21250.0 7.8617e-05
21270.0 7.8787e-05
21290.0 7.8848e-05
21310.0 7.8781e-05
21330.0 7.8592e-05
21350.0 7.8263e-05
21370.0 7.7782e-05
21390.0 7.7171e-05
21410.0 7.6425e-05
21430.0 7.548e-05
21450.0 7.4419e-05
21470.0 7.3265e-05
21490.0 7.196e-05
21510.0 7.0528e-05
21530.0 6.9074e-05
21550.0 6.755e-05
21570.0 6.5926e-05
21590.0 6.4329e-05
21610.0 6.2785e-05
21630.0 6.124e-05
21650.0 5.9731e-05
21670.0 5.8422e-05
21690.0 5.7216e-05
21710.0 5.6128e-05
21730.0 5.5237e-05
21750.0 5.4549e-05
21770.0 5.4024e-05
21790.0 5.372e-05
21810.0 5.3633e-05
21830.0 5.3748e-05
21850.0 5.4078e-05
21870.0 5.4596e-05
21890.0 5.5265e-05
21910.0 5.6124e-05
21930.0 5.7133e-05
21950.0 5.8226e-05
21970.0 5.9437e-05
21990.0 6.0797e-05
22010.0 6.2157e-05
22030.0 6.3537e-05
22050.0 6.4988e-05
22070.0 6.6446e-05
22090.0 6.7827e-05
22110.0 6.9219e-05
22130.0 7.061e-05
22150.0 7.1908e-05
22170.0 7.3132e-05
22190.0 7.4345e-05
22210.0 7.5474e-05
22230.0 7.6467e-05
22250.0 7.7402e-05
22270.0 7.8263e-05
22290.0 7.8999e-05
22310.0 7.9629e-05
22330.0 8.0184e-05
22350.0 8.0612e-05
22370.0 8.0914e-05
22390.0 8.1101e-05
22410.0 8.1158e-05
22430.0 8.1078e-05
22450.0 8.0867e-05
22470.0 8.0504e-05
22490.0 7.9995e-05
22510.0 7.9363e-05
22530.0 7.8554e-05
22550.0 7.7571e-05
22570.0 7.648e-05
22590.0 7.5252e-05
22610.0 7.3838e-05
22630.0 7.2308e-05
22650.0 7.0728e-05
22670.0 6.898e-05
22690.0 6.7115e-05
22710.0 6.5233e-05
22730.0 6.3294e-05
22750.0 6.1192e-05
22770.0 5.9138e-05
22790.0 5.7132e-05
22810.0 5.5073e-05
22830.0 5.302e-05
22850.0 5.1097e-05
