#lamb flux
1010.0 6.5356e-06
1030.0 6.831e-06
1050.0 7.1725e-06
1070.0 7.5573e-06
1090.0 7.9948e-06
1110.0 8.4447e-06
1130.0 8.8989e-06
1150.0 9.376e-06
1170.0 9.8699e-06
1190.0 1.034e-05
1210.0 1.0819e-05
1230.0 1.1316e-05
1250.0 1.1806e-05
1270.0 1.2284e-05
1290.0 1.2791e-05
1310.0 1.3301e-05
1330.0 1.3793e-05
1350.0 1.4294e-05
1370.0 1.4814e-05
1390.0 1.5326e-05
1410.0 1.5826e-05
1430.0 1.6351e-05
1450.0 1.688e-05
1470.0 1.7397e-05
1490.0 1.7922e-05
1510.0 1.8478e-05
1530.0 1.901e-05
1550.0 1.9539e-05
1570.0 2.0087e-05
1590.0 2.0638e-05
1610.0 2.1169e-05
1630.0 2.1716e-05
1650.0 2.2277e-05
1670.0 2.2821e-05
1690.0 2.3359e-05
1710.0 2.3915e-05
1730.0 2.4472e-05
1750.0 2.4995e-05
1770.0 2.553e-05
1790.0 2.6071e-05
1810.0 2.659e-05
1830.0 2.7096e-05
1850.0 2.7626e-05
1870.0 2.8136e-05
1890.0 2.8623e-05
1910.0 2.9112e-05
1930.0 2.9606e-05
1950.0 3.007e-05
1970.0 3.0521e-05
1990.0 3.0984e-05
2010.0 3.1433e-05
2030.0 3.186e-05
2050.0 3.2297e-05
2070.0 3.2745e-05
2090.0 3.3162e-05
2110.0 3.3579e-05
2130.0 3.4012e-05
2150.0 3.4441e-05
2170.0 3.4856e-05
2190.0 3.5297e-05
2210.0 3.5753e-05
2230.0 3.6204e-05
2250.0 3.6669e-05
2270.0 3.7175e-05
2290.0 3.7687e-05
2310.0 3.8205e-05
2330.0 3.8765e-05
2350.0 3.936e-05
2370.0 3.9968e-05
2390.0 4.0617e-05
2410.0 4.1328e-05
2430.0 4.2063e-05
2450.0 4.2823e-05
2470.0 4.3624e-05
2490.0 4.4445e-05
2510.0 4.5253e-05
2530.0 4.6113e-05
2550.0 4.7137e-05
2570.0 4.8495e-05
2590.0 5.0435e-05
2610.0 5.3496e-05
2630.0 5.8014e-05
2650.0 6.3995e-05
2670.0 7.1676e-05
2690.0 8.1058e-05
2710.0 9.1227e-05
2730.0 0.00010166
2750.0 0.00011253
2770.0 0.0001231
2790.0 0.00013304
2810.0 0.00014282
2830.0 0.00015286
2850.0 0.0001626
2870.0 0.00017255
2890.0 0.00018311
2910.0 0.00019407
2930.0 0.00020513
2950.0 0.00021686
2970.0 0.00022918
2990.0 0.0002416
3010.0 0.00044919
3030.0 0.00047265
3050.0 0.00049629
3070.0 0.00051854
3090.0 0.00053931
3110.0 0.00055556
3130.0 0.00056328
3150.0 0.00055833
3170.0 0.00053251
3190.0 0.00048342
3210.0 0.00041112
3230.0 0.00032727
3250.0 0.00038938
3270.0 0.00024013
3290.0 0.00040955
3310.0 0.00018124
3330.0 0.00019397
3350.0 0.00023764
3370.0 0.00028541
3390.0 0.00033514
3410.0 0.00038463
3430.0 0.00043574
3450.0 0.00048655
3470.0 0.00053383
3490.0 0.00056612
3510.0 0.00065436
3530.0 0.00082912
3550.0 0.00089097
3570.0 0.00088854
3590.0 0.0011686
3610.0 0.0009684
3630.0 0.0012203
3650.0 0.0012765
3670.0 0.0015084
3690.0 0.0015467
3710.0 0.0013877
3730.0 0.0017024
3750.0 0.0017742
3770.0 0.0018032
3790.0 0.0016691
3810.0 0.0014473
3830.0 0.001569
3850.0 0.0014934
3870.0 0.0017506
3890.0 0.0017902
3910.0 0.0018674
3930.0 0.0021244
3950.0 0.0023595
3970.0 0.0029318
3990.0 0.0027534
4010.0 0.0023213
4030.0 0.0025814
4050.0 0.0025062
4070.0 0.0026227
4090.0 0.0024874
4110.0 0.0020598
4130.0 0.0023738
4150.0 0.0022164
4170.0 0.0023041
4190.0 0.0022952
4210.0 0.0026017
4230.0 0.0021555
4250.0 0.0024511
4270.0 0.0024481
4290.0 0.0024813
4310.0 0.0027989
4330.0 0.0029128
4350.0 0.0026074
4370.0 0.0024459
4390.0 0.0025609
4410.0 0.0024083
4430.0 0.0019507
4450.0 0.0018904
4470.0 0.0020454
4490.0 0.0017852
4510.0 0.0020542
4530.0 0.0022482
4550.0 0.0028406
4570.0 0.0039169
4590.0 0.0042894
4610.0 0.0038431
4630.0 0.0049463
4650.0 0.0061092
4670.0 0.0059003
4690.0 0.0044927
4710.0 0.0044074
4730.0 0.004632
4750.0 0.0039927
4770.0 0.0031988
4790.0 0.0025652
4810.0 0.003174
4830.0 0.0035789
4850.0 0.0036336
4870.0 0.0025485
4890.0 0.0039279
4910.0 0.0046828
4930.0 0.0050539
4950.0 0.0054458
4970.0 0.0047272
4990.0 0.005118
5010.0 0.0051379
5030.0 0.0048004
5050.0 0.0043007
5070.0 0.0032717
5090.0 0.0028261
5110.0 0.0027069
5130.0 0.0025382
5150.0 0.0027855
5170.0 0.0025724
5190.0 0.0029174
5210.0 0.0029395
5230.0 0.0031819
5250.0 0.0038935
5270.0 0.0038085
5290.0 0.0039583
5310.0 0.0049597
5330.0 0.0055414
5350.0 0.005229
5370.0 0.0049546
5390.0 0.0051314
5410.0 0.0056342
5430.0 0.0059633
5450.0 0.0065509
5470.0 0.007167
5490.0 0.0076521
5510.0 0.008694
5530.0 0.0089676
5550.0 0.0091937
5570.0 0.0093108
5590.0 0.0091599
5610.0 0.0089033
5630.0 0.0087673
5650.0 0.0088588
5670.0 0.0087739
5690.0 0.0078868
5710.0 0.0073416
5730.0 0.0069398
5750.0 0.0070172
5770.0 0.0063788
5790.0 0.0061787
5810.0 0.0063992
5830.0 0.0066547
5850.0 0.0062915
5870.0 0.0061337
5890.0 0.0065784
5910.0 0.0063545
5930.0 0.0057502
5950.0 0.0053343
5970.0 0.0053465
5990.0 0.0048248
6010.0 0.0043625
6030.0 0.0042238
6050.0 0.0040343
6070.0 0.0035038
6090.0 0.0033393
6110.0 0.0037573
6130.0 0.0040425
6150.0 0.0042766
6170.0 0.0044637
6190.0 0.004593
6210.0 0.0046663
6230.0 0.0049672
6250.0 0.0045809
6270.0 0.0041143
6290.0 0.0036443
6310.0 0.0033169
6330.0 0.0031147
6350.0 0.0028779
6370.0 0.002943
6390.0 0.0033889
6410.0 0.0040846
6430.0 0.0047731
6450.0 0.0049721
6470.0 0.0051914
6490.0 0.0059213
6510.0 0.0063692
6530.0 0.0061906
6550.0 0.0061147
6570.0 0.0061919
6590.0 0.0060533
6610.0 0.0063208
6630.0 0.0060994
6650.0 0.0057039
6670.0 0.0052698
6690.0 0.0049234
6710.0 0.0052648
6730.0 0.0049322
6750.0 0.0046328
6770.0 0.00451
6790.0 0.0046855
6810.0 0.0049169
6830.0 0.0048053
6850.0 0.0045186
6870.0 0.0044917
6890.0 0.0043295
6910.0 0.0041111
6930.0 0.0044367
6950.0 0.0043219
6970.0 0.0043089
6990.0 0.0044098
7010.0 0.0042932
7030.0 0.0040297
7050.0 0.003717
7070.0 0.0035921
7090.0 0.0032873
7110.0 0.0029708
7130.0 0.0026378
7150.0 0.0024783
7170.0 0.0028551
7190.0 0.0030134
7210.0 0.0030614
7230.0 0.0032999
7250.0 0.0033259
7270.0 0.0033071
7290.0 0.0034188
7310.0 0.003487
7330.0 0.0033389
7350.0 0.0031869
7370.0 0.0031474
7390.0 0.0033209
7410.0 0.0037622
7430.0 0.0041477
7450.0 0.0045635
7470.0 0.0047416
7490.0 0.004861
7510.0 0.0046511
7530.0 0.0044684
7550.0 0.0041364
7570.0 0.0035862
7590.0 0.0034419
7610.0 0.003405
7630.0 0.003419
7650.0 0.0038307
7670.0 0.0042284
7690.0 0.0046102
7710.0 0.0050318
7730.0 0.0053492
7750.0 0.0055956
7770.0 0.0056359
7790.0 0.0059659
7810.0 0.0061374
7830.0 0.0059351
7850.0 0.0059651
7870.0 0.0057155
7890.0 0.005734
7910.0 0.005423
7930.0 0.0053693
7950.0 0.0050079
7970.0 0.0050957
7990.0 0.0049727
8010.0 0.0048831
8030.0 0.0048805
8050.0 0.0050612
8070.0 0.0049372
8090.0 0.0049443
8110.0 0.0047838
8130.0 0.0047672
8150.0 0.004602
8170.0 0.004472
8190.0 0.004413
8210.0 0.0044451
8230.0 0.004063
8250.0 0.0037557
8270.0 0.0032798
8290.0 0.0026795
8310.0 0.0021828
8330.0 0.0017131
8350.0 0.0014746
8370.0 0.0015859
8390.0 0.0017265
8410.0 0.0018789
8430.0 0.002188
8450.0 0.0023221
8470.0 0.0024362
8490.0 0.0027395
8510.0 0.0030119
8530.0 0.0034872
8550.0 0.0041162
8570.0 0.0046453
8590.0 0.0050555
8610.0 0.0054798
8630.0 0.005886
8650.0 0.0059599
8670.0 0.0059945
8690.0 0.0062007
8710.0 0.0062125
8730.0 0.0062454
8750.0 0.0060246
8770.0 0.0060299
8790.0 0.0059411
8810.0 0.0055113
8830.0 0.0054372
8850.0 0.0051342
8870.0 0.0049303
8890.0 0.0046167
8910.0 0.0048237
8930.0 0.0044846
8950.0 0.0043642
8970.0 0.0043324
8990.0 0.0042064
9010.0 0.0042066
9030.0 0.004071
9050.0 0.0040479
9070.0 0.0040394
9090.0 0.0040305
9110.0 0.0040225
9130.0 0.0040126
9150.0 0.004002
9170.0 0.0039839
9190.0 0.0039547
9210.0 0.0039857
9230.0 0.0039647
9250.0 0.0039484
9270.0 0.0039329
9290.0 0.0039179
9310.0 0.0039033
9330.0 0.0038886
9350.0 0.0038738
9370.0 0.0038588
9390.0 0.0038436
9410.0 0.0038281
9430.0 0.0038122
9450.0 0.0037955
9470.0 0.0037788
9490.0 0.0037629
9510.0 0.0037466
9530.0 0.00373
9550.0 0.0037131
9570.0 0.0036959
9590.0 0.0036787
9610.0 0.0036613
9630.0 0.0036438
9650.0 0.0036262
9670.0 0.0036085
9690.0 0.0035908
9710.0 0.003573
9730.0 0.0035552
9750.0 0.0035373
9770.0 0.0035194
9790.0 0.0035016
9810.0 0.0034837
9830.0 0.0034659
9850.0 0.0034481
9870.0 0.0034304
9890.0 0.0034127
9910.0 0.003395
9930.0 0.0033773
9950.0 0.0033447
9970.0 0.0033317
9990.0 0.003318
10010.0 0.003304
10030.0 0.0032888
10050.0 0.0032723
10070.0 0.003254
10090.0 0.0032388
10110.0 0.0032226
10130.0 0.0032068
10150.0 0.0031911
10170.0 0.0031749
10190.0 0.0031582
10210.0 0.0031425
10230.0 0.0031271
10250.0 0.0031112
10270.0 0.0030955
10290.0 0.0030807
10310.0 0.0030654
10330.0 0.0030497
10350.0 0.003035
10370.0 0.0030205
10390.0 0.0030056
10410.0 0.0029909
10430.0 0.0029772
10450.0 0.002963
10470.0 0.0029486
10490.0 0.002935
10510.0 0.0029216
10530.0 0.0029074
10550.0 0.0028937
10570.0 0.0028809
10590.0 0.0028676
10610.0 0.0028543
10630.0 0.0028417
10650.0 0.0028292
10670.0 0.0028161
10690.0 0.0028035
10710.0 0.0027915
10730.0 0.0027791
10750.0 0.0027662
10770.0 0.0027546
10790.0 0.0027429
10810.0 0.0027307
10830.0 0.0027189
10850.0 0.0027076
10870.0 0.0026951
10890.0 0.0026821
10910.0 0.0026689
10930.0 0.0026539
10950.0 0.0026355
10970.0 0.002614
10990.0 0.0025895
11010.0 0.0024529
11030.0 0.0024206
11050.0 0.0023856
11070.0 0.0023468
11090.0 0.0023029
11110.0 0.0022599
11130.0 0.0022169
11150.0 0.0021723
11170.0 0.002128
11190.0 0.0020865
11210.0 0.0020447
11230.0 0.0020026
11250.0 0.0019633
11270.0 0.001926
11290.0 0.0018885
11310.0 0.0018527
11330.0 0.0018212
11350.0 0.0017906
11370.0 0.0017613
11390.0 0.0017349
11410.0 0.0017107
11430.0 0.0016862
11450.0 0.0016635
11470.0 0.0016424
11490.0 0.0016211
11510.0 0.0015987
11530.0 0.0015772
11550.0 0.0015551
11570.0 0.0015308
11590.0 0.0015054
11610.0 0.0014796
11630.0 0.0014512
11650.0 0.0014202
11670.0 0.0013898
11690.0 0.0013584
11710.0 0.0013249
11730.0 0.0012915
11750.0 0.0012598
11770.0 0.001227
11790.0 0.0011946
11810.0 0.0011646
11830.0 0.001136
11850.0 0.0011072
11870.0 0.0010812
11890.0 0.001058
11910.0 0.0010356
11930.0 0.0010145
11950.0 0.000996
11970.0 0.00097858
11990.0 0.00096146
12010.0 0.00094604
12030.0 0.00093199
12050.0 0.00091817
12070.0 0.0009047
12090.0 0.00089307
12110.0 0.00088184
12130.0 0.00087089
12150.0 0.00086114
12170.0 0.00085272
12190.0 0.00084462
12210.0 0.00083802
12230.0 0.00083339
12250.0 0.00083041
12270.0 0.00082932
12290.0 0.00083073
12310.0 0.00083459
12330.0 0.00084102
12350.0 0.00085023
12370.0 0.00086186
12390.0 0.00087605
12410.0 0.00089323
12430.0 0.00091183
12450.0 0.00093184
12470.0 0.00095357
12490.0 0.00097607
12510.0 0.00099811
12530.0 0.0010205
12550.0 0.0010428
12570.0 0.0010636
12590.0 0.0010831
12610.0 0.0011016
12630.0 0.0011184
12650.0 0.0011329
12670.0 0.0011458
12690.0 0.001157
12710.0 0.0011661
12730.0 0.0011735
12750.0 0.0011792
12770.0 0.0011831
12790.0 0.0011854
12810.0 0.0011862
12830.0 0.0011853
12850.0 0.0011833
12870.0 0.0011801
12890.0 0.0011754
12910.0 0.0011697
12930.0 0.0011633
12950.0 0.0011554
12970.0 0.0011463
12990.0 0.0011369
13010.0 0.0011266
13030.0 0.0011149
13050.0 0.0011026
13070.0 0.0010902
13090.0 0.0010765
13110.0 0.001062
13130.0 0.0010479
13150.0 0.0010335
13170.0 0.0010183
13190.0 0.0010042
13210.0 0.00099141
13230.0 0.00097914
13250.0 0.00096819
13270.0 0.00095946
13290.0 0.0009524
13310.0 0.0009471
13330.0 0.00094417
13350.0 0.00094327
13370.0 0.00094407
13390.0 0.00094643
13410.0 0.00094979
13430.0 0.00095369
13450.0 0.00095766
13470.0 0.00096105
13490.0 0.00096343
13510.0 0.00096432
13530.0 0.0009633
13550.0 0.00096037
13570.0 0.00095529
13590.0 0.00094785
13610.0 0.00093875
13630.0 0.00092835
13650.0 0.0009161
13670.0 0.00090294
13690.0 0.00088969
13710.0 0.00087598
13730.0 0.00086165
13750.0 0.00084855
13770.0 0.00083608
13790.0 0.00082387
13810.0 0.0008125
13830.0 0.00080236
13850.0 0.00079259
13870.0 0.00078335
13890.0 0.00077504
13910.0 0.00076731
13930.0 0.00075975
13950.0 0.00075266
13970.0 0.00074625
13990.0 0.00073998
14010.0 0.00073394
14030.0 0.00072841
14050.0 0.00072323
14070.0 0.00071817
14090.0 0.00071362
14110.0 0.00070955
14130.0 0.0007058
14150.0 0.00070243
14170.0 0.00069957
14190.0 0.00069712
14210.0 0.00069503
14230.0 0.0006934
14250.0 0.00069219
14270.0 0.00069142
14290.0 0.00069112
14310.0 0.0006912
14330.0 0.00069167
14350.0 0.00069258
14370.0 0.00069377
14390.0 0.00069509
14410.0 0.00069669
14430.0 0.00069836
14450.0 0.00069987
14470.0 0.00070127
14490.0 0.00070259
14510.0 0.00070351
14530.0 0.00070406
14550.0 0.00070441
14570.0 0.00070452
14590.0 0.00070438
14610.0 0.00070422
14630.0 0.00070422
14650.0 0.00070439
14670.0 0.0007049
14690.0 0.00070606
14710.0 0.00070805
14730.0 0.0007106
14750.0 0.00071421
14770.0 0.00071908
14790.0 0.00072489
14810.0 0.00073159
14830.0 0.00074012
14850.0 0.00074962
14870.0 0.00075959
14890.0 0.00077048
14910.0 0.0007821
14930.0 0.00079304
14950.0 0.00080296
14970.0 0.0008121
14990.0 0.00081916
15010.0 0.00082374
15030.0 0.00082622
15050.0 0.0008267
15070.0 0.00082518
15090.0 0.00082242
15110.0 0.00081879
15130.0 0.00081461
15150.0 0.00081016
15170.0 0.00080552
15190.0 0.00080079
15210.0 0.00079607
15230.0 0.00079133
15250.0 0.00078655
15270.0 0.00078177
15290.0 0.00077705
15310.0 0.00077229
15330.0 0.00076752
15350.0 0.00076279
15370.0 0.00075807
15390.0 0.00075331
15410.0 0.00074857
15430.0 0.00074388
15450.0 0.00073916
15470.0 0.00073444
15490.0 0.00072977
15510.0 0.00072512
15530.0 0.00072044
15550.0 0.00071579
15570.0 0.00071118
15590.0 0.00070655
15610.0 0.00070193
15630.0 0.00069736
15650.0 0.00069281
15670.0 0.00068824
15690.0 0.00068372
15710.0 0.00067924
15730.0 0.00067474
15750.0 0.00067026
15770.0 0.00066583
15790.0 0.00066142
15810.0 0.00065699
15830.0 0.00065262
15850.0 0.00064829
15870.0 0.00064395
15890.0 0.00063964
15910.0 0.00063539
15930.0 0.00063114
15950.0 0.00062689
15970.0 0.0006227
15990.0 0.00061854
16010.0 0.00061439
16030.0 0.00061025
16050.0 0.00060619
16070.0 0.00060213
16090.0 0.00059808
16110.0 0.00059409
16130.0 0.00059014
16150.0 0.00058616
16170.0 0.00058224
16190.0 0.00057837
16210.0 0.00057451
16230.0 0.00057067
16250.0 0.00056688
16270.0 0.00056313
16290.0 0.00055938
16310.0 0.00055567
16330.0 0.00055201
16350.0 0.00054837
16370.0 0.00054472
16390.0 0.00054115
16410.0 0.00053761
16430.0 0.00053408
16450.0 0.00053059
16470.0 0.00052715
16490.0 0.00052372
16510.0 0.0005203
16530.0 0.00051694
16550.0 0.00051362
16570.0 0.00051029
16590.0 0.00050701
16610.0 0.00050379
16630.0 0.00050057
16650.0 0.00049738
16670.0 0.00049424
16690.0 0.00049113
16710.0 0.00048801
16730.0 0.00048495
16750.0 0.00048193
16770.0 0.00047893
16790.0 0.00047594
16810.0 0.00047301
16830.0 0.00047011
16850.0 0.00046722
16870.0 0.00046436
16890.0 0.00046156
16910.0 0.00045875
16930.0 0.00045597
16950.0 0.00045324
16970.0 0.00045054
16990.0 0.00044785
17010.0 0.0004452
17030.0 0.0004426
17050.0 0.00043999
17070.0 0.00043741
17090.0 0.00043488
17110.0 0.00043238
17130.0 0.00042987
17150.0 0.00042741
17170.0 0.000425
17190.0 0.00042258
17210.0 0.0004202
17230.0 0.00041786
17250.0 0.00041554
17270.0 0.00041322
17290.0 0.00041095
17310.0 0.00040871
17330.0 0.00040647
17350.0 0.00040426
17370.0 0.00040211
17390.0 0.00039996
17410.0 0.00039782
17430.0 0.00039573
17450.0 0.00039366
17470.0 0.00039159
17490.0 0.00038955
17510.0 0.00038756
17530.0 0.00038557
17550.0 0.0003836
17570.0 0.00038167
17590.0 0.00037976
17610.0 0.00037786
17630.0 0.00037598
17650.0 0.00037414
17670.0 0.00037231
17690.0 0.00037048
17710.0 0.0003687
17730.0 0.00036695
17750.0 0.00036519
17770.0 0.00036347
17790.0 0.00036178
17810.0 0.00036009
17830.0 0.00035841
17850.0 0.00035677
17870.0 0.00035516
17890.0 0.00035353
17910.0 0.00035194
17930.0 0.00035039
17950.0 0.00034884
17970.0 0.00034729
17990.0 0.00034579
18010.0 0.00034431
18030.0 0.0003428
18050.0 0.00034134
18070.0 0.00033991
18090.0 0.00033848
18110.0 0.00033706
18130.0 0.00033568
18150.0 0.00033431
18170.0 0.00033294
18190.0 0.0003316
18210.0 0.00033028
18230.0 0.00032896
18250.0 0.00032765
18270.0 0.00032638
18290.0 0.00032512
18310.0 0.00032386
18330.0 0.00032262
18350.0 0.00032142
18370.0 0.0003202
18390.0 0.000319
18410.0 0.00031783
18430.0 0.00031667
18450.0 0.0003155
18470.0 0.00031437
18490.0 0.00031325
18510.0 0.00031214
18530.0 0.00031103
18550.0 0.00030996
18570.0 0.00030889
18590.0 0.00030781
18610.0 0.00030677
18630.0 0.00030574
18650.0 0.00030471
18670.0 0.00030369
18690.0 0.00030271
18710.0 0.00030172
18730.0 0.00030073
18750.0 0.00029977
18770.0 0.00029883
18790.0 0.00029787
18810.0 0.00029693
18830.0 0.00029602
18850.0 0.00029511
18870.0 0.00029419
18890.0 0.00029331
18910.0 0.00029244
18930.0 0.00029156
18950.0 0.0002907
18970.0 0.00028986
18990.0 0.00028901
19010.0 0.00028815
19030.0 0.00028734
19050.0 0.00028654
19070.0 0.00028572
19090.0 0.00028492
19110.0 0.00028415
19130.0 0.00028336
19150.0 0.00028258
19170.0 0.00028182
19190.0 0.00028107
19210.0 0.00028031
19230.0 0.00027957
19250.0 0.00027885
19270.0 0.00027813
19290.0 0.0002774
19310.0 0.0002767
19330.0 0.00027601
19350.0 0.00027529
19370.0 0.00027461
19390.0 0.00027394
19410.0 0.00027326
19430.0 0.00027258
19450.0 0.00027193
19470.0 0.00027128
19490.0 0.00027062
19510.0 0.00026998
19530.0 0.00026936
19550.0 0.00026872
19570.0 0.00026808
19590.0 0.00026748
19610.0 0.00026687
19630.0 0.00026625
19650.0 0.00026566
19670.0 0.00026508
19690.0 0.00026447
19710.0 0.00026388
19730.0 0.00026331
19750.0 0.00026274
19770.0 0.00026215
19790.0 0.00026159
19810.0 0.00026104
19830.0 0.00026048
19850.0 0.0002599
19870.0 0.00025934
19890.0 0.00025871
19910.0 0.00025799
19930.0 0.00025716
19950.0 0.00025613
19970.0 0.00025477
19990.0 0.00025303
20010.0 0.00025096
20030.0 0.00024837
20050.0 0.00024528
20070.0 0.00024189
20090.0 0.00023823
20110.0 0.00023408
20130.0 0.00022989
20150.0 0.00022574
20170.0 0.00022144
20190.0 0.00021709
20210.0 0.00021297
20230.0 0.00020895
20250.0 0.0002049
20270.0 0.00020113
20290.0 0.00019765
20310.0 0.00019433
20330.0 0.00019119
20350.0 0.00018857
20370.0 0.00018622
20390.0 0.00018414
20410.0 0.00018247
20430.0 0.00018119
20450.0 0.0001802
20470.0 0.00017959
20490.0 0.00017933
20510.0 0.00017939
20530.0 0.00017977
20550.0 0.00018043
20570.0 0.0001813
20590.0 0.00018241
20610.0 0.00018372
20630.0 0.00018512
20650.0 0.00018663
20670.0 0.00018829
20690.0 0.00018991
20710.0 0.00019148
20730.0 0.00019305
20750.0 0.00019454
20770.0 0.00019585
20790.0 0.00019706
20810.0 0.00019812
20830.0 0.00019897
20850.0 0.00019962
20870.0 0.00020009
20890.0 0.00020033
20910.0 0.00020036
20930.0 0.00020019
20950.0 0.00019981
20970.0 0.00019927
20990.0 0.00019857
21010.0 0.00019768
21030.0 0.00019666
21050.0 0.00019556
21070.0 0.00019434
21090.0 0.00019299
21110.0 0.00019166
21130.0 0.0001903
21150.0 0.00018888
21170.0 0.00018749
21190.0 0.00018617
21210.0 0.00018484
21230.0 0.00018356
21250.0 0.00018242
21270.0 0.00018139
21290.0 0.00018044
21310.0 0.00017963
21330.0 0.00017901
21350.0 0.00017851
21370.0 0.00017817
21390.0 0.00017801
21410.0 0.00017801
21430.0 0.00017817
21450.0 0.00017851
21470.0 0.00017898
21490.0 0.00017962
21510.0 0.0001804
21530.0 0.00018128
21550.0 0.00018227
21570.0 0.0001834
21590.0 0.0001846
21610.0 0.00018585
21630.0 0.00018721
21650.0 0.00018867
21670.0 0.00019008
21690.0 0.00019156
21710.0 0.00019312
21730.0 0.00019468
21750.0 0.00019621
21770.0 0.00019785
21790.0 0.0001995
21810.0 0.0002011
21830.0 0.00020273
21850.0 0.00020441
21870.0 0.00020605
21890.0 0.00020763
21910.0 0.00020927
21930.0 0.00021088
21950.0 0.00021241
21970.0 0.00021392
21990.0 0.00021545
22010.0 0.00021684
22030.0 0.00021814
22050.0 0.00021939
22070.0 0.00022052
22090.0 0.00022149
22110.0 0.00022234
22130.0 0.00022304
22150.0 0.00022356
22170.0 0.00022389
22190.0 0.00022402
22210.0 0.00022393
22230.0 0.00022363
22250.0 0.0002231
22270.0 0.00022233
22290.0 0.00022135
22310.0 0.00022018
22330.0 0.00021871
22350.0 0.00021705
22370.0 0.00021524
22390.0 0.00021321
22410.0 0.00021092
22430.0 0.0002086
22450.0 0.00020616
22470.0 0.00020351
22490.0 0.0002008
22510.0 0.00019812
22530.0 0.00019528
22550.0 0.00019236
22570.0 0.00018957
22590.0 0.00018679
22610.0 0.00018396
22630.0 0.00018123
22650.0 0.00017869
22670.0 0.00017613
22690.0 0.00017365
22710.0 0.00017136
22730.0 0.00016919
22750.0 0.00016702
22770.0 0.00016505
22790.0 0.00016326
22810.0 0.00016153
22830.0 0.00015989
22850.0 0.00015844
22870.0 0.00015706
22890.0 0.00015573
22910.0 0.00015453
22930.0 0.00015344
22950.0 0.00015239
22970.0 0.00015139
22990.0 0.00015053
23010.0 0.00014972
23030.0 0.00014896
23050.0 0.00014827
23070.0 0.00014766
23090.0 0.00014706
