#lamb flux
1010.0 1.5351e-05
1030.0 1.6623e-05
1050.0 1.8418e-05
1070.0 2.0439e-05
1090.0 2.2642e-05
1110.0 2.4922e-05
1130.0 2.7229e-05
1150.0 2.9653e-05
1170.0 3.215e-05
1190.0 3.4501e-05
1210.0 3.6854e-05
1230.0 3.9244e-05
1250.0 4.1549e-05
1270.0 4.3719e-05
1290.0 4.5946e-05
1310.0 4.8093e-05
1330.0 5.0066e-05
1350.0 5.1998e-05
1370.0 5.3947e-05
1390.0 5.5795e-05
1410.0 5.7554e-05
1430.0 5.9409e-05
1450.0 6.1279e-05
1470.0 6.311e-05
1490.0 6.502e-05
1510.0 6.7124e-05
1530.0 6.9195e-05
1550.0 7.1339e-05
1570.0 7.3668e-05
1590.0 7.6121e-05
1610.0 7.8612e-05
1630.0 8.1337e-05
1650.0 8.4259e-05
1670.0 8.7245e-05
1690.0 9.0334e-05
1710.0 9.3634e-05
1730.0 9.7061e-05
1750.0 0.00010044
1770.0 0.00010395
1790.0 0.00010757
1810.0 0.00011111
1830.0 0.0001146
1850.0 0.00011817
1870.0 0.00012159
1890.0 0.00012479
1910.0 0.00012786
1930.0 0.00013078
1950.0 0.00013335
1970.0 0.00013561
1990.0 0.00013768
2010.0 0.00013939
2030.0 0.00014072
2050.0 0.00014181
2070.0 0.00014266
2090.0 0.0001431
2110.0 0.00014329
2130.0 0.00014332
2150.0 0.00014313
2170.0 0.00014271
2190.0 0.00014226
2210.0 0.00014176
2230.0 0.00014116
2250.0 0.00014056
2270.0 0.00014009
2290.0 0.00013964
2310.0 0.00013922
2330.0 0.00013898
2350.0 0.0001389
2370.0 0.00013891
2390.0 0.00013913
2410.0 0.00013965
2430.0 0.00014035
2450.0 0.00014129
2470.0 0.00014261
2490.0 0.00014435
2510.0 0.00014641
2530.0 0.00014923
2550.0 0.0001534
2570.0 0.00015949
2590.0 0.00016833
2610.0 0.00018214
2630.0 0.00020162
2650.0 0.00022605
2670.0 0.00025595
2690.0 0.00029048
2710.0 0.00032512
2730.0 0.00035726
2750.0 0.00038653
2770.0 0.00040943
2790.0 0.00042512
2810.0 0.00043484
2830.0 0.00043925
2850.0 0.00043981
2870.0 0.00043832
2890.0 0.00043558
2910.0 0.00043264
2930.0 0.00043041
2950.0 0.0004285
2970.0 0.00042719
2990.0 0.00042701
3010.0 0.00057262
3030.0 0.00057438
3050.0 0.00057721
3070.0 0.00058147
3090.0 0.00058597
3110.0 0.00059039
3130.0 0.00059463
3150.0 0.00060029
3170.0 0.00060274
3190.0 0.00069637
3210.0 0.0011051
3230.0 0.0017625
3250.0 0.002089
3270.0 0.001877
3290.0 0.0015085
3310.0 0.0013107
3330.0 0.001241
3350.0 0.0012516
3370.0 0.0012853
3390.0 0.0013245
3410.0 0.0013604
3430.0 0.0013632
3450.0 0.0013849
3470.0 0.0014151
3490.0 0.001512
3510.0 0.0016945
3530.0 0.0019091
3550.0 0.0022933
3570.0 0.0027609
3590.0 0.0030079
3610.0 0.0030596
3630.0 0.0030681
3650.0 0.0031053
3670.0 0.003376
3690.0 0.0040143
3710.0 0.0047091
3730.0 0.005193
3750.0 0.0055694
3770.0 0.0055892
3790.0 0.0053021
3810.0 0.0048951
3830.0 0.0043446
3850.0 0.0039011
3870.0 0.0037254
3890.0 0.0041401
3910.0 0.004943
3930.0 0.0057611
3950.0 0.0064148
3970.0 0.0067553
3990.0 0.0068241
4010.0 0.006729
4030.0 0.006023
4050.0 0.0050147
4070.0 0.0044792
4090.0 0.0045355
4110.0 0.0048693
4130.0 0.00503
4150.0 0.0050607
4170.0 0.0050471
4190.0 0.0051163
4210.0 0.0051559
4230.0 0.0053322
4250.0 0.005491
4270.0 0.0056308
4290.0 0.0056951
4310.0 0.0058073
4330.0 0.0059474
4350.0 0.0060281
4370.0 0.0058263
4390.0 0.0053454
4410.0 0.0047041
4430.0 0.0041027
4450.0 0.0037487
4470.0 0.003776
4490.0 0.0040749
4510.0 0.0045767
4530.0 0.0053402
4550.0 0.0065196
4570.0 0.0079063
4590.0 0.0095131
4610.0 0.011107
4630.0 0.012084
4650.0 0.012378
4670.0 0.012201
4690.0 0.011365
4710.0 0.0099335
4730.0 0.0083087
4750.0 0.0069593
4770.0 0.0061027
4790.0 0.0059294
4810.0 0.0061174
4830.0 0.0064439
4850.0 0.0069016
4870.0 0.007447
4890.0 0.0077678
4910.0 0.0080717
4930.0 0.0086751
4950.0 0.0093264
4970.0 0.0095016
4990.0 0.0090311
5010.0 0.0080678
5030.0 0.0069025
5050.0 0.0059816
5070.0 0.0054163
5090.0 0.0051436
5110.0 0.0051205
5130.0 0.0051481
5150.0 0.0051375
5170.0 0.0051957
5190.0 0.0054564
5210.0 0.0059816
5230.0 0.006645
5250.0 0.0074894
5270.0 0.0083683
5290.0 0.0090197
5310.0 0.009491
5330.0 0.0099215
5350.0 0.010123
5370.0 0.0099466
5390.0 0.0096514
5410.0 0.0095755
5430.0 0.0099699
5450.0 0.010846
5470.0 0.011792
5490.0 0.012329
5510.0 0.012375
5530.0 0.012129
5550.0 0.01172
5570.0 0.011215
5590.0 0.010736
5610.0 0.010327
5630.0 0.0099869
5650.0 0.0095266
5670.0 0.0088023
5690.0 0.00802
5710.0 0.007386
5730.0 0.0068644
5750.0 0.0066079
5770.0 0.0066241
5790.0 0.0066751
5810.0 0.0066128
5830.0 0.0065154
5850.0 0.0063486
5870.0 0.0060849
5890.0 0.0059134
5910.0 0.0058087
5930.0 0.0055139
5950.0 0.0050085
5970.0 0.0043997
5990.0 0.0038102
6010.0 0.0034183
6030.0 0.0032882
6050.0 0.0033842
6070.0 0.0035374
6090.0 0.0035224
6110.0 0.0034299
6130.0 0.0034654
6150.0 0.0036251
6170.0 0.003778
6190.0 0.0038573
6210.0 0.0038514
6230.0 0.0036965
6250.0 0.0033828
6270.0 0.0030019
6290.0 0.0026963
6310.0 0.0026207
6330.0 0.0027563
6350.0 0.0029515
6370.0 0.0031487
6390.0 0.0034621
6410.0 0.0039023
6430.0 0.0042525
6450.0 0.0044351
6470.0 0.0045587
6490.0 0.0046634
6510.0 0.0047109
6530.0 0.0047338
6550.0 0.0047952
6570.0 0.0048267
6590.0 0.0048053
6610.0 0.0047021
6630.0 0.0044985
6650.0 0.0042129
6670.0 0.0039317
6690.0 0.0037462
6710.0 0.0036084
6730.0 0.0034555
6750.0 0.0033709
6770.0 0.0034256
6790.0 0.0035041
6810.0 0.0035064
6830.0 0.0034459
6850.0 0.0033591
6870.0 0.0032723
6890.0 0.0031983
6910.0 0.0032021
6930.0 0.0032311
6950.0 0.0032337
6970.0 0.0032312
6990.0 0.0031942
7010.0 0.0030986
7030.0 0.0029217
7050.0 0.0026777
7070.0 0.0024892
7090.0 0.0024681
7110.0 0.0025286
7130.0 0.0024974
7150.0 0.0024022
7170.0 0.0024152
7190.0 0.0025766
7210.0 0.0027654
7230.0 0.0029139
7250.0 0.0029931
7270.0 0.0029387
7290.0 0.0028189
7310.0 0.0027434
7330.0 0.0027782
7350.0 0.0028661
7370.0 0.0029287
7390.0 0.0030321
7410.0 0.0032187
7430.0 0.0034033
7450.0 0.0035268
7470.0 0.003548
7490.0 0.0033809
7510.0 0.0031822
7530.0 0.003123
7550.0 0.0030317
7570.0 0.002933
7590.0 0.002905
7610.0 0.0029305
7630.0 0.0030271
7650.0 0.0032338
7670.0 0.0035006
7690.0 0.003754
7710.0 0.0039418
7730.0 0.0041068
7750.0 0.0042552
7770.0 0.0043668
7790.0 0.0044777
7810.0 0.0045205
7830.0 0.0044137
7850.0 0.0042824
7870.0 0.0042017
7890.0 0.0041816
7910.0 0.0042031
7930.0 0.0041404
7950.0 0.0040473
7970.0 0.0039347
7990.0 0.0038525
8010.0 0.003662
8030.0 0.0036811
8050.0 0.0036896
8070.0 0.0036611
8090.0 0.003643
8110.0 0.0036222
8130.0 0.0036447
8150.0 0.0036385
8170.0 0.003601
8190.0 0.0035143
8210.0 0.0033881
8230.0 0.0032741
8250.0 0.00324
8270.0 0.00309
8290.0 0.0027491
8310.0 0.0023719
8330.0 0.0021177
8350.0 0.0020485
8370.0 0.002222
8390.0 0.002498
8410.0 0.0026774
8430.0 0.0028133
8450.0 0.0030287
8470.0 0.0032702
8490.0 0.0035748
8510.0 0.0039144
8530.0 0.0042619
8550.0 0.00454
8570.0 0.0047503
8590.0 0.0049138
8610.0 0.0050277
8630.0 0.00504
8650.0 0.0049687
8670.0 0.004994
8690.0 0.0052461
8710.0 0.0055817
8730.0 0.0057378
8750.0 0.0057017
8770.0 0.0057616
8790.0 0.0057808
8810.0 0.0055759
8830.0 0.0051842
8850.0 0.0046901
8870.0 0.0043211
8890.0 0.0042101
8910.0 0.004123
8930.0 0.0038635
8950.0 0.003595
8970.0 0.0034959
8990.0 0.003527
9010.0 0.0034923
9030.0 0.0034381
9050.0 0.0034071
9070.0 0.0033895
9090.0 0.0033737
9110.0 0.0033584
9130.0 0.0033431
9150.0 0.0033281
9170.0 0.0033129
9190.0 0.0032996
9210.0 0.0032895
9230.0 0.003273
9250.0 0.0032576
9270.0 0.0032429
9290.0 0.0032288
9310.0 0.0032149
9330.0 0.0032013
9350.0 0.0031882
9370.0 0.0031752
9390.0 0.0031622
9410.0 0.0031495
9430.0 0.0031362
9450.0 0.0031192
9470.0 0.0031037
9490.0 0.0030957
9510.0 0.0030856
9530.0 0.0030753
9550.0 0.0030643
9570.0 0.003053
9590.0 0.0030419
9610.0 0.0030308
9630.0 0.0030195
9650.0 0.0030083
9670.0 0.0029976
9690.0 0.0029867
9710.0 0.0029758
9730.0 0.0029652
9750.0 0.0029546
9770.0 0.0029437
9790.0 0.0029332
9810.0 0.0029229
9830.0 0.0029124
9850.0 0.0029017
9870.0 0.0028915
9890.0 0.0028813
9910.0 0.0028708
9930.0 0.0028604
9950.0 0.0028427
9970.0 0.0028344
9990.0 0.0028256
10010.0 0.0028168
10030.0 0.0028072
10050.0 0.0027971
10070.0 0.0027871
10090.0 0.0027771
10110.0 0.0027655
10130.0 0.0027505
10150.0 0.0027406
10170.0 0.0027312
10190.0 0.0027204
10210.0 0.0027101
10230.0 0.0026997
10250.0 0.0026881
10270.0 0.0026765
10290.0 0.0026654
10310.0 0.0026534
10330.0 0.0026405
10350.0 0.0026285
10370.0 0.0026164
10390.0 0.0026033
10410.0 0.0025901
10430.0 0.0025778
10450.0 0.0025645
10470.0 0.0025505
10490.0 0.002537
10510.0 0.0025235
10530.0 0.0025083
10550.0 0.0024936
10570.0 0.0024795
10590.0 0.0024644
10610.0 0.0024486
10630.0 0.0024335
10650.0 0.0024181
10670.0 0.0024012
10690.0 0.0023847
10710.0 0.0023685
10730.0 0.0023512
10750.0 0.0023329
10770.0 0.0023159
10790.0 0.0022983
10810.0 0.0022795
10830.0 0.0022609
10850.0 0.0022429
10870.0 0.0022229
10890.0 0.0022027
10910.0 0.0021833
10930.0 0.0021632
10950.0 0.0021418
10970.0 0.0021207
10990.0 0.0021004
11010.0 0.0021989
11030.0 0.0021763
11050.0 0.0021547
11070.0 0.0021329
11090.0 0.0021098
11110.0 0.0020885
11130.0 0.0020677
11150.0 0.0020464
11170.0 0.0020253
11190.0 0.0020057
11210.0 0.0019859
11230.0 0.0019658
11250.0 0.001947
11270.0 0.0019289
11290.0 0.0019106
11310.0 0.0018928
11330.0 0.0018766
11350.0 0.0018603
11370.0 0.0018439
11390.0 0.0018282
11410.0 0.0018126
11430.0 0.0017958
11450.0 0.0017787
11470.0 0.0017614
11490.0 0.0017428
11510.0 0.0017224
11530.0 0.0017017
11550.0 0.0016799
11570.0 0.001656
11590.0 0.0016311
11610.0 0.001606
11630.0 0.0015789
11650.0 0.0015504
11670.0 0.0015225
11690.0 0.001494
11710.0 0.0014642
11730.0 0.0014344
11750.0 0.0014056
11770.0 0.0013755
11790.0 0.0013449
11810.0 0.0013152
11830.0 0.0012855
11850.0 0.0012543
11870.0 0.001224
11890.0 0.0011948
11910.0 0.001165
11930.0 0.0011354
11950.0 0.0011073
11970.0 0.0010796
11990.0 0.0010517
12010.0 0.0010255
12030.0 0.0010009
12050.0 0.00097684
12070.0 0.00095372
12090.0 0.00093321
12110.0 0.00091389
12130.0 0.00089573
12150.0 0.0008796
12170.0 0.00086549
12190.0 0.00085259
12210.0 0.00084175
12230.0 0.00083308
12250.0 0.00082623
12270.0 0.00082126
12290.0 0.00081825
12310.0 0.00081689
12330.0 0.00081727
12350.0 0.00081919
12370.0 0.00082217
12390.0 0.00082628
12410.0 0.00083176
12430.0 0.0008374
12450.0 0.00084332
12470.0 0.00084981
12490.0 0.00085633
12510.0 0.00086225
12530.0 0.00086819
12550.0 0.00087392
12570.0 0.00087873
12590.0 0.00088272
12610.0 0.00088615
12630.0 0.00088848
12650.0 0.00088931
12670.0 0.00088904
12690.0 0.00088743
12710.0 0.00088428
12730.0 0.00087969
12750.0 0.00087355
12770.0 0.00086592
12790.0 0.00085704
12810.0 0.00084682
12830.0 0.00083528
12850.0 0.00082317
12870.0 0.00081043
12890.0 0.00079685
12910.0 0.0007831
12930.0 0.00076955
12950.0 0.00075568
12970.0 0.0007418
12990.0 0.00072869
13010.0 0.00071591
13030.0 0.00070326
13050.0 0.00069119
13070.0 0.00067986
13090.0 0.00066865
13110.0 0.00065781
13130.0 0.00064763
13150.0 0.00063784
13170.0 0.00062812
13190.0 0.00061902
13210.0 0.00061047
13230.0 0.00060211
13250.0 0.00059406
13270.0 0.00058657
13290.0 0.00057933
13310.0 0.00057221
13330.0 0.00056552
13350.0 0.00055916
13370.0 0.0005529
13390.0 0.00054679
13410.0 0.00054107
13430.0 0.00053544
13450.0 0.00052984
13470.0 0.00052445
13490.0 0.00051923
13510.0 0.00051388
13530.0 0.00050864
13550.0 0.00050356
13570.0 0.00049847
13590.0 0.00049331
13610.0 0.00048828
13630.0 0.00048335
13650.0 0.0004783
13670.0 0.0004733
13690.0 0.00046846
13710.0 0.0004636
13730.0 0.00045862
13750.0 0.0004539
13770.0 0.00044928
13790.0 0.00044462
13810.0 0.00044006
13830.0 0.00043575
13850.0 0.00043143
13870.0 0.00042716
13890.0 0.00042312
13910.0 0.00041923
13930.0 0.00041536
13950.0 0.00041163
13970.0 0.00040818
13990.0 0.00040475
14010.0 0.00040138
14030.0 0.00039818
14050.0 0.00039507
14070.0 0.00039186
14090.0 0.00038876
14110.0 0.00038575
14130.0 0.0003827
14150.0 0.00037962
14170.0 0.0003767
14190.0 0.00037383
14210.0 0.00037094
14230.0 0.00036819
14250.0 0.00036564
14270.0 0.00036314
14290.0 0.00036078
14310.0 0.00035871
14330.0 0.00035683
14350.0 0.00035508
14370.0 0.00035356
14390.0 0.00035225
14410.0 0.00035106
14430.0 0.00035
14450.0 0.00034909
14470.0 0.00034826
14490.0 0.00034745
14510.0 0.00034672
14530.0 0.00034605
14550.0 0.00034536
14570.0 0.0003447
14590.0 0.0003441
14610.0 0.00034354
14630.0 0.00034303
14650.0 0.0003427
14670.0 0.00034258
14690.0 0.00034271
14710.0 0.00034322
14730.0 0.00034417
14750.0 0.00034567
14770.0 0.00034786
14790.0 0.00035076
14810.0 0.00035439
14830.0 0.00035916
14850.0 0.00036486
14870.0 0.00037132
14890.0 0.00037872
14910.0 0.00038702
14930.0 0.0003955
14950.0 0.00040388
14970.0 0.00041225
14990.0 0.00041981
15010.0 0.00042618
15030.0 0.00043153
15050.0 0.00043587
15070.0 0.00043907
15090.0 0.00044158
15110.0 0.00044362
15130.0 0.00044536
15150.0 0.00044695
15170.0 0.00044848
15190.0 0.00044999
15210.0 0.00045152
15230.0 0.00045308
15250.0 0.00045466
15270.0 0.00045628
15290.0 0.00045793
15310.0 0.00045961
15330.0 0.00046132
15350.0 0.00046306
15370.0 0.00046484
15390.0 0.00046664
15410.0 0.00046847
15430.0 0.00047033
15450.0 0.00047222
15470.0 0.00047414
15490.0 0.00047609
15510.0 0.00047806
15530.0 0.00048006
15550.0 0.00048209
15570.0 0.00048415
15590.0 0.00048622
15610.0 0.00048833
15630.0 0.00049046
15650.0 0.00049261
15670.0 0.00049478
15690.0 0.00049698
15710.0 0.0004992
15730.0 0.00050145
15750.0 0.00050371
15770.0 0.00050599
15790.0 0.0005083
15810.0 0.00051062
15830.0 0.00051296
15850.0 0.00051532
15870.0 0.00051769
15890.0 0.00052008
15910.0 0.00052249
15930.0 0.00052491
15950.0 0.00052735
15970.0 0.0005298
15990.0 0.00053226
16010.0 0.00053474
16030.0 0.00053722
16050.0 0.00053972
16070.0 0.00054222
16090.0 0.00054474
16110.0 0.00054726
16130.0 0.00054979
16150.0 0.00055232
16170.0 0.00055486
16190.0 0.00055741
16210.0 0.00055996
16230.0 0.00056251
16250.0 0.00056506
16270.0 0.00056762
16290.0 0.00057017
16310.0 0.00057273
16330.0 0.00057528
16350.0 0.00057783
16370.0 0.00058037
16390.0 0.00058291
16410.0 0.00058545
16430.0 0.00058797
16450.0 0.00059049
16470.0 0.00059301
16490.0 0.00059551
16510.0 0.000598
16530.0 0.00060048
16550.0 0.00060295
16570.0 0.0006054
16590.0 0.00060784
16610.0 0.00061027
16630.0 0.00061268
16650.0 0.00061507
16670.0 0.00061744
16690.0 0.00061979
16710.0 0.00062212
16730.0 0.00062443
16750.0 0.00062672
16770.0 0.00062899
16790.0 0.00063123
16810.0 0.00063345
16830.0 0.00063564
16850.0 0.0006378
16870.0 0.00063993
16890.0 0.00064204
16910.0 0.00064411
16930.0 0.00064615
16950.0 0.00064817
16970.0 0.00065015
16990.0 0.00065209
17010.0 0.000654
17030.0 0.00065588
17050.0 0.00065772
17070.0 0.00065952
17090.0 0.00066129
17110.0 0.00066301
17130.0 0.00066469
17150.0 0.00066634
17170.0 0.00066795
17190.0 0.00066951
17210.0 0.00067103
17230.0 0.00067251
17250.0 0.00067394
17270.0 0.00067532
17290.0 0.00067667
17310.0 0.00067796
17330.0 0.00067921
17350.0 0.00068041
17370.0 0.00068157
17390.0 0.00068268
17410.0 0.00068373
17430.0 0.00068474
17450.0 0.0006857
17470.0 0.0006866
17490.0 0.00068746
17510.0 0.00068826
17530.0 0.00068902
17550.0 0.00068972
17570.0 0.00069037
17590.0 0.00069096
17610.0 0.0006915
17630.0 0.00069199
17650.0 0.00069243
17670.0 0.00069281
17690.0 0.00069313
17710.0 0.00069341
17730.0 0.00069363
17750.0 0.00069379
17770.0 0.0006939
17790.0 0.00069395
17810.0 0.00069395
17830.0 0.00069389
17850.0 0.00069378
17870.0 0.00069362
17890.0 0.0006934
17910.0 0.00069312
17930.0 0.00069279
17950.0 0.0006924
17970.0 0.00069196
17990.0 0.00069147
18010.0 0.00069092
18030.0 0.00069032
18050.0 0.00068966
18070.0 0.00068895
18090.0 0.00068819
18110.0 0.00068737
18130.0 0.0006865
18150.0 0.00068558
18170.0 0.0006846
18190.0 0.00068358
18210.0 0.0006825
18230.0 0.00068137
18250.0 0.00068019
18270.0 0.00067896
18290.0 0.00067769
18310.0 0.00067636
18330.0 0.00067498
18350.0 0.00067356
18370.0 0.00067208
18390.0 0.00067057
18410.0 0.000669
18430.0 0.00066739
18450.0 0.00066573
18470.0 0.00066403
18490.0 0.00066229
18510.0 0.0006605
18530.0 0.00065866
18550.0 0.00065679
18570.0 0.00065488
18590.0 0.00065292
18610.0 0.00065092
18630.0 0.00064889
18650.0 0.00064681
18670.0 0.0006447
18690.0 0.00064255
18710.0 0.00064036
18730.0 0.00063814
18750.0 0.00063588
18770.0 0.00063359
18790.0 0.00063126
18810.0 0.0006289
18830.0 0.00062651
18850.0 0.00062409
18870.0 0.00062164
18890.0 0.00061916
18910.0 0.00061665
18930.0 0.00061411
18950.0 0.00061154
18970.0 0.00060895
18990.0 0.00060633
19010.0 0.00060368
19030.0 0.00060101
19050.0 0.00059832
19070.0 0.0005956
19090.0 0.00059286
19110.0 0.00059011
19130.0 0.00058733
19150.0 0.00058453
19170.0 0.00058171
19190.0 0.00057887
19210.0 0.00057602
19230.0 0.00057315
19250.0 0.00057026
19270.0 0.00056736
19290.0 0.00056444
19310.0 0.00056152
19330.0 0.00055857
19350.0 0.00055562
19370.0 0.00055265
19390.0 0.00054967
19410.0 0.00054669
19430.0 0.00054369
19450.0 0.00054068
19470.0 0.00053767
19490.0 0.00053465
19510.0 0.00053162
19530.0 0.00052859
19550.0 0.00052555
19570.0 0.0005225
19590.0 0.00051945
19610.0 0.0005164
19630.0 0.00051335
19650.0 0.00051029
19670.0 0.00050723
19690.0 0.00050417
19710.0 0.00050111
19730.0 0.00049805
19750.0 0.00049499
19770.0 0.00049193
19790.0 0.00048887
19810.0 0.00048581
19830.0 0.00048275
19850.0 0.00047967
19870.0 0.00047655
19890.0 0.00047334
19910.0 0.00046996
19930.0 0.00046632
19950.0 0.0004623
19970.0 0.00045767
19990.0 0.00045233
20010.0 0.00044637
20030.0 0.00043954
20050.0 0.0004319
20070.0 0.00042384
20090.0 0.00041542
20110.0 0.00040638
20130.0 0.00039742
20150.0 0.00038869
20170.0 0.00037991
20190.0 0.0003712
20210.0 0.00036296
20230.0 0.00035496
20250.0 0.00034701
20270.0 0.0003395
20290.0 0.00033244
20310.0 0.00032558
20330.0 0.00031895
20350.0 0.00031298
20370.0 0.00030732
20390.0 0.00030193
20410.0 0.00029697
20430.0 0.00029245
20450.0 0.00028815
20470.0 0.00028421
20490.0 0.00028065
20510.0 0.00027737
20530.0 0.00027432
20550.0 0.00027156
20570.0 0.00026905
20590.0 0.0002667
20610.0 0.00026453
20630.0 0.0002625
20650.0 0.00026057
20670.0 0.00025874
20690.0 0.00025695
20710.0 0.0002552
20730.0 0.00025345
20750.0 0.00025169
20770.0 0.00024988
20790.0 0.00024802
20810.0 0.00024609
20830.0 0.00024408
20850.0 0.00024199
20870.0 0.00023978
20890.0 0.00023747
20910.0 0.00023509
20930.0 0.00023262
20950.0 0.00023003
20970.0 0.0002274
20990.0 0.00022473
21010.0 0.00022194
21030.0 0.00021913
21050.0 0.00021633
21070.0 0.00021349
21090.0 0.0002106
21110.0 0.00020778
21130.0 0.000205
21150.0 0.00020219
21170.0 0.00019943
21190.0 0.00019676
21210.0 0.00019409
21230.0 0.00019145
21250.0 0.00018892
21270.0 0.00018646
21290.0 0.00018402
21310.0 0.00018166
21330.0 0.00017943
21350.0 0.00017723
21370.0 0.00017509
21390.0 0.00017307
21410.0 0.00017113
21430.0 0.00016923
21450.0 0.00016744
21470.0 0.00016575
21490.0 0.00016413
21510.0 0.00016258
21530.0 0.00016113
21550.0 0.00015974
21570.0 0.0001584
21590.0 0.00015714
21610.0 0.00015593
21630.0 0.00015477
21650.0 0.00015365
21670.0 0.00015258
21690.0 0.00015153
21710.0 0.0001505
21730.0 0.0001495
21750.0 0.00014851
21770.0 0.00014753
21790.0 0.00014657
21810.0 0.00014562
21830.0 0.00014468
21850.0 0.00014374
21870.0 0.00014282
21890.0 0.0001419
21910.0 0.00014099
21930.0 0.00014008
21950.0 0.00013918
21970.0 0.00013828
21990.0 0.00013738
22010.0 0.00013648
22030.0 0.00013558
22050.0 0.00013467
22070.0 0.00013374
22090.0 0.00013281
22110.0 0.00013186
22130.0 0.00013089
22150.0 0.0001299
22170.0 0.0001289
22190.0 0.00012786
22210.0 0.0001268
22230.0 0.00012573
22250.0 0.00012464
22270.0 0.00012351
22290.0 0.00012237
22310.0 0.00012121
22330.0 0.00012
22350.0 0.00011877
22370.0 0.00011753
22390.0 0.00011625
22410.0 0.00011491
22430.0 0.00011358
22450.0 0.00011222
22470.0 0.0001108
22490.0 0.00010935
22510.0 0.00010791
22530.0 0.0001064
22550.0 0.00010484
22570.0 0.00010331
22590.0 0.00010175
22610.0 0.00010016
22630.0 9.857e-05
22650.0 9.7033e-05
22670.0 9.5466e-05
22690.0 9.3906e-05
22710.0 9.241e-05
22730.0 9.0947e-05
22750.0 8.9467e-05
22770.0 8.8073e-05
22790.0 8.6755e-05
22810.0 8.5462e-05
22830.0 8.4218e-05
22850.0 8.3067e-05
22870.0 8.1964e-05
22890.0 8.0892e-05
22910.0 7.9897e-05
22930.0 7.8968e-05
22950.0 7.8071e-05
22970.0 7.721e-05
22990.0 7.6426e-05
23010.0 7.5671e-05
23030.0 7.4938e-05
23050.0 7.4246e-05
23070.0 7.359e-05
23090.0 7.2934e-05
23110.0 7.2304e-05
