#lamb flux
1010.0 2.9467e-07
1030.0 3.0712e-07
1050.0 3.2158e-07
1070.0 3.3788e-07
1090.0 3.5643e-07
1110.0 3.7554e-07
1130.0 3.9488e-07
1150.0 4.1524e-07
1170.0 4.3637e-07
1190.0 4.5658e-07
1210.0 4.7721e-07
1230.0 4.9867e-07
1250.0 5.199e-07
1270.0 5.4075e-07
1290.0 5.6291e-07
1310.0 5.8528e-07
1330.0 6.0702e-07
1350.0 6.2922e-07
1370.0 6.5234e-07
1390.0 6.752e-07
1410.0 6.9771e-07
1430.0 7.2142e-07
1450.0 7.454e-07
1470.0 7.6894e-07
1490.0 7.9298e-07
1510.0 8.1846e-07
1530.0 8.4302e-07
1550.0 8.6751e-07
1570.0 8.9293e-07
1590.0 9.1854e-07
1610.0 9.4329e-07
1630.0 9.6879e-07
1650.0 9.9491e-07
1670.0 1.0203e-06
1690.0 1.0453e-06
1710.0 1.0711e-06
1730.0 1.0968e-06
1750.0 1.1208e-06
1770.0 1.1452e-06
1790.0 1.1697e-06
1810.0 1.193e-06
1830.0 1.2155e-06
1850.0 1.2387e-06
1870.0 1.2607e-06
1890.0 1.2814e-06
1910.0 1.3017e-06
1930.0 1.322e-06
1950.0 1.3404e-06
1970.0 1.3579e-06
1990.0 1.3755e-06
2010.0 1.3921e-06
2030.0 1.4073e-06
2050.0 1.4225e-06
2070.0 1.4378e-06
2090.0 1.4515e-06
2110.0 1.4647e-06
2130.0 1.4785e-06
2150.0 1.4917e-06
2170.0 1.5042e-06
2190.0 1.5176e-06
2210.0 1.5316e-06
2230.0 1.5454e-06
2250.0 1.5598e-06
2270.0 1.5759e-06
2290.0 1.5926e-06
2310.0 1.6097e-06
2330.0 1.629e-06
2350.0 1.65e-06
2370.0 1.672e-06
2390.0 1.6963e-06
2410.0 1.7237e-06
2430.0 1.7529e-06
2450.0 1.7839e-06
2470.0 1.8179e-06
2490.0 1.8545e-06
2510.0 1.8929e-06
2530.0 1.9369e-06
2550.0 1.9926e-06
2570.0 2.0685e-06
2590.0 2.176e-06
2610.0 2.3418e-06
2630.0 2.5804e-06
2650.0 2.8896e-06
2670.0 3.2801e-06
2690.0 3.75e-06
2710.0 4.253e-06
2730.0 4.7634e-06
2750.0 5.2904e-06
2770.0 5.7984e-06
2790.0 6.2748e-06
2810.0 6.7432e-06
2830.0 7.2241e-06
2850.0 7.6947e-06
2870.0 8.1786e-06
2890.0 8.6952e-06
2910.0 9.2362e-06
2930.0 9.7882e-06
2950.0 1.0378e-05
2970.0 1.1001e-05
2990.0 1.1637e-05
3010.0 2.1311e-05
3030.0 2.25e-05
3050.0 2.3695e-05
3070.0 2.4807e-05
3090.0 2.5793e-05
3110.0 2.6444e-05
3130.0 2.6504e-05
3150.0 2.5686e-05
3170.0 2.3416e-05
3190.0 1.9601e-05
3210.0 1.4275e-05
3230.0 8.2194e-06
3250.0 1.441e-05
3270.0 6.2285e-06
3290.0 2.0863e-05
3310.0 4.1519e-06
3330.0 4.2358e-06
3350.0 6.4945e-06
3370.0 9.0666e-06
3390.0 1.1794e-05
3410.0 1.4511e-05
3430.0 1.7348e-05
3450.0 2.0176e-05
3470.0 2.2768e-05
3490.0 2.4466e-05
3510.0 3.0456e-05
3530.0 4.1714e-05
3550.0 4.1817e-05
3570.0 3.5509e-05
3590.0 5.0885e-05
3610.0 3.28e-05
3630.0 5.288e-05
3650.0 6.0026e-05
3670.0 7.7163e-05
3690.0 7.3783e-05
3710.0 5.2653e-05
3730.0 7.0335e-05
3750.0 7.3137e-05
3770.0 7.5347e-05
3790.0 6.8165e-05
3810.0 5.9908e-05
3830.0 8.2832e-05
3850.0 8.9106e-05
3870.0 0.00011066
3890.0 0.00010444
3910.0 9.4823e-05
3930.0 0.00010264
3950.0 0.00011552
3970.0 0.00015066
3990.0 0.00012132
4010.0 8.0167e-05
4030.0 0.00010797
4050.0 0.00011809
4070.0 0.00013419
4090.0 0.00011777
4110.0 8.0538e-05
4130.0 0.00010618
4150.0 9.7599e-05
4170.0 0.00010343
4190.0 0.00010292
4210.0 0.00012782
4230.0 8.9403e-05
4250.0 0.00010683
4270.0 0.00010671
4290.0 0.00010789
4310.0 0.00013141
4330.0 0.00013477
4350.0 0.00010451
4370.0 9.0498e-05
4390.0 0.0001098
4410.0 0.00011185
4430.0 8.6432e-05
4450.0 8.6962e-05
4470.0 0.00010078
4490.0 7.5207e-05
4510.0 9.1542e-05
4530.0 9.8856e-05
4550.0 0.00013217
4570.0 0.00019353
4590.0 0.00018795
4610.0 0.00012577
4630.0 0.00019995
4650.0 0.00028611
4670.0 0.00026466
4690.0 0.00015727
4710.0 0.00016992
4730.0 0.00021954
4750.0 0.00019624
4770.0 0.00014862
4790.0 0.00010277
4810.0 0.00014833
4830.0 0.00017109
4850.0 0.00015293
4870.0 5.5451e-05
4890.0 0.00016416
4910.0 0.0002276
4930.0 0.00024407
4950.0 0.00024075
4970.0 0.00015201
4990.0 0.00017439
5010.0 0.00020264
5030.0 0.00022016
5050.0 0.000217
5070.0 0.00015699
5090.0 0.00012886
5110.0 0.00012053
5130.0 0.0001075
5150.0 0.00012288
5170.0 0.00010712
5190.0 0.00013266
5210.0 0.00013297
5230.0 0.00014653
5250.0 0.00018713
5270.0 0.00016011
5290.0 0.00015837
5310.0 0.00023275
5330.0 0.0002715
5350.0 0.00023141
5370.0 0.00020366
5390.0 0.00023224
5410.0 0.00029234
5430.0 0.00032412
5450.0 0.00035009
5470.0 0.00035551
5490.0 0.00035135
5510.0 0.00041307
5530.0 0.00043142
5550.0 0.00046479
5570.0 0.00049619
5590.0 0.00049553
5610.0 0.0004733
5630.0 0.00046041
5650.0 0.00047258
5670.0 0.00047128
5690.0 0.00040627
5710.0 0.00039255
5730.0 0.00039975
5750.0 0.00043875
5770.0 0.00038428
5790.0 0.00035515
5810.0 0.00036292
5830.0 0.00038402
5850.0 0.00035425
5870.0 0.00035907
5890.0 0.00042922
5910.0 0.00041283
5930.0 0.00034246
5950.0 0.00030035
5970.0 0.00032332
5990.0 0.00030069
6010.0 0.00028466
6030.0 0.00029139
6050.0 0.00027337
6070.0 0.0002069
6090.0 0.00018611
6110.0 0.00023946
6130.0 0.00027586
6150.0 0.00029032
6170.0 0.00028322
6190.0 0.00026679
6210.0 0.00026142
6230.0 0.00030209
6250.0 0.00027924
6270.0 0.00025538
6290.0 0.00023466
6310.0 0.00022196
6330.0 0.00021121
6350.0 0.00018514
6370.0 0.00018395
6390.0 0.000218
6410.0 0.00027075
6430.0 0.0003109
6450.0 0.00029319
6470.0 0.00028769
6490.0 0.0003582
6510.0 0.0004098
6530.0 0.00038824
6550.0 0.00037371
6570.0 0.00037947
6590.0 0.00036765
6610.0 0.00039936
6630.0 0.00037604
6650.0 0.00033327
6670.0 0.0003004
6690.0 0.00029089
6710.0 0.00035523
6730.0 0.00032668
6750.0 0.00028126
6770.0 0.00025365
6790.0 0.00026583
6810.0 0.000294
6830.0 0.00028698
6850.0 0.00026122
6870.0 0.00026978
6890.0 0.00026488
6910.0 0.00025007
6930.0 0.00028648
6950.0 0.00026581
6970.0 0.00024932
6990.0 0.00024904
7010.0 0.00023838
7030.0 0.00022451
7050.0 0.00021655
7070.0 0.00023395
7090.0 0.00022168
7110.0 0.00019237
7130.0 0.0001558
7150.0 0.00014143
7170.0 0.00018727
7190.0 0.00020407
7210.0 0.0001974
7230.0 0.00020545
7250.0 0.00019151
7270.0 0.00018243
7290.0 0.00020163
7310.0 0.00022461
7330.0 0.00022044
7350.0 0.00020696
7370.0 0.00019787
7390.0 0.0002073
7410.0 0.00024162
7430.0 0.00026424
7450.0 0.00028139
7470.0 0.00027669
7490.0 0.00028412
7510.0 0.00027214
7530.0 0.00027118
7550.0 0.00026655
7570.0 0.00023397
7590.0 0.0002308
7610.0 0.0002234
7630.0 0.00020733
7650.0 0.00022667
7670.0 0.00024649
7690.0 0.00026661
7710.0 0.00029604
7730.0 0.00031423
7750.0 0.00032715
7770.0 0.00032597
7790.0 0.0003543
7810.0 0.00036433
7830.0 0.00033584
7850.0 0.00033696
7870.0 0.00031976
7890.0 0.00033256
7910.0 0.00031417
7930.0 0.00031527
7950.0 0.00027899
7970.0 0.00028508
7990.0 0.00027244
8010.0 0.00027137
8030.0 0.0002693
8050.0 0.00028124
8070.0 0.00027035
8090.0 0.00027009
8110.0 0.00026235
8130.0 0.00026129
8150.0 0.00024932
8170.0 0.0002416
8190.0 0.00023779
8210.0 0.00023873
8230.0 0.0002119
8250.0 0.0001934
8270.0 0.0001691
8290.0 0.00014007
8310.0 0.00011908
8330.0 9.4651e-05
8350.0 7.9423e-05
8370.0 8.1654e-05
8390.0 8.3392e-05
8410.0 8.8226e-05
8430.0 0.00010707
8450.0 0.00011412
8470.0 0.00012014
8490.0 0.00013708
8510.0 0.00014896
8530.0 0.00017103
8550.0 0.00020148
8570.0 0.00022385
8590.0 0.00023941
8610.0 0.00026031
8630.0 0.00028497
8650.0 0.00028858
8670.0 0.00029057
8690.0 0.00030071
8710.0 0.00029664
8730.0 0.00029279
8750.0 0.0002763
8770.0 0.00027552
8790.0 0.0002708
8810.0 0.00024915
8830.0 0.00024782
8850.0 0.00023194
8870.0 0.00022209
8890.0 0.00020279
8910.0 0.00021617
8930.0 0.00019737
8950.0 0.00019326
8970.0 0.00019298
8990.0 0.00018602
9010.0 0.00018866
9030.0 0.00018115
9050.0 0.00018015
9070.0 0.00017993
9090.0 0.00017967
9110.0 0.00017947
9130.0 0.00017915
9150.0 0.00017878
9170.0 0.00017798
9190.0 0.00017651
9210.0 0.00017851
9230.0 0.00017756
9250.0 0.00017687
9270.0 0.00017623
9290.0 0.0001756
9310.0 0.000175
9330.0 0.00017439
9350.0 0.00017377
9370.0 0.00017315
9390.0 0.0001725
9410.0 0.00017184
9430.0 0.00017117
9450.0 0.00017047
9470.0 0.00016975
9490.0 0.00016905
9510.0 0.00016832
9530.0 0.00016759
9550.0 0.00016684
9570.0 0.00016608
9590.0 0.00016532
9610.0 0.00016455
9630.0 0.00016377
9650.0 0.00016299
9670.0 0.0001622
9690.0 0.00016141
9710.0 0.00016062
9730.0 0.00015982
9750.0 0.00015903
9770.0 0.00015823
9790.0 0.00015744
9810.0 0.00015665
9830.0 0.00015586
9850.0 0.00015507
9870.0 0.00015429
9890.0 0.00015351
9910.0 0.00015273
9930.0 0.00015196
9950.0 0.00015073
9970.0 0.00015011
9990.0 0.00014947
10010.0 0.00014883
10030.0 0.00014815
10050.0 0.00014742
10070.0 0.00014655
10090.0 0.00014592
10110.0 0.00014527
10130.0 0.00014462
10150.0 0.00014397
10170.0 0.00014331
10190.0 0.00014264
10210.0 0.000142
10230.0 0.00014137
10250.0 0.00014073
10270.0 0.00014011
10290.0 0.00013952
10310.0 0.00013892
10330.0 0.00013832
10350.0 0.00013775
10370.0 0.0001372
10390.0 0.00013664
10410.0 0.0001361
10430.0 0.00013559
10450.0 0.00013507
10470.0 0.00013456
10490.0 0.00013407
10510.0 0.0001336
10530.0 0.00013312
10550.0 0.00013265
10570.0 0.00013222
10590.0 0.00013179
10610.0 0.00013135
10630.0 0.00013095
10650.0 0.00013056
10670.0 0.00013016
10690.0 0.00012978
10710.0 0.00012942
10730.0 0.00012906
10750.0 0.00012869
10770.0 0.00012837
10790.0 0.00012805
10810.0 0.00012772
10830.0 0.00012741
10850.0 0.00012712
10870.0 0.00012679
10890.0 0.00012643
10910.0 0.00012604
10930.0 0.00012554
10950.0 0.00012485
10970.0 0.00012395
10990.0 0.00012283
11010.0 0.00012061
11030.0 0.00011892
11050.0 0.00011695
11070.0 0.0001147
11090.0 0.0001121
11110.0 0.00010951
11130.0 0.00010691
11150.0 0.00010421
11170.0 0.00010155
11190.0 9.9083e-05
11210.0 9.6637e-05
11230.0 9.4228e-05
11250.0 9.2017e-05
11270.0 8.9963e-05
11290.0 8.7954e-05
11310.0 8.6085e-05
11330.0 8.446e-05
11350.0 8.2916e-05
11370.0 8.1457e-05
11390.0 8.0157e-05
11410.0 7.8964e-05
11430.0 7.7766e-05
11450.0 7.6644e-05
11470.0 7.5589e-05
11490.0 7.4513e-05
11510.0 7.338e-05
11530.0 7.2275e-05
11550.0 7.1138e-05
11570.0 6.9891e-05
11590.0 6.8593e-05
11610.0 6.7285e-05
11630.0 6.5854e-05
11650.0 6.4319e-05
11670.0 6.2817e-05
11690.0 6.128e-05
11710.0 5.9661e-05
11730.0 5.8059e-05
11750.0 5.6543e-05
11770.0 5.4989e-05
11790.0 5.3459e-05
11810.0 5.2044e-05
11830.0 5.0699e-05
11850.0 4.9349e-05
11870.0 4.8128e-05
11890.0 4.7031e-05
11910.0 4.5968e-05
11930.0 4.4963e-05
11950.0 4.4071e-05
11970.0 4.3226e-05
11990.0 4.2389e-05
12010.0 4.1625e-05
12030.0 4.0921e-05
12050.0 4.0222e-05
12070.0 3.9536e-05
12090.0 3.8935e-05
12110.0 3.8354e-05
12130.0 3.7785e-05
12150.0 3.7276e-05
12170.0 3.6835e-05
12190.0 3.6414e-05
12210.0 3.6073e-05
12230.0 3.5834e-05
12250.0 3.5682e-05
12270.0 3.5632e-05
12290.0 3.5709e-05
12310.0 3.591e-05
12330.0 3.6241e-05
12350.0 3.6708e-05
12370.0 3.7291e-05
12390.0 3.7993e-05
12410.0 3.8835e-05
12430.0 3.9733e-05
12450.0 4.0687e-05
12470.0 4.1711e-05
12490.0 4.2757e-05
12510.0 4.3767e-05
12530.0 4.4781e-05
12550.0 4.5775e-05
12570.0 4.6692e-05
12590.0 4.7541e-05
12610.0 4.8339e-05
12630.0 4.9055e-05
12650.0 4.9669e-05
12670.0 5.0214e-05
12690.0 5.0683e-05
12710.0 5.107e-05
12730.0 5.1385e-05
12750.0 5.163e-05
12770.0 5.1805e-05
12790.0 5.1921e-05
12810.0 5.1972e-05
12830.0 5.1954e-05
12850.0 5.1892e-05
12870.0 5.1778e-05
12890.0 5.1594e-05
12910.0 5.1359e-05
12930.0 5.1089e-05
12950.0 5.0746e-05
12970.0 5.0333e-05
12990.0 4.99e-05
13010.0 4.9417e-05
13030.0 4.8861e-05
13050.0 4.8271e-05
13070.0 4.7673e-05
13090.0 4.7009e-05
13110.0 4.6311e-05
13130.0 4.5629e-05
13150.0 4.4943e-05
13170.0 4.4224e-05
13190.0 4.3564e-05
13210.0 4.2969e-05
13230.0 4.2406e-05
13250.0 4.1911e-05
13270.0 4.1521e-05
13290.0 4.121e-05
13310.0 4.0977e-05
13330.0 4.0849e-05
13350.0 4.0807e-05
13370.0 4.0833e-05
13390.0 4.0918e-05
13410.0 4.1041e-05
13430.0 4.1176e-05
13450.0 4.1304e-05
13470.0 4.1402e-05
13490.0 4.1452e-05
13510.0 4.1433e-05
13530.0 4.1334e-05
13550.0 4.1161e-05
13570.0 4.0904e-05
13590.0 4.0557e-05
13610.0 4.0153e-05
13630.0 3.9709e-05
13650.0 3.9201e-05
13670.0 3.8669e-05
13690.0 3.8145e-05
13710.0 3.7614e-05
13730.0 3.7067e-05
13750.0 3.6575e-05
13770.0 3.611e-05
13790.0 3.5658e-05
13810.0 3.5236e-05
13830.0 3.4858e-05
13850.0 3.4488e-05
13870.0 3.413e-05
13890.0 3.3798e-05
13910.0 3.3479e-05
13930.0 3.3155e-05
13950.0 3.2838e-05
13970.0 3.2542e-05
13990.0 3.2243e-05
14010.0 3.1947e-05
14030.0 3.167e-05
14050.0 3.1407e-05
14070.0 3.1147e-05
14090.0 3.0914e-05
14110.0 3.0708e-05
14130.0 3.0522e-05
14150.0 3.0359e-05
14170.0 3.0229e-05
14190.0 3.0124e-05
14210.0 3.0045e-05
14230.0 2.9994e-05
14250.0 2.9969e-05
14270.0 2.9972e-05
14290.0 3.0004e-05
14310.0 3.0056e-05
14330.0 3.013e-05
14350.0 3.023e-05
14370.0 3.0343e-05
14390.0 3.0462e-05
14410.0 3.0596e-05
14430.0 3.0735e-05
14450.0 3.0863e-05
14470.0 3.0986e-05
14490.0 3.1108e-05
14510.0 3.1208e-05
14530.0 3.1289e-05
14550.0 3.1363e-05
14570.0 3.1426e-05
14590.0 3.1477e-05
14610.0 3.1528e-05
14630.0 3.1592e-05
14650.0 3.1663e-05
14670.0 3.175e-05
14690.0 3.1872e-05
14710.0 3.2035e-05
14730.0 3.2221e-05
14750.0 3.2458e-05
14770.0 3.2754e-05
14790.0 3.309e-05
14810.0 3.346e-05
14830.0 3.3913e-05
14850.0 3.44e-05
14870.0 3.4896e-05
14890.0 3.5422e-05
14910.0 3.5968e-05
14930.0 3.6468e-05
14950.0 3.691e-05
14970.0 3.7306e-05
14990.0 3.7601e-05
15010.0 3.778e-05
15030.0 3.7862e-05
15050.0 3.7854e-05
15070.0 3.7757e-05
15090.0 3.7606e-05
15110.0 3.7417e-05
15130.0 3.7205e-05
15150.0 3.6981e-05
15170.0 3.6749e-05
15190.0 3.6513e-05
15210.0 3.6277e-05
15230.0 3.6042e-05
15250.0 3.5804e-05
15270.0 3.5566e-05
15290.0 3.5332e-05
15310.0 3.5096e-05
15330.0 3.4859e-05
15350.0 3.4625e-05
15370.0 3.4391e-05
15390.0 3.4155e-05
15410.0 3.3921e-05
15430.0 3.3689e-05
15450.0 3.3456e-05
15470.0 3.3223e-05
15490.0 3.2993e-05
15510.0 3.2763e-05
15530.0 3.2533e-05
15550.0 3.2304e-05
15570.0 3.2078e-05
15590.0 3.185e-05
15610.0 3.1623e-05
15630.0 3.1399e-05
15650.0 3.1176e-05
15670.0 3.0952e-05
15690.0 3.073e-05
15710.0 3.0511e-05
15730.0 3.0291e-05
15750.0 3.0072e-05
15770.0 2.9856e-05
15790.0 2.9641e-05
15810.0 2.9425e-05
15830.0 2.9212e-05
15850.0 2.9001e-05
15870.0 2.879e-05
15890.0 2.858e-05
15910.0 2.8374e-05
15930.0 2.8168e-05
15950.0 2.7962e-05
15970.0 2.7759e-05
15990.0 2.7557e-05
16010.0 2.7356e-05
16030.0 2.7156e-05
16050.0 2.696e-05
16070.0 2.6764e-05
16090.0 2.6569e-05
16110.0 2.6376e-05
16130.0 2.6186e-05
16150.0 2.5995e-05
16170.0 2.5806e-05
16190.0 2.562e-05
16210.0 2.5435e-05
16230.0 2.525e-05
16250.0 2.5069e-05
16270.0 2.4889e-05
16290.0 2.471e-05
16310.0 2.4532e-05
16330.0 2.4357e-05
16350.0 2.4183e-05
16370.0 2.4008e-05
16390.0 2.3838e-05
16410.0 2.367e-05
16430.0 2.3501e-05
16450.0 2.3335e-05
16470.0 2.3172e-05
16490.0 2.3008e-05
16510.0 2.2846e-05
16530.0 2.2686e-05
16550.0 2.2529e-05
16570.0 2.2371e-05
16590.0 2.2215e-05
16610.0 2.2063e-05
16630.0 2.191e-05
16650.0 2.1759e-05
16670.0 2.1611e-05
16690.0 2.1464e-05
16710.0 2.1317e-05
16730.0 2.1172e-05
16750.0 2.103e-05
16770.0 2.0888e-05
16790.0 2.0747e-05
16810.0 2.061e-05
16830.0 2.0473e-05
16850.0 2.0337e-05
16870.0 2.0203e-05
16890.0 2.0071e-05
16910.0 1.9939e-05
16930.0 1.9808e-05
16950.0 1.9681e-05
16970.0 1.9554e-05
16990.0 1.9428e-05
17010.0 1.9303e-05
17030.0 1.9182e-05
17050.0 1.906e-05
17070.0 1.8939e-05
17090.0 1.8821e-05
17110.0 1.8704e-05
17130.0 1.8586e-05
17150.0 1.8471e-05
17170.0 1.8359e-05
17190.0 1.8246e-05
17210.0 1.8135e-05
17230.0 1.8026e-05
17250.0 1.7917e-05
17270.0 1.7809e-05
17290.0 1.7703e-05
17310.0 1.7599e-05
17330.0 1.7495e-05
17350.0 1.7391e-05
17370.0 1.7291e-05
17390.0 1.7191e-05
17410.0 1.7092e-05
17430.0 1.6994e-05
17450.0 1.6898e-05
17470.0 1.6801e-05
17490.0 1.6706e-05
17510.0 1.6614e-05
17530.0 1.6522e-05
17550.0 1.6429e-05
17570.0 1.634e-05
17590.0 1.6252e-05
17610.0 1.6163e-05
17630.0 1.6075e-05
17650.0 1.599e-05
17670.0 1.5905e-05
17690.0 1.5819e-05
17710.0 1.5737e-05
17730.0 1.5655e-05
17750.0 1.5574e-05
17770.0 1.5493e-05
17790.0 1.5415e-05
17810.0 1.5336e-05
17830.0 1.5258e-05
17850.0 1.5182e-05
17870.0 1.5107e-05
17890.0 1.5031e-05
17910.0 1.4957e-05
17930.0 1.4885e-05
17950.0 1.4812e-05
17970.0 1.474e-05
17990.0 1.4671e-05
18010.0 1.4601e-05
18030.0 1.4531e-05
18050.0 1.4463e-05
18070.0 1.4396e-05
18090.0 1.4329e-05
18110.0 1.4263e-05
18130.0 1.4199e-05
18150.0 1.4135e-05
18170.0 1.407e-05
18190.0 1.4008e-05
18210.0 1.3946e-05
18230.0 1.3884e-05
18250.0 1.3823e-05
18270.0 1.3763e-05
18290.0 1.3704e-05
18310.0 1.3645e-05
18330.0 1.3587e-05
18350.0 1.3531e-05
18370.0 1.3473e-05
18390.0 1.3417e-05
18410.0 1.3362e-05
18430.0 1.3308e-05
18450.0 1.3252e-05
18470.0 1.3199e-05
18490.0 1.3147e-05
18510.0 1.3094e-05
18530.0 1.3042e-05
18550.0 1.2991e-05
18570.0 1.2941e-05
18590.0 1.2889e-05
18610.0 1.284e-05
18630.0 1.2791e-05
18650.0 1.2742e-05
18670.0 1.2694e-05
18690.0 1.2647e-05
18710.0 1.26e-05
18730.0 1.2553e-05
18750.0 1.2508e-05
18770.0 1.2463e-05
18790.0 1.2417e-05
18810.0 1.2372e-05
18830.0 1.2328e-05
18850.0 1.2285e-05
18870.0 1.2241e-05
18890.0 1.2199e-05
18910.0 1.2157e-05
18930.0 1.2115e-05
18950.0 1.2073e-05
18970.0 1.2033e-05
18990.0 1.1992e-05
19010.0 1.195e-05
19030.0 1.1911e-05
19050.0 1.1872e-05
19070.0 1.1833e-05
19090.0 1.1794e-05
19110.0 1.1757e-05
19130.0 1.1718e-05
19150.0 1.168e-05
19170.0 1.1643e-05
19190.0 1.1607e-05
19210.0 1.157e-05
19230.0 1.1533e-05
19250.0 1.1498e-05
19270.0 1.1463e-05
19290.0 1.1427e-05
19310.0 1.1393e-05
19330.0 1.1359e-05
19350.0 1.1323e-05
19370.0 1.1289e-05
19390.0 1.1256e-05
19410.0 1.1223e-05
19430.0 1.1189e-05
19450.0 1.1157e-05
19470.0 1.1125e-05
19490.0 1.1092e-05
19510.0 1.106e-05
19530.0 1.1029e-05
19550.0 1.0997e-05
19570.0 1.0965e-05
19590.0 1.0935e-05
19610.0 1.0904e-05
19630.0 1.0873e-05
19650.0 1.0843e-05
19670.0 1.0814e-05
19690.0 1.0783e-05
19710.0 1.0753e-05
19730.0 1.0725e-05
19750.0 1.0695e-05
19770.0 1.0665e-05
19790.0 1.0637e-05
19810.0 1.0609e-05
19830.0 1.058e-05
19850.0 1.0551e-05
19870.0 1.0522e-05
19890.0 1.0491e-05
19910.0 1.0455e-05
19930.0 1.0415e-05
19950.0 1.0366e-05
19970.0 1.0303e-05
19990.0 1.0224e-05
20010.0 1.0132e-05
20030.0 1.0018e-05
20050.0 9.8821e-06
20070.0 9.735e-06
20090.0 9.577e-06
20110.0 9.3987e-06
20130.0 9.2197e-06
20150.0 9.044e-06
20170.0 8.863e-06
20190.0 8.6807e-06
20210.0 8.5098e-06
20230.0 8.3442e-06
20250.0 8.1787e-06
20270.0 8.0261e-06
20290.0 7.8877e-06
20310.0 7.7572e-06
20330.0 7.6365e-06
20350.0 7.5387e-06
20370.0 7.4545e-06
20390.0 7.3841e-06
20410.0 7.3324e-06
20430.0 7.2987e-06
20450.0 7.2802e-06
20470.0 7.2797e-06
20490.0 7.2958e-06
20510.0 7.3272e-06
20530.0 7.3749e-06
20550.0 7.4354e-06
20570.0 7.5053e-06
20590.0 7.5878e-06
20610.0 7.6792e-06
20630.0 7.7737e-06
20650.0 7.8733e-06
20670.0 7.98e-06
20690.0 8.0822e-06
20710.0 8.1807e-06
20730.0 8.2782e-06
20750.0 8.37e-06
20770.0 8.4508e-06
20790.0 8.5249e-06
20810.0 8.5912e-06
20830.0 8.6455e-06
20850.0 8.689e-06
20870.0 8.7233e-06
20890.0 8.7466e-06
20910.0 8.7593e-06
20930.0 8.7631e-06
20950.0 8.7578e-06
20970.0 8.7448e-06
20990.0 8.7253e-06
21010.0 8.6977e-06
21030.0 8.6644e-06
21050.0 8.6274e-06
21070.0 8.5851e-06
21090.0 8.5371e-06
21110.0 8.4886e-06
21130.0 8.4384e-06
21150.0 8.3846e-06
21170.0 8.3306e-06
21190.0 8.2788e-06
21210.0 8.2258e-06
21230.0 8.1736e-06
21250.0 8.1267e-06
21270.0 8.0834e-06
21290.0 8.0431e-06
21310.0 8.0087e-06
21330.0 7.9817e-06
21350.0 7.9599e-06
21370.0 7.9449e-06
21390.0 7.9377e-06
21410.0 7.9377e-06
21430.0 7.9452e-06
21450.0 7.9602e-06
21470.0 7.9817e-06
21490.0 8.0104e-06
21510.0 8.0459e-06
21530.0 8.0858e-06
21550.0 8.131e-06
21570.0 8.1827e-06
21590.0 8.2375e-06
21610.0 8.2948e-06
21630.0 8.3568e-06
21650.0 8.4237e-06
21670.0 8.4889e-06
21690.0 8.5572e-06
21710.0 8.6294e-06
21730.0 8.7021e-06
21750.0 8.7742e-06
21770.0 8.8521e-06
21790.0 8.9313e-06
21810.0 9.0093e-06
21830.0 9.0896e-06
21850.0 9.174e-06
21870.0 9.2575e-06
21890.0 9.3396e-06
21910.0 9.4259e-06
21930.0 9.5126e-06
21950.0 9.5966e-06
21970.0 9.6813e-06
21990.0 9.7687e-06
22010.0 9.8504e-06
22030.0 9.9285e-06
22050.0 1.0005e-05
22070.0 1.0078e-05
22090.0 1.0142e-05
22110.0 1.0201e-05
22130.0 1.0254e-05
22150.0 1.0297e-05
22170.0 1.0331e-05
22190.0 1.0355e-05
22210.0 1.0367e-05
22230.0 1.0368e-05
22250.0 1.0356e-05
22270.0 1.0332e-05
22290.0 1.0295e-05
22310.0 1.0247e-05
22330.0 1.0184e-05
22350.0 1.0109e-05
22370.0 1.0024e-05
22390.0 9.9274e-06
22410.0 9.8162e-06
22430.0 9.7013e-06
22450.0 9.5794e-06
22470.0 9.4457e-06
22490.0 9.3078e-06
22510.0 9.1705e-06
22530.0 9.0242e-06
22550.0 8.8732e-06
22570.0 8.7283e-06
22590.0 8.5841e-06
22610.0 8.4367e-06
