#lamb flux
1010.0 7.171e-05
1030.0 8.0332e-05
1050.0 8.8889e-05
1070.0 9.8559e-05
1090.0 0.00010998
1110.0 0.00012169
1130.0 0.0001335
1150.0 0.00014595
1170.0 0.00015891
1190.0 0.00017145
1210.0 0.00018444
1230.0 0.0001982
1250.0 0.00021204
1270.0 0.00022602
1290.0 0.00024123
1310.0 0.00025702
1330.0 0.00027285
1350.0 0.00028937
1370.0 0.00030683
1390.0 0.00032441
1410.0 0.00034195
1430.0 0.00036039
1450.0 0.00037904
1470.0 0.00039731
1490.0 0.00041574
1510.0 0.0004349
1530.0 0.0004531
1550.0 0.00047084
1570.0 0.00048874
1590.0 0.00050624
1610.0 0.00052254
1630.0 0.00053856
1650.0 0.00055433
1670.0 0.00056889
1690.0 0.00058251
1710.0 0.00059591
1730.0 0.00060859
1750.0 0.00061955
1770.0 0.00063013
1790.0 0.00064024
1810.0 0.00064916
1830.0 0.00065719
1850.0 0.00066549
1870.0 0.00067291
1890.0 0.00067947
1910.0 0.00068601
1930.0 0.00069267
1950.0 0.00069857
1970.0 0.00070428
1990.0 0.00071047
2010.0 0.00071646
2030.0 0.00072202
2050.0 0.00072796
2070.0 0.00073416
2090.0 0.00073949
2110.0 0.00074459
2130.0 0.00074972
2150.0 0.00075419
2170.0 0.00075759
2190.0 0.00076075
2210.0 0.00076321
2230.0 0.00076432
2250.0 0.00076443
2270.0 0.000764
2290.0 0.00076214
2310.0 0.00075873
2330.0 0.00075454
2350.0 0.00074929
2370.0 0.00074249
2390.0 0.00073466
2410.0 0.00072607
2430.0 0.00071591
2450.0 0.00070422
2470.0 0.00069133
2490.0 0.00067711
2510.0 0.00066164
2530.0 0.00064651
2550.0 0.00063404
2570.0 0.00062706
2590.0 0.00062869
2610.0 0.00064554
2630.0 0.00067956
2650.0 0.00072754
2670.0 0.00078957
2690.0 0.00086171
2710.0 0.00092954
2730.0 0.00098477
2750.0 0.001025
2770.0 0.001039
2790.0 0.0010237
2810.0 0.00098086
2830.0 0.00090925
2850.0 0.00081698
2870.0 0.00070902
2890.0 0.00058611
2910.0 0.0004545
2930.0 0.00032149
2950.0 0.00018117
2970.0 4.9235e-05
2990.0 4.9235e-05
3010.0 9.9977e-05
3030.0 9.9977e-05
3050.0 9.9977e-05
3070.0 9.9977e-05
3090.0 9.9977e-05
3110.0 9.9977e-05
3130.0 9.9977e-05
3150.0 9.9977e-05
3170.0 9.9977e-05
3190.0 9.9977e-05
3210.0 9.9977e-05
3230.0 0.0040642
3250.0 0.0072398
3270.0 0.0067913
3290.0 0.0063395
3310.0 0.0048187
3330.0 0.0046768
3350.0 0.005165
3370.0 0.0058931
3390.0 0.0066946
3410.0 0.0075543
3430.0 0.0086873
3450.0 0.0097964
3470.0 0.010945
3490.0 0.011366
3510.0 0.010324
3530.0 0.0099295
3550.0 0.010987
3570.0 0.011798
3590.0 0.012787
3610.0 0.012485
3630.0 0.015125
3650.0 0.016513
3670.0 0.017439
3690.0 0.017327
3710.0 0.015686
3730.0 0.01549
3750.0 0.014714
3770.0 0.014212
3790.0 0.013384
3810.0 0.01273
3830.0 0.013136
3850.0 0.0069608
3870.0 0.0093381
3890.0 0.010826
3910.0 0.013309
3930.0 0.017083
3950.0 0.018518
3970.0 0.020686
3990.0 0.024781
4010.0 0.021012
4030.0 0.018077
4050.0 0.013055
4070.0 0.012303
4090.0 0.018133
4110.0 0.018134
4130.0 0.019739
4150.0 0.018917
4170.0 0.017913
4190.0 0.016258
4210.0 0.021905
4230.0 0.023132
4250.0 0.02521
4270.0 0.024001
4290.0 0.023661
4310.0 0.025702
4330.0 0.030188
4350.0 0.031509
4370.0 0.031321
4390.0 0.028577
4410.0 0.026366
4430.0 0.020553
4450.0 0.016736
4470.0 0.018071
4490.0 0.021189
4510.0 0.022058
4530.0 0.022233
4550.0 0.022491
4570.0 0.032046
4590.0 0.047967
4610.0 0.056361
4630.0 0.057091
4650.0 0.061563
4670.0 0.071779
4690.0 0.077806
4710.0 0.064861
4730.0 0.049474
4750.0 0.038755
4770.0 0.033415
4790.0 0.030565
4810.0 0.028977
4830.0 0.032118
4850.0 0.037952
4870.0 0.041615
4890.0 0.043464
4910.0 0.040936
4930.0 0.044259
4950.0 0.054017
4970.0 0.062931
4990.0 0.065264
5010.0 0.060098
5030.0 0.04991
5050.0 0.038442
5070.0 0.03066
5090.0 0.02769
5110.0 0.027257
5130.0 0.027759
5150.0 0.027563
5170.0 0.025919
5190.0 0.024316
5210.0 0.023899
5230.0 0.027109
5250.0 0.032348
5270.0 0.03873
5290.0 0.044217
5310.0 0.047368
5330.0 0.05232
5350.0 0.058165
5370.0 0.060381
5390.0 0.054822
5410.0 0.048818
5430.0 0.047899
5450.0 0.055962
5470.0 0.069198
5490.0 0.080635
5510.0 0.085898
5530.0 0.084919
5550.0 0.081413
5570.0 0.079005
5590.0 0.076404
5610.0 0.075329
5630.0 0.075326
5650.0 0.07587
5670.0 0.074784
5690.0 0.068118
5710.0 0.0578
5730.0 0.051999
5750.0 0.050143
5770.0 0.051583
5790.0 0.053503
5810.0 0.055726
5830.0 0.056861
5850.0 0.054566
5870.0 0.051814
5890.0 0.050777
5910.0 0.052858
5930.0 0.055276
5950.0 0.052316
5970.0 0.046416
5990.0 0.038581
6010.0 0.031363
6030.0 0.028958
6050.0 0.031362
6070.0 0.033338
6090.0 0.031783
6110.0 0.028052
6130.0 0.028706
6150.0 0.033398
6170.0 0.038396
6190.0 0.042147
6210.0 0.042754
6230.0 0.042082
6250.0 0.038429
6270.0 0.032122
6290.0 0.02652
6310.0 0.023536
6330.0 0.022995
6350.0 0.023408
6370.0 0.023726
6390.0 0.026684
6410.0 0.033283
6430.0 0.041076
6450.0 0.046085
6470.0 0.04751
6490.0 0.047185
6510.0 0.048162
6530.0 0.049636
6550.0 0.049394
6570.0 0.051255
6590.0 0.052552
6610.0 0.053447
6630.0 0.052553
6650.0 0.049078
6670.0 0.044779
6690.0 0.040719
6710.0 0.038537
6730.0 0.038064
6750.0 0.038754
6770.0 0.039816
6790.0 0.041109
6810.0 0.041982
6830.0 0.041181
6850.0 0.039191
6870.0 0.036716
6890.0 0.03589
6910.0 0.034809
6930.0 0.036025
6950.0 0.038171
6970.0 0.039181
6990.0 0.039908
7010.0 0.038766
7030.0 0.035647
7050.0 0.03154
7070.0 0.028143
7090.0 0.026336
7110.0 0.026108
7130.0 0.025481
7150.0 0.022775
7170.0 0.021608
7190.0 0.023641
7210.0 0.027337
7230.0 0.031523
7250.0 0.03337
7270.0 0.032984
7290.0 0.030422
7310.0 0.028082
7330.0 0.026947
7350.0 0.027023
7370.0 0.027533
7390.0 0.028841
7410.0 0.031956
7430.0 0.036932
7450.0 0.041697
7470.0 0.043981
7490.0 0.042956
7510.0 0.039987
7530.0 0.034731
7550.0 0.031524
7570.0 0.028112
7590.0 0.026426
7610.0 0.027079
7630.0 0.029228
7650.0 0.032271
7670.0 0.035341
7690.0 0.03748
7710.0 0.03971
7730.0 0.041999
7750.0 0.043914
7770.0 0.043448
7790.0 0.043632
7810.0 0.044302
7830.0 0.044027
7850.0 0.042508
7870.0 0.041081
7890.0 0.041239
7910.0 0.040041
7930.0 0.039369
7950.0 0.037251
7970.0 0.036141
7990.0 0.034776
8010.0 0.035219
8030.0 0.035439
8050.0 0.035623
8070.0 0.035163
8090.0 0.034881
8110.0 0.03359
8130.0 0.03349
8150.0 0.033014
8170.0 0.032127
8190.0 0.031403
8210.0 0.031233
8230.0 0.030425
8250.0 0.029764
8270.0 0.026941
8290.0 0.021993
8310.0 0.016527
8330.0 0.012768
8350.0 0.011936
8370.0 0.014228
8390.0 0.017243
8410.0 0.018622
8430.0 0.019097
8450.0 0.020071
8470.0 0.021492
8490.0 0.024064
8510.0 0.027448
8530.0 0.031503
8550.0 0.035293
8570.0 0.038411
8590.0 0.040795
8610.0 0.042143
8630.0 0.042194
8650.0 0.041759
8670.0 0.041738
8690.0 0.043807
8710.0 0.046576
8730.0 0.04842
8750.0 0.048212
8770.0 0.04885
8790.0 0.048634
8810.0 0.045654
8830.0 0.042991
8850.0 0.039459
8870.0 0.036607
8890.0 0.035661
8910.0 0.0357
8930.0 0.033716
8950.0 0.03146
8970.0 0.030518
8990.0 0.030249
9010.0 0.029089
9030.0 0.028436
9050.0 0.028195
9070.0 0.028085
9090.0 0.027989
9110.0 0.027897
9130.0 0.027804
9150.0 0.027713
9170.0 0.027611
9190.0 0.027536
9210.0 0.02757
9230.0 0.02743
9250.0 0.027315
9270.0 0.027212
9290.0 0.027119
9310.0 0.027029
9330.0 0.026942
9350.0 0.026862
9370.0 0.026782
9390.0 0.0267
9410.0 0.026622
9430.0 0.026541
9450.0 0.026427
9470.0 0.026324
9490.0 0.026282
9510.0 0.026222
9530.0 0.026158
9550.0 0.026091
9570.0 0.026022
9590.0 0.025951
9610.0 0.025881
9630.0 0.02581
9650.0 0.02574
9670.0 0.025669
9690.0 0.0256
9710.0 0.02553
9730.0 0.025461
9750.0 0.025391
9770.0 0.025323
9790.0 0.025254
9810.0 0.025185
9830.0 0.025116
9850.0 0.025047
9870.0 0.024977
9890.0 0.024908
9910.0 0.024838
9930.0 0.024765
9950.0 0.024502
9970.0 0.024488
9990.0 0.024462
10010.0 0.02443
10030.0 0.024381
10050.0 0.024318
10070.0 0.024253
10090.0 0.024188
10110.0 0.024109
10130.0 0.024033
10150.0 0.023959
10170.0 0.023878
10190.0 0.02379
10210.0 0.023709
10230.0 0.023631
10250.0 0.023542
10270.0 0.023454
10290.0 0.023372
10310.0 0.023281
10330.0 0.023183
10350.0 0.023092
10370.0 0.023
10390.0 0.022899
10410.0 0.022797
10430.0 0.022703
10450.0 0.022599
10470.0 0.022489
10490.0 0.022384
10510.0 0.022278
10530.0 0.022157
10550.0 0.02204
10570.0 0.021929
10590.0 0.021808
10610.0 0.021681
10630.0 0.02156
10650.0 0.021436
10670.0 0.021299
10690.0 0.021165
10710.0 0.021034
10730.0 0.020893
10750.0 0.020742
10770.0 0.020603
10790.0 0.020459
10810.0 0.020303
10830.0 0.02015
10850.0 0.020001
10870.0 0.019834
10890.0 0.019664
10910.0 0.019499
10930.0 0.019326
10950.0 0.019138
10970.0 0.018947
10990.0 0.018758
11010.0 0.019793
11030.0 0.019565
11050.0 0.019344
11070.0 0.019117
11090.0 0.018876
11110.0 0.018654
11130.0 0.018441
11150.0 0.018223
11170.0 0.018009
11190.0 0.017811
11210.0 0.01761
11230.0 0.017404
11250.0 0.017209
11270.0 0.017018
11290.0 0.016819
11310.0 0.01662
11330.0 0.016435
11350.0 0.016243
11370.0 0.016045
11390.0 0.01585
11410.0 0.015655
11430.0 0.015441
11450.0 0.015222
11470.0 0.015002
11490.0 0.014765
11510.0 0.014508
11530.0 0.014251
11550.0 0.013984
11570.0 0.013696
11590.0 0.0134
11610.0 0.013107
11630.0 0.012798
11650.0 0.012476
11670.0 0.012169
11690.0 0.011863
11710.0 0.01155
11730.0 0.011246
11750.0 0.010961
11770.0 0.010673
11790.0 0.010391
11810.0 0.010127
11830.0 0.0098739
11850.0 0.0096176
11870.0 0.0093784
11890.0 0.0091556
11910.0 0.0089345
11930.0 0.0087194
11950.0 0.00852
11970.0 0.0083262
11990.0 0.0081325
12010.0 0.0079514
12030.0 0.0077815
12050.0 0.0076152
12070.0 0.0074551
12090.0 0.0073132
12110.0 0.0071795
12130.0 0.007054
12150.0 0.0069434
12170.0 0.0068479
12190.0 0.0067618
12210.0 0.0066916
12230.0 0.006638
12250.0 0.0065987
12270.0 0.0065746
12290.0 0.0065659
12310.0 0.0065706
12330.0 0.0065906
12350.0 0.0066245
12370.0 0.0066688
12390.0 0.0067253
12410.0 0.0067978
12430.0 0.0068749
12450.0 0.0069587
12470.0 0.007053
12490.0 0.0071526
12510.0 0.0072497
12530.0 0.0073517
12550.0 0.0074558
12570.0 0.0075521
12590.0 0.0076409
12610.0 0.0077258
12630.0 0.0077984
12650.0 0.0078521
12670.0 0.0078931
12690.0 0.0079176
12710.0 0.0079222
12730.0 0.0079086
12750.0 0.0078765
12770.0 0.0078256
12790.0 0.007759
12810.0 0.0076768
12830.0 0.0075795
12850.0 0.007475
12870.0 0.0073635
12890.0 0.0072435
12910.0 0.0071217
12930.0 0.0070022
12950.0 0.0068802
12970.0 0.0067588
12990.0 0.0066454
13010.0 0.0065358
13030.0 0.0064277
13050.0 0.0063252
13070.0 0.0062293
13090.0 0.0061339
13110.0 0.0060407
13130.0 0.0059522
13150.0 0.0058654
13170.0 0.0057767
13190.0 0.0056917
13210.0 0.0056098
13230.0 0.0055275
13250.0 0.0054467
13270.0 0.0053711
13290.0 0.005298
13310.0 0.0052274
13330.0 0.0051639
13350.0 0.0051075
13370.0 0.0050569
13390.0 0.0050136
13410.0 0.0049793
13430.0 0.0049514
13450.0 0.0049296
13470.0 0.004913
13490.0 0.0048995
13510.0 0.0048878
13530.0 0.0048756
13550.0 0.004861
13570.0 0.0048425
13590.0 0.0048183
13610.0 0.004788
13630.0 0.0047519
13650.0 0.0047079
13670.0 0.0046576
13690.0 0.0046035
13710.0 0.0045446
13730.0 0.0044802
13750.0 0.0044177
13770.0 0.004356
13790.0 0.0042941
13810.0 0.0042355
13830.0 0.0041826
13850.0 0.0041326
13870.0 0.0040867
13890.0 0.004047
13910.0 0.0040121
13930.0 0.0039805
13950.0 0.003953
13970.0 0.0039296
13990.0 0.0039079
14010.0 0.0038876
14030.0 0.0038687
14050.0 0.00385
14070.0 0.00383
14090.0 0.0038092
14110.0 0.0037873
14130.0 0.0037629
14150.0 0.0037356
14170.0 0.0037072
14190.0 0.0036766
14210.0 0.0036431
14230.0 0.0036085
14250.0 0.0035741
14270.0 0.003538
14290.0 0.0035019
14310.0 0.0034687
14330.0 0.0034373
14350.0 0.0034078
14370.0 0.003382
14390.0 0.0033606
14410.0 0.0033421
14430.0 0.0033275
14450.0 0.0033171
14470.0 0.0033099
14490.0 0.0033057
14510.0 0.0033044
14530.0 0.0033055
14550.0 0.0033087
14570.0 0.003314
14590.0 0.003321
14610.0 0.0033303
14630.0 0.0033425
14650.0 0.0033571
14670.0 0.0033747
14690.0 0.0033963
14710.0 0.0034223
14730.0 0.0034509
14750.0 0.0034842
14770.0 0.0035229
14790.0 0.0035653
14810.0 0.0036113
14830.0 0.0036655
14850.0 0.0037244
14870.0 0.0037865
14890.0 0.0038543
14910.0 0.0039279
14930.0 0.0040009
14950.0 0.0040717
14970.0 0.0041413
14990.0 0.0042031
15010.0 0.0042539
15030.0 0.0042955
15050.0 0.0043279
15070.0 0.00435
15090.0 0.0043659
15110.0 0.0043776
15130.0 0.0043864
15150.0 0.0043938
15170.0 0.0044004
15190.0 0.0044069
15210.0 0.0044133
15230.0 0.0044198
15250.0 0.0044265
15270.0 0.0044332
15290.0 0.0044402
15310.0 0.0044473
15330.0 0.0044544
15350.0 0.0044618
15370.0 0.0044693
15390.0 0.0044769
15410.0 0.0044846
15430.0 0.0044925
15450.0 0.0045004
15470.0 0.0045085
15490.0 0.0045167
15510.0 0.004525
15530.0 0.0045334
15550.0 0.0045419
15570.0 0.0045506
15590.0 0.0045592
15610.0 0.004568
15630.0 0.0045769
15650.0 0.0045859
15670.0 0.0045949
15690.0 0.004604
15710.0 0.0046132
15730.0 0.0046225
15750.0 0.0046318
15770.0 0.0046412
15790.0 0.0046507
15810.0 0.0046601
15830.0 0.0046697
15850.0 0.0046793
15870.0 0.0046889
15890.0 0.0046986
15910.0 0.0047083
15930.0 0.004718
15950.0 0.0047277
15970.0 0.0047375
15990.0 0.0047473
16010.0 0.0047571
16030.0 0.0047669
16050.0 0.0047768
16070.0 0.0047866
16090.0 0.0047963
16110.0 0.0048062
16130.0 0.004816
16150.0 0.0048257
16170.0 0.0048354
16190.0 0.0048451
16210.0 0.0048548
16230.0 0.0048644
16250.0 0.004874
16270.0 0.0048836
16290.0 0.004893
16310.0 0.0049025
16330.0 0.0049119
16350.0 0.0049212
16370.0 0.0049303
16390.0 0.0049395
16410.0 0.0049486
16430.0 0.0049575
16450.0 0.0049664
16470.0 0.0049753
16490.0 0.0049839
16510.0 0.0049925
16530.0 0.005001
16550.0 0.0050093
16570.0 0.0050175
16590.0 0.0050256
16610.0 0.0050336
16630.0 0.0050415
16650.0 0.0050491
16670.0 0.0050567
16690.0 0.0050641
16710.0 0.0050713
16730.0 0.0050784
16750.0 0.0050854
16770.0 0.0050921
16790.0 0.0050986
16810.0 0.005105
16830.0 0.0051113
16850.0 0.0051173
16870.0 0.0051231
16890.0 0.0051288
16910.0 0.0051342
16930.0 0.0051394
16950.0 0.0051444
16970.0 0.0051492
16990.0 0.0051538
17010.0 0.0051582
17030.0 0.0051623
17050.0 0.0051662
17070.0 0.0051699
17090.0 0.0051733
17110.0 0.0051766
17130.0 0.0051794
17150.0 0.0051822
17170.0 0.0051847
17190.0 0.0051868
17210.0 0.0051888
17230.0 0.0051905
17250.0 0.0051919
17270.0 0.005193
17290.0 0.005194
17310.0 0.0051946
17330.0 0.0051949
17350.0 0.005195
17370.0 0.0051948
17390.0 0.0051943
17410.0 0.0051935
17430.0 0.0051925
17450.0 0.0051912
17470.0 0.0051896
17490.0 0.0051876
17510.0 0.0051855
17530.0 0.005183
17550.0 0.0051802
17570.0 0.0051772
17590.0 0.0051739
17610.0 0.0051702
17630.0 0.0051662
17650.0 0.005162
17670.0 0.0051575
17690.0 0.0051526
17710.0 0.0051475
17730.0 0.0051422
17750.0 0.0051364
17770.0 0.0051304
17790.0 0.0051242
17810.0 0.0051176
17830.0 0.0051107
17850.0 0.0051036
17870.0 0.0050962
17890.0 0.0050884
17910.0 0.0050804
17930.0 0.0050721
17950.0 0.0050635
17970.0 0.0050547
17990.0 0.0050456
18010.0 0.0050362
18030.0 0.0050264
18050.0 0.0050165
18070.0 0.0050063
18090.0 0.0049958
18110.0 0.004985
18130.0 0.004974
18150.0 0.0049628
18170.0 0.0049512
18190.0 0.0049394
18210.0 0.0049274
18230.0 0.0049151
18250.0 0.0049025
18270.0 0.0048898
18290.0 0.0048768
18310.0 0.0048636
18330.0 0.0048501
18350.0 0.0048365
18370.0 0.0048225
18390.0 0.0048084
18410.0 0.0047941
18430.0 0.0047796
18450.0 0.0047647
18470.0 0.0047498
18490.0 0.0047347
18510.0 0.0047193
18530.0 0.0047038
18550.0 0.0046881
18570.0 0.0046722
18590.0 0.0046561
18610.0 0.0046399
18630.0 0.0046235
18650.0 0.0046069
18670.0 0.0045901
18690.0 0.0045733
18710.0 0.0045562
18730.0 0.004539
18750.0 0.0045217
18770.0 0.0045043
18790.0 0.0044867
18810.0 0.0044689
18830.0 0.0044511
18850.0 0.0044332
18870.0 0.0044151
18890.0 0.0043969
18910.0 0.0043787
18930.0 0.0043603
18950.0 0.0043418
18970.0 0.0043233
18990.0 0.0043046
19010.0 0.0042859
19030.0 0.0042671
19050.0 0.0042482
19070.0 0.0042293
19090.0 0.0042103
19110.0 0.0041913
19130.0 0.0041721
19150.0 0.0041529
19170.0 0.0041338
19190.0 0.0041145
19210.0 0.0040952
19230.0 0.0040759
19250.0 0.0040566
19270.0 0.0040372
19290.0 0.0040178
19310.0 0.0039984
19330.0 0.003979
19350.0 0.0039595
19370.0 0.00394
19390.0 0.0039206
19410.0 0.0039012
19430.0 0.0038817
19450.0 0.0038623
19470.0 0.0038429
19490.0 0.0038235
19510.0 0.0038041
19530.0 0.0037848
19550.0 0.0037654
19570.0 0.0037461
19590.0 0.0037268
19610.0 0.0037076
19630.0 0.0036884
19650.0 0.0036692
19670.0 0.0036501
19690.0 0.003631
19710.0 0.003612
19730.0 0.003593
19750.0 0.0035741
19770.0 0.0035552
19790.0 0.0035364
19810.0 0.0035177
19830.0 0.0034989
19850.0 0.00348
19870.0 0.0034609
19890.0 0.0034411
19910.0 0.0034201
19930.0 0.0033971
19950.0 0.0033712
19970.0 0.0033405
19990.0 0.0033044
20010.0 0.0032634
20030.0 0.0032156
20050.0 0.0031614
20070.0 0.0031037
20090.0 0.0030433
20110.0 0.002978
20130.0 0.0029133
20150.0 0.0028505
20170.0 0.0027875
20190.0 0.0027251
20210.0 0.0026665
20230.0 0.0026099
20250.0 0.0025538
20270.0 0.0025009
20290.0 0.0024513
20310.0 0.002403
20330.0 0.0023559
20350.0 0.0023134
20370.0 0.0022725
20390.0 0.002233
20410.0 0.002196
20430.0 0.0021619
20450.0 0.0021284
20470.0 0.002097
20490.0 0.0020682
20510.0 0.0020412
20530.0 0.0020155
20550.0 0.0019921
20570.0 0.0019708
20590.0 0.0019509
20610.0 0.0019327
20630.0 0.0019165
20650.0 0.0019017
20670.0 0.0018882
20690.0 0.0018763
20710.0 0.0018657
20730.0 0.0018561
20750.0 0.0018476
20770.0 0.0018398
20790.0 0.0018327
20810.0 0.0018262
20830.0 0.00182
20850.0 0.001814
20870.0 0.0018081
20890.0 0.0018021
20910.0 0.0017958
20930.0 0.0017891
20950.0 0.001782
20970.0 0.0017743
20990.0 0.0017659
21010.0 0.0017567
21030.0 0.0017466
21050.0 0.0017359
21070.0 0.0017242
21090.0 0.0017116
21110.0 0.0016983
21130.0 0.0016844
21150.0 0.0016695
21170.0 0.001654
21190.0 0.0016382
21210.0 0.0016215
21230.0 0.0016042
21250.0 0.0015869
21270.0 0.0015694
21290.0 0.0015513
21310.0 0.0015332
21330.0 0.0015156
21350.0 0.0014976
21370.0 0.0014797
21390.0 0.0014624
21410.0 0.0014455
21430.0 0.0014285
21450.0 0.0014125
21470.0 0.0013975
21490.0 0.001383
21510.0 0.0013693
21530.0 0.0013568
21550.0 0.0013453
21570.0 0.0013348
21590.0 0.0013254
21610.0 0.0013173
21630.0 0.0013103
21650.0 0.0013045
21670.0 0.0012997
21690.0 0.001296
21710.0 0.0012934
21730.0 0.0012916
21750.0 0.0012904
21770.0 0.0012902
21790.0 0.0012906
21810.0 0.0012911
21830.0 0.0012921
21850.0 0.0012934
21870.0 0.0012946
21890.0 0.0012955
21910.0 0.0012964
21930.0 0.0012971
21950.0 0.0012973
21970.0 0.0012971
21990.0 0.0012966
22010.0 0.0012954
22030.0 0.0012937
22050.0 0.0012915
22070.0 0.0012888
22090.0 0.0012856
22110.0 0.001282
22130.0 0.0012779
22150.0 0.0012735
22170.0 0.0012687
22190.0 0.0012637
22210.0 0.0012583
22230.0 0.0012527
22250.0 0.0012468
22270.0 0.0012406
22290.0 0.0012342
22310.0 0.0012275
22330.0 0.0012203
22350.0 0.0012128
22370.0 0.0012049
22390.0 0.0011964
22410.0 0.0011872
22430.0 0.0011775
22450.0 0.0011673
22470.0 0.001156
22490.0 0.0011441
22510.0 0.0011318
22530.0 0.0011183
22550.0 0.0011039
22570.0 0.0010892
22590.0 0.0010741
22610.0 0.001058
22630.0 0.0010417
22650.0 0.0010256
22670.0 0.001009
22690.0 0.00099227
22710.0 0.00097615
22730.0 0.00096033
22750.0 0.0009442
22770.0 0.00092912
22790.0 0.000915
22810.0 0.00090122
22830.0 0.0008881
22850.0 0.0008762
22870.0 0.00086497
22890.0 0.00085423
22910.0 0.00084451
22930.0 0.00083566
22950.0 0.00082729
22970.0 0.00081945
22990.0 0.0008125
23010.0 0.00080591
23030.0 0.00079958
23050.0 0.00079364
23070.0 0.00078801
23090.0 0.00078227
23110.0 0.00077662
23130.0 0.00077107
23150.0 0.0007654
23170.0 0.00075949
23190.0 0.00075357
23210.0 0.00074763
23230.0 0.00074142
23250.0 0.00073514
23270.0 0.00072899
23290.0 0.00072279
23310.0 0.00071647
23330.0 0.0007105
23350.0 0.00070474
23370.0 0.00069904
23390.0 0.00069359
23410.0 0.00068851
23430.0 0.00068355
23450.0 0.0006787
23470.0 0.00067413
23490.0 0.00066973
23510.0 0.00066532
23530.0 0.00066103
23550.0 0.00065692
23570.0 0.00065279
23590.0 0.00064866
23610.0 0.00064466
23630.0 0.00064074
23650.0 0.00063678
23670.0 0.00063301
23690.0 0.00062948
23710.0 0.00062612
23730.0 0.00062305
23750.0 0.00062044
23770.0 0.00061828
23790.0 0.00061667
23810.0 0.00061574
23830.0 0.0006155
23850.0 0.00061616
23870.0 0.00061782
23890.0 0.00062031
23910.0 0.00062378
23930.0 0.00062846
23950.0 0.00063405
23970.0 0.00064026
23990.0 0.00064763
24010.0 0.00065584
24030.0 0.00066435
24050.0 0.00067337
24070.0 0.0006834
24090.0 0.00069325
24110.0 0.00070297
