#lamb flux
1010.0 4.0544e-06
1030.0 4.2257e-06
1050.0 4.4245e-06
1070.0 4.6489e-06
1090.0 4.904e-06
1110.0 5.167e-06
1130.0 5.4331e-06
1150.0 5.7132e-06
1170.0 6.0039e-06
1190.0 6.282e-06
1210.0 6.5658e-06
1230.0 6.8611e-06
1250.0 7.1533e-06
1270.0 7.4401e-06
1290.0 7.745e-06
1310.0 8.0528e-06
1330.0 8.3519e-06
1350.0 8.6574e-06
1370.0 8.9755e-06
1390.0 9.29e-06
1410.0 9.5997e-06
1430.0 9.9259e-06
1450.0 1.0256e-05
1470.0 1.058e-05
1490.0 1.091e-05
1510.0 1.1261e-05
1530.0 1.1599e-05
1550.0 1.1936e-05
1570.0 1.2286e-05
1590.0 1.2638e-05
1610.0 1.2979e-05
1630.0 1.3329e-05
1650.0 1.3689e-05
1670.0 1.4038e-05
1690.0 1.4382e-05
1710.0 1.4737e-05
1730.0 1.509e-05
1750.0 1.5422e-05
1770.0 1.5757e-05
1790.0 1.6094e-05
1810.0 1.6415e-05
1830.0 1.6724e-05
1850.0 1.7043e-05
1870.0 1.7346e-05
1890.0 1.763e-05
1910.0 1.791e-05
1930.0 1.8189e-05
1950.0 1.8443e-05
1970.0 1.8683e-05
1990.0 1.8926e-05
2010.0 1.9154e-05
2030.0 1.9363e-05
2050.0 1.9572e-05
2070.0 1.9783e-05
2090.0 1.997e-05
2110.0 2.0153e-05
2130.0 2.0342e-05
2150.0 2.0524e-05
2170.0 2.0696e-05
2190.0 2.0881e-05
2210.0 2.1073e-05
2230.0 2.1262e-05
2250.0 2.146e-05
2270.0 2.1683e-05
2290.0 2.1912e-05
2310.0 2.2148e-05
2330.0 2.2413e-05
2350.0 2.2702e-05
2370.0 2.3005e-05
2390.0 2.3339e-05
2410.0 2.3717e-05
2430.0 2.4117e-05
2450.0 2.4545e-05
2470.0 2.5012e-05
2490.0 2.5516e-05
2510.0 2.6044e-05
2530.0 2.6649e-05
2550.0 2.7416e-05
2570.0 2.846e-05
2590.0 2.994e-05
2610.0 3.2221e-05
2630.0 3.5503e-05
2650.0 3.9758e-05
2670.0 4.5131e-05
2690.0 5.1596e-05
2710.0 5.8517e-05
2730.0 6.554e-05
2750.0 7.2789e-05
2770.0 7.9779e-05
2790.0 8.6335e-05
2810.0 9.2779e-05
2830.0 9.9395e-05
2850.0 0.00010587
2870.0 0.00011253
2890.0 0.00011964
2910.0 0.00012708
2930.0 0.00013467
2950.0 0.00014278
2970.0 0.00015136
2990.0 0.00016011
3010.0 0.00029321
3030.0 0.00030957
3050.0 0.00032601
3070.0 0.00034131
3090.0 0.00035488
3110.0 0.00036384
3130.0 0.00036466
3150.0 0.00035341
3170.0 0.00032217
3190.0 0.00026969
3210.0 0.0001964
3230.0 0.00011309
3250.0 0.00019826
3270.0 8.5697e-05
3290.0 0.00028705
3310.0 5.7125e-05
3330.0 5.8279e-05
3350.0 8.9356e-05
3370.0 0.00012475
3390.0 0.00016228
3410.0 0.00019965
3430.0 0.00023869
3450.0 0.0002776
3470.0 0.00031326
3490.0 0.00033663
3510.0 0.00041904
3530.0 0.00057394
3550.0 0.00057535
3570.0 0.00048856
3590.0 0.00070012
3610.0 0.0004513
3630.0 0.00072757
3650.0 0.00082589
3670.0 0.0010617
3690.0 0.0010152
3710.0 0.00072445
3730.0 0.00096773
3750.0 0.0010063
3770.0 0.0010367
3790.0 0.00093787
3810.0 0.00082427
3830.0 0.0011397
3850.0 0.001226
3870.0 0.0015226
3890.0 0.001437
3910.0 0.0013047
3930.0 0.0014122
3950.0 0.0015894
3970.0 0.0020729
3990.0 0.0016692
4010.0 0.001103
4030.0 0.0014855
4050.0 0.0016248
4070.0 0.0018463
4090.0 0.0016204
4110.0 0.0011081
4130.0 0.0014609
4150.0 0.0013428
4170.0 0.001423
4190.0 0.0014161
4210.0 0.0017587
4230.0 0.0012301
4250.0 0.0014698
4270.0 0.0014682
4290.0 0.0014844
4310.0 0.0018081
4330.0 0.0018542
4350.0 0.0014379
4370.0 0.0012451
4390.0 0.0015107
4410.0 0.0015389
4430.0 0.0011892
4450.0 0.0011965
4470.0 0.0013866
4490.0 0.0010348
4510.0 0.0012595
4530.0 0.0013602
4550.0 0.0018185
4570.0 0.0026628
4590.0 0.002586
4610.0 0.0017304
4630.0 0.002751
4650.0 0.0039365
4670.0 0.0036414
4690.0 0.0021638
4710.0 0.002338
4730.0 0.0030206
4750.0 0.0027
4770.0 0.0020449
4790.0 0.001414
4810.0 0.0020408
4830.0 0.002354
4850.0 0.0021041
4870.0 0.00076295
4890.0 0.0022586
4910.0 0.0031315
4930.0 0.0033582
4950.0 0.0033124
4970.0 0.0020914
4990.0 0.0023994
5010.0 0.0027881
5030.0 0.0030292
5050.0 0.0029856
5070.0 0.00216
5090.0 0.001773
5110.0 0.0016583
5130.0 0.0014791
5150.0 0.0016906
5170.0 0.0014739
5190.0 0.0018252
5210.0 0.0018235
5230.0 0.001996
5250.0 0.0025321
5270.0 0.002152
5290.0 0.0021144
5310.0 0.0030868
5330.0 0.0035765
5350.0 0.003028
5370.0 0.002647
5390.0 0.0029981
5410.0 0.0037486
5430.0 0.0041281
5450.0 0.0044287
5470.0 0.0044669
5490.0 0.0043848
5510.0 0.00512
5530.0 0.0053111
5550.0 0.005683
5570.0 0.0060255
5590.0 0.0059765
5610.0 0.0056693
5630.0 0.0054771
5650.0 0.0055833
5670.0 0.0055296
5690.0 0.004734
5710.0 0.0045427
5730.0 0.004594
5750.0 0.0050072
5770.0 0.0043552
5790.0 0.0039971
5810.0 0.004056
5830.0 0.0042619
5850.0 0.003904
5870.0 0.0039294
5890.0 0.004664
5910.0 0.0044544
5930.0 0.0036691
5950.0 0.0031952
5970.0 0.0034152
5990.0 0.0031536
6010.0 0.0029748
6030.0 0.0030452
6050.0 0.0028568
6070.0 0.0021622
6090.0 0.0019449
6110.0 0.0025025
6130.0 0.0028829
6150.0 0.003034
6170.0 0.0029598
6190.0 0.0027881
6210.0 0.002732
6230.0 0.003157
6250.0 0.0029182
6270.0 0.0026689
6290.0 0.0024523
6310.0 0.0023196
6330.0 0.0022072
6350.0 0.0019348
6370.0 0.0019223
6390.0 0.0022782
6410.0 0.0028294
6430.0 0.0032491
6450.0 0.003064
6470.0 0.0030065
6490.0 0.0037434
6510.0 0.0042826
6530.0 0.0040573
6550.0 0.0039055
6570.0 0.0039656
6590.0 0.0038421
6610.0 0.0041735
6630.0 0.0039298
6650.0 0.0034829
6670.0 0.0031393
6690.0 0.00304
6710.0 0.0037123
6730.0 0.0034139
6750.0 0.0029393
6770.0 0.0026508
6790.0 0.0027781
6810.0 0.0030725
6830.0 0.0029991
6850.0 0.0027299
6870.0 0.0028193
6890.0 0.0027681
6910.0 0.0026134
6930.0 0.0029939
6950.0 0.0027779
6970.0 0.0026055
6990.0 0.0026026
7010.0 0.0024912
7030.0 0.0023462
7050.0 0.0022631
7070.0 0.0024449
7090.0 0.0023167
7110.0 0.0020103
7130.0 0.0016282
7150.0 0.001478
7170.0 0.0019571
7190.0 0.0021327
7210.0 0.002063
7230.0 0.002147
7250.0 0.0020013
7270.0 0.0019065
7290.0 0.0021071
7310.0 0.0023473
7330.0 0.0023037
7350.0 0.0021628
7370.0 0.0020679
7390.0 0.0021664
7410.0 0.0025251
7430.0 0.0027615
7450.0 0.0029406
7470.0 0.0028915
7490.0 0.0029692
7510.0 0.0028495
7530.0 0.0028502
7550.0 0.0028122
7570.0 0.0024779
7590.0 0.0024535
7610.0 0.0023838
7630.0 0.0022208
7650.0 0.0024371
7670.0 0.0026603
7690.0 0.0028883
7710.0 0.0032192
7730.0 0.0034298
7750.0 0.0035843
7770.0 0.0035848
7790.0 0.003911
7810.0 0.0040367
7830.0 0.003735
7850.0 0.0037615
7870.0 0.0035829
7890.0 0.0037402
7910.0 0.0035466
7930.0 0.0035722
7950.0 0.0031729
7970.0 0.0032542
7990.0 0.0031215
8010.0 0.0031208
8030.0 0.0031085
8050.0 0.0032583
8070.0 0.0031438
8090.0 0.0031523
8110.0 0.0030732
8130.0 0.0030721
8150.0 0.0029422
8170.0 0.0028616
8190.0 0.0028268
8210.0 0.0028484
8230.0 0.0025376
8250.0 0.0023246
8270.0 0.00204
8290.0 0.0016959
8310.0 0.001447
8330.0 0.0011544
8350.0 0.0009722
8370.0 0.0010032
8390.0 0.0010283
8410.0 0.0010918
8430.0 0.0013299
8450.0 0.0014225
8470.0 0.0015031
8490.0 0.0017212
8510.0 0.0018772
8530.0 0.0021631
8550.0 0.0025575
8570.0 0.0028516
8590.0 0.0030609
8610.0 0.0033402
8630.0 0.0036697
8650.0 0.0037296
8670.0 0.0037689
8690.0 0.0039144
8710.0 0.0038754
8730.0 0.0038389
8750.0 0.0036357
8770.0 0.0036385
8790.0 0.0035889
8810.0 0.0033139
8830.0 0.003308
8850.0 0.003107
8870.0 0.0029858
8890.0 0.002736
8910.0 0.002927
8930.0 0.002682
8950.0 0.0026355
8970.0 0.002641
8990.0 0.0025548
9010.0 0.0025958
9030.0 0.0024924
9050.0 0.0024787
9070.0 0.0024756
9090.0 0.002472
9110.0 0.0024693
9130.0 0.0024649
9150.0 0.0024598
9170.0 0.0024488
9190.0 0.0024286
9210.0 0.0024561
9230.0 0.002443
9250.0 0.0024336
9270.0 0.0024247
9290.0 0.0024161
9310.0 0.0024078
9330.0 0.0023994
9350.0 0.0023909
9370.0 0.0023823
9390.0 0.0023735
9410.0 0.0023644
9430.0 0.002355
9450.0 0.0023454
9470.0 0.0023356
9490.0 0.0023259
9510.0 0.0023159
9530.0 0.0023058
9550.0 0.0022956
9570.0 0.0022851
9590.0 0.0022746
9610.0 0.002264
9630.0 0.0022533
9650.0 0.0022425
9670.0 0.0022317
9690.0 0.0022208
9710.0 0.0022099
9730.0 0.002199
9750.0 0.002188
9770.0 0.0021771
9790.0 0.0021662
9810.0 0.0021553
9830.0 0.0021444
9850.0 0.0021336
9870.0 0.0021228
9890.0 0.0021121
9910.0 0.0021014
9930.0 0.0020907
9950.0 0.0020739
9970.0 0.0020654
9990.0 0.0020566
10010.0 0.0020477
10030.0 0.0020384
10050.0 0.0020283
10070.0 0.0020164
10090.0 0.0020077
10110.0 0.0019987
10130.0 0.0019897
10150.0 0.0019809
10170.0 0.0019718
10190.0 0.0019625
10210.0 0.0019537
10230.0 0.0019451
10250.0 0.0019363
10270.0 0.0019278
10290.0 0.0019197
10310.0 0.0019114
10330.0 0.0019031
10350.0 0.0018953
10370.0 0.0018877
10390.0 0.00188
10410.0 0.0018725
10430.0 0.0018655
10450.0 0.0018584
10470.0 0.0018514
10490.0 0.0018447
10510.0 0.0018382
10530.0 0.0018315
10550.0 0.0018252
10570.0 0.0018192
10590.0 0.0018132
10610.0 0.0018073
10630.0 0.0018017
10650.0 0.0017963
10670.0 0.0017908
10690.0 0.0017856
10710.0 0.0017806
10730.0 0.0017757
10750.0 0.0017707
10770.0 0.0017662
10790.0 0.0017618
10810.0 0.0017573
10830.0 0.001753
10850.0 0.001749
10870.0 0.0017445
10890.0 0.0017395
10910.0 0.0017341
10930.0 0.0017272
10950.0 0.0017177
10970.0 0.0017054
10990.0 0.00169
11010.0 0.0016595
11030.0 0.0016361
11050.0 0.0016091
11070.0 0.0015782
11090.0 0.0015424
11110.0 0.0015067
11130.0 0.0014709
11150.0 0.0014338
11170.0 0.0013972
11190.0 0.0013633
11210.0 0.0013296
11230.0 0.0012965
11250.0 0.001266
11270.0 0.0012378
11290.0 0.0012101
11310.0 0.0011844
11330.0 0.0011621
11350.0 0.0011408
11370.0 0.0011208
11390.0 0.0011029
11410.0 0.0010865
11430.0 0.00107
11450.0 0.0010545
11470.0 0.00104
11490.0 0.0010252
11510.0 0.0010096
11530.0 0.00099442
11550.0 0.00097878
11570.0 0.00096162
11590.0 0.00094377
11610.0 0.00092576
11630.0 0.00090608
11650.0 0.00088496
11670.0 0.00086428
11690.0 0.00084315
11710.0 0.00082087
11730.0 0.00079882
11750.0 0.00077797
11770.0 0.00075659
11790.0 0.00073553
11810.0 0.00071607
11830.0 0.00069757
11850.0 0.00067899
11870.0 0.00066219
11890.0 0.00064709
11910.0 0.00063246
11930.0 0.00061864
11950.0 0.00060637
11970.0 0.00059474
11990.0 0.00058322
12010.0 0.00057271
12030.0 0.00056302
12050.0 0.00055341
12070.0 0.00054397
12090.0 0.00053571
12110.0 0.0005277
12130.0 0.00051988
12150.0 0.00051287
12170.0 0.00050681
12190.0 0.00050102
12210.0 0.00049632
12230.0 0.00049303
12250.0 0.00049095
12270.0 0.00049025
12290.0 0.00049131
12310.0 0.00049408
12330.0 0.00049863
12350.0 0.00050506
12370.0 0.00051308
12390.0 0.00052274
12410.0 0.00053433
12430.0 0.00054669
12450.0 0.00055981
12470.0 0.0005739
12490.0 0.00058828
12510.0 0.00060218
12530.0 0.00061614
12550.0 0.00062981
12570.0 0.00064243
12590.0 0.0006541
12610.0 0.0006651
12630.0 0.00067494
12650.0 0.00068338
12670.0 0.00069089
12690.0 0.00069735
12710.0 0.00070266
12730.0 0.000707
12750.0 0.00071037
12770.0 0.00071278
12790.0 0.00071437
12810.0 0.00071507
12830.0 0.00071483
12850.0 0.00071398
12870.0 0.00071241
12890.0 0.00070987
12910.0 0.00070665
12930.0 0.00070293
12950.0 0.0006982
12970.0 0.00069253
12990.0 0.00068657
13010.0 0.00067992
13030.0 0.00067227
13050.0 0.00066416
13070.0 0.00065593
13090.0 0.00064679
13110.0 0.00063719
13130.0 0.0006278
13150.0 0.00061836
13170.0 0.00060848
13190.0 0.00059939
13210.0 0.00059121
13230.0 0.00058346
13250.0 0.00057665
13270.0 0.00057128
13290.0 0.000567
13310.0 0.0005638
13330.0 0.00056204
13350.0 0.00056146
13370.0 0.00056182
13390.0 0.00056299
13410.0 0.00056467
13430.0 0.00056654
13450.0 0.0005683
13470.0 0.00056964
13490.0 0.00057034
13510.0 0.00057007
13530.0 0.00056871
13550.0 0.00056633
13570.0 0.0005628
13590.0 0.00055801
13610.0 0.00055246
13630.0 0.00054635
13650.0 0.00053936
13670.0 0.00053204
13690.0 0.00052483
13710.0 0.00051752
13730.0 0.00051
13750.0 0.00050322
13770.0 0.00049684
13790.0 0.00049061
13810.0 0.00048481
13830.0 0.0004796
13850.0 0.00047451
13870.0 0.00046959
13890.0 0.00046502
13910.0 0.00046063
13930.0 0.00045617
13950.0 0.00045182
13970.0 0.00044774
13990.0 0.00044363
14010.0 0.00043955
14030.0 0.00043574
14050.0 0.00043212
14070.0 0.00042855
14090.0 0.00042535
14110.0 0.00042251
14130.0 0.00041995
14150.0 0.00041771
14170.0 0.00041591
14190.0 0.00041447
14210.0 0.00041338
14230.0 0.00041268
14250.0 0.00041234
14270.0 0.00041238
14290.0 0.00041282
14310.0 0.00041353
14330.0 0.00041456
14350.0 0.00041593
14370.0 0.00041749
14390.0 0.00041912
14410.0 0.00042097
14430.0 0.00042288
14450.0 0.00042464
14470.0 0.00042633
14490.0 0.000428
14510.0 0.00042938
14530.0 0.0004305
14550.0 0.00043152
14570.0 0.00043239
14590.0 0.00043308
14610.0 0.00043379
14630.0 0.00043467
14650.0 0.00043564
14670.0 0.00043684
14690.0 0.00043852
14710.0 0.00044077
14730.0 0.00044333
14750.0 0.00044658
14770.0 0.00045066
14790.0 0.00045528
14810.0 0.00046038
14830.0 0.0004666
14850.0 0.00047331
14870.0 0.00048013
14890.0 0.00048736
14910.0 0.00049488
14930.0 0.00050176
14950.0 0.00050784
14970.0 0.00051329
14990.0 0.00051735
15010.0 0.00051981
15030.0 0.00052094
15050.0 0.00052082
15070.0 0.00051949
15090.0 0.00051742
15110.0 0.00051482
15130.0 0.00051189
15150.0 0.00050882
15170.0 0.00050562
15190.0 0.00050237
15210.0 0.00049913
15230.0 0.00049589
15250.0 0.00049262
15270.0 0.00048935
15290.0 0.00048613
15310.0 0.00048288
15330.0 0.00047963
15350.0 0.0004764
15370.0 0.00047319
15390.0 0.00046994
15410.0 0.00046672
15430.0 0.00046352
15450.0 0.00046032
15470.0 0.00045711
15490.0 0.00045395
15510.0 0.00045079
15530.0 0.00044762
15550.0 0.00044447
15570.0 0.00044136
15590.0 0.00043822
15610.0 0.00043509
15630.0 0.00043201
15650.0 0.00042894
15670.0 0.00042586
15690.0 0.00042281
15710.0 0.0004198
15730.0 0.00041677
15750.0 0.00041376
15770.0 0.00041079
15790.0 0.00040782
15810.0 0.00040485
15830.0 0.00040192
15850.0 0.00039902
15870.0 0.00039612
15890.0 0.00039323
15910.0 0.0003904
15930.0 0.00038756
15950.0 0.00038472
15970.0 0.00038193
15990.0 0.00037916
16010.0 0.00037639
16030.0 0.00037364
16050.0 0.00037094
16070.0 0.00036825
16090.0 0.00036556
16110.0 0.00036291
16130.0 0.00036029
16150.0 0.00035766
16170.0 0.00035506
16190.0 0.0003525
16210.0 0.00034996
16230.0 0.00034741
16250.0 0.00034492
16270.0 0.00034245
16290.0 0.00033998
16310.0 0.00033753
16330.0 0.00033513
16350.0 0.00033273
16370.0 0.00033033
16390.0 0.00032799
16410.0 0.00032567
16430.0 0.00032335
16450.0 0.00032106
16470.0 0.00031882
16490.0 0.00031657
16510.0 0.00031433
16530.0 0.00031214
16550.0 0.00030997
16570.0 0.0003078
16590.0 0.00030565
16610.0 0.00030356
16630.0 0.00030146
16650.0 0.00029938
16670.0 0.00029734
16690.0 0.00029532
16710.0 0.00029329
16730.0 0.0002913
16750.0 0.00028935
16770.0 0.0002874
16790.0 0.00028546
16810.0 0.00028357
16830.0 0.00028169
16850.0 0.00027981
16870.0 0.00027797
16890.0 0.00027616
16910.0 0.00027434
16930.0 0.00027254
16950.0 0.00027078
16970.0 0.00026904
16990.0 0.0002673
17010.0 0.00026559
17030.0 0.00026392
17050.0 0.00026224
17070.0 0.00026058
17090.0 0.00025895
17110.0 0.00025734
17130.0 0.00025572
17150.0 0.00025414
17170.0 0.0002526
17190.0 0.00025104
17210.0 0.00024951
17230.0 0.00024802
17250.0 0.00024652
17270.0 0.00024503
17290.0 0.00024357
17310.0 0.00024214
17330.0 0.00024071
17350.0 0.00023928
17370.0 0.00023791
17390.0 0.00023653
17410.0 0.00023516
17430.0 0.00023382
17450.0 0.0002325
17470.0 0.00023117
17490.0 0.00022986
17510.0 0.00022859
17530.0 0.00022732
17550.0 0.00022605
17570.0 0.00022482
17590.0 0.0002236
17610.0 0.00022238
17630.0 0.00022118
17650.0 0.00022001
17670.0 0.00021883
17690.0 0.00021766
17710.0 0.00021652
17730.0 0.0002154
17750.0 0.00021428
17770.0 0.00021317
17790.0 0.0002121
17810.0 0.00021101
17830.0 0.00020993
17850.0 0.00020889
17870.0 0.00020785
17890.0 0.00020681
17910.0 0.00020579
17930.0 0.0002048
17950.0 0.0002038
17970.0 0.00020281
17990.0 0.00020185
18010.0 0.0002009
18030.0 0.00019993
18050.0 0.00019899
18070.0 0.00019808
18090.0 0.00019716
18110.0 0.00019624
18130.0 0.00019536
18150.0 0.00019448
18170.0 0.00019359
18190.0 0.00019273
18210.0 0.00019189
18230.0 0.00019103
18250.0 0.00019018
18270.0 0.00018937
18290.0 0.00018856
18310.0 0.00018774
18330.0 0.00018694
18350.0 0.00018617
18370.0 0.00018538
18390.0 0.0001846
18410.0 0.00018385
18430.0 0.0001831
18450.0 0.00018233
18470.0 0.0001816
18490.0 0.00018088
18510.0 0.00018015
18530.0 0.00017944
18550.0 0.00017875
18570.0 0.00017805
18590.0 0.00017734
18610.0 0.00017666
18630.0 0.000176
18650.0 0.00017532
18670.0 0.00017465
18690.0 0.00017401
18710.0 0.00017337
18730.0 0.00017272
18750.0 0.00017209
18770.0 0.00017148
18790.0 0.00017084
18810.0 0.00017022
18830.0 0.00016963
18850.0 0.00016903
18870.0 0.00016842
18890.0 0.00016784
18910.0 0.00016727
18930.0 0.00016668
18950.0 0.00016611
18970.0 0.00016556
18990.0 0.000165
19010.0 0.00016442
19030.0 0.00016389
19050.0 0.00016335
19070.0 0.00016281
19090.0 0.00016227
19110.0 0.00016176
19130.0 0.00016123
19150.0 0.00016071
19170.0 0.0001602
19190.0 0.0001597
19210.0 0.00015918
19230.0 0.00015868
19250.0 0.00015821
19270.0 0.00015771
19290.0 0.00015722
19310.0 0.00015675
19330.0 0.00015628
19350.0 0.0001558
19370.0 0.00015533
19390.0 0.00015488
19410.0 0.00015441
19430.0 0.00015395
19450.0 0.00015351
19470.0 0.00015307
19490.0 0.00015261
19510.0 0.00015217
19530.0 0.00015175
19550.0 0.00015131
19570.0 0.00015086
19590.0 0.00015045
19610.0 0.00015003
19630.0 0.0001496
19650.0 0.00014919
19670.0 0.00014879
19690.0 0.00014837
19710.0 0.00014795
19730.0 0.00014756
19750.0 0.00014716
19770.0 0.00014674
19790.0 0.00014635
19810.0 0.00014597
19830.0 0.00014557
19850.0 0.00014516
19870.0 0.00014477
19890.0 0.00014434
19910.0 0.00014384
19930.0 0.00014329
19950.0 0.00014263
19970.0 0.00014176
19990.0 0.00014067
20010.0 0.0001394
20030.0 0.00013783
20050.0 0.00013597
20070.0 0.00013394
20090.0 0.00013177
20110.0 0.00012932
20130.0 0.00012685
20150.0 0.00012444
20170.0 0.00012194
20190.0 0.00011944
20210.0 0.00011709
20230.0 0.00011481
20250.0 0.00011253
20270.0 0.00011043
20290.0 0.00010853
20310.0 0.00010673
20330.0 0.00010507
20350.0 0.00010372
20370.0 0.00010257
20390.0 0.0001016
20410.0 0.00010088
20430.0 0.00010042
20450.0 0.00010017
20470.0 0.00010016
20490.0 0.00010038
20510.0 0.00010081
20530.0 0.00010147
20550.0 0.0001023
20570.0 0.00010326
20590.0 0.0001044
20610.0 0.00010566
20630.0 0.00010696
20650.0 0.00010833
20670.0 0.0001098
20690.0 0.0001112
20710.0 0.00011256
20730.0 0.0001139
20750.0 0.00011516
20770.0 0.00011627
20790.0 0.00011729
20810.0 0.00011821
20830.0 0.00011895
20850.0 0.00011955
20870.0 0.00012002
20890.0 0.00012034
20910.0 0.00012052
20930.0 0.00012057
20950.0 0.0001205
20970.0 0.00012032
20990.0 0.00012005
21010.0 0.00011967
21030.0 0.00011921
21050.0 0.0001187
21070.0 0.00011812
21090.0 0.00011746
21110.0 0.00011679
21130.0 0.0001161
21150.0 0.00011536
21170.0 0.00011462
21190.0 0.00011391
21210.0 0.00011318
21230.0 0.00011246
21250.0 0.00011181
21270.0 0.00011122
21290.0 0.00011066
21310.0 0.00011019
21330.0 0.00010982
21350.0 0.00010952
21370.0 0.00010931
21390.0 0.00010921
21410.0 0.00010921
21430.0 0.00010932
21450.0 0.00010952
21470.0 0.00010982
21490.0 0.00011021
21510.0 0.0001107
21530.0 0.00011125
21550.0 0.00011187
21570.0 0.00011258
21590.0 0.00011334
21610.0 0.00011413
21630.0 0.00011498
21650.0 0.0001159
21670.0 0.0001168
21690.0 0.00011774
21710.0 0.00011873
21730.0 0.00011973
21750.0 0.00012072
21770.0 0.0001218
21790.0 0.00012288
21810.0 0.00012396
21830.0 0.00012506
21850.0 0.00012622
21870.0 0.00012737
21890.0 0.0001285
21910.0 0.00012969
21930.0 0.00013088
21950.0 0.00013204
21970.0 0.0001332
21990.0 0.00013441
22010.0 0.00013553
22030.0 0.0001366
22050.0 0.00013766
22070.0 0.00013866
22090.0 0.00013954
22110.0 0.00014036
22130.0 0.00014109
22150.0 0.00014168
22170.0 0.00014214
22190.0 0.00014247
22210.0 0.00014264
22230.0 0.00014265
22250.0 0.00014249
22270.0 0.00014215
22290.0 0.00014165
22310.0 0.00014099
22330.0 0.00014012
22350.0 0.00013908
22370.0 0.00013793
22390.0 0.00013659
22410.0 0.00013506
22430.0 0.00013348
22450.0 0.0001318
22470.0 0.00012996
22490.0 0.00012806
22510.0 0.00012618
22530.0 0.00012416
22550.0 0.00012209
22570.0 0.00012009
22590.0 0.00011811
22610.0 0.00011608
22630.0 0.00011412
22650.0 0.00011229
22670.0 0.00011046
22690.0 0.00010867
22710.0 0.00010703
22730.0 0.00010547
22750.0 0.00010391
22770.0 0.0001025
22790.0 0.00010122
22810.0 9.9985e-05
22830.0 9.8825e-05
22850.0 9.7796e-05
22870.0 9.6833e-05
22890.0 9.5912e-05
22910.0 9.5092e-05
22930.0 9.436e-05
22950.0 9.3674e-05
22970.0 9.3045e-05
22990.0 9.2524e-05
23010.0 9.2057e-05
23030.0 9.1642e-05
23050.0 9.1302e-05
23070.0 9.1032e-05
