#lamb flux
1010.0 5.5688e-07
1030.0 5.8211e-07
1050.0 6.1138e-07
1070.0 6.4441e-07
1090.0 6.8197e-07
1110.0 7.2067e-07
1130.0 7.5983e-07
1150.0 8.0106e-07
1170.0 8.4384e-07
1190.0 8.8474e-07
1210.0 9.2649e-07
1230.0 9.6992e-07
1250.0 1.0129e-06
1270.0 1.055e-06
1290.0 1.0999e-06
1310.0 1.1451e-06
1330.0 1.189e-06
1350.0 1.2339e-06
1370.0 1.2806e-06
1390.0 1.3268e-06
1410.0 1.3723e-06
1430.0 1.4201e-06
1450.0 1.4685e-06
1470.0 1.5161e-06
1490.0 1.5645e-06
1510.0 1.6159e-06
1530.0 1.6655e-06
1550.0 1.7148e-06
1570.0 1.7661e-06
1590.0 1.8177e-06
1610.0 1.8675e-06
1630.0 1.9189e-06
1650.0 1.9715e-06
1670.0 2.0226e-06
1690.0 2.0729e-06
1710.0 2.1247e-06
1730.0 2.1764e-06
1750.0 2.2247e-06
1770.0 2.2738e-06
1790.0 2.3229e-06
1810.0 2.3697e-06
1830.0 2.4146e-06
1850.0 2.4611e-06
1870.0 2.5052e-06
1890.0 2.5463e-06
1910.0 2.5869e-06
1930.0 2.6272e-06
1950.0 2.6638e-06
1970.0 2.6983e-06
1990.0 2.733e-06
2010.0 2.7654e-06
2030.0 2.7949e-06
2050.0 2.8244e-06
2070.0 2.8538e-06
2090.0 2.8797e-06
2110.0 2.9046e-06
2130.0 2.9302e-06
2150.0 2.9546e-06
2170.0 2.9771e-06
2190.0 3.0013e-06
2210.0 3.0262e-06
2230.0 3.0503e-06
2250.0 3.0753e-06
2270.0 3.1036e-06
2290.0 3.1323e-06
2310.0 3.1616e-06
2330.0 3.1945e-06
2350.0 3.2306e-06
2370.0 3.2682e-06
2390.0 3.3097e-06
2410.0 3.3569e-06
2430.0 3.4069e-06
2450.0 3.4603e-06
2470.0 3.5193e-06
2490.0 3.5839e-06
2510.0 3.6532e-06
2530.0 3.736e-06
2550.0 3.8466e-06
2570.0 4.0031e-06
2590.0 4.2291e-06
2610.0 4.581e-06
2630.0 5.0861e-06
2650.0 5.7353e-06
2670.0 6.5478e-06
2690.0 7.5147e-06
2710.0 8.5347e-06
2730.0 9.5534e-06
2750.0 1.0589e-05
2770.0 1.1568e-05
2790.0 1.247e-05
2810.0 1.3344e-05
2830.0 1.4233e-05
2850.0 1.5096e-05
2870.0 1.5982e-05
2890.0 1.6928e-05
2910.0 1.7919e-05
2930.0 1.893e-05
2950.0 2.0012e-05
2970.0 2.1158e-05
2990.0 2.2328e-05
3010.0 4.4348e-05
3030.0 4.6729e-05
3050.0 4.9118e-05
3070.0 5.1327e-05
3090.0 5.3257e-05
3110.0 5.4455e-05
3130.0 5.438e-05
3150.0 5.2422e-05
3170.0 4.7349e-05
3190.0 3.9002e-05
3210.0 2.7468e-05
3230.0 1.4411e-05
3250.0 2.8275e-05
3270.0 1.1719e-05
3290.0 4.4003e-05
3310.0 8.119e-06
3330.0 8.0137e-06
3350.0 1.2569e-05
3370.0 1.7827e-05
3390.0 2.3442e-05
3410.0 2.9039e-05
3430.0 3.4903e-05
3450.0 4.0759e-05
3470.0 4.6115e-05
3490.0 4.9626e-05
3510.0 6.2438e-05
3530.0 8.6161e-05
3550.0 8.4803e-05
3570.0 6.903e-05
3590.0 0.00010026
3610.0 6.0292e-05
3630.0 0.00010427
3650.0 0.00012099
3670.0 0.00015799
3690.0 0.00014835
3710.0 9.9217e-05
3730.0 0.00013502
3750.0 0.00014005
3770.0 0.00014566
3790.0 0.0001324
3810.0 0.00011977
3830.0 0.00017824
3850.0 0.00020064
3870.0 0.00025091
3890.0 0.00023543
3910.0 0.00020814
3930.0 0.00022018
3950.0 0.00024646
3970.0 0.00031494
3990.0 0.00023725
4010.0 0.00014268
4030.0 0.00021083
4050.0 0.00024423
4070.0 0.00027925
4090.0 0.00023333
4110.0 0.00015069
4130.0 0.0002121
4150.0 0.0001976
4170.0 0.00020591
4190.0 0.00020209
4210.0 0.00026096
4230.0 0.00017716
4250.0 0.00021091
4270.0 0.00021046
4290.0 0.00021064
4310.0 0.00026305
4330.0 0.00027102
4350.0 0.00020535
4370.0 0.00017305
4390.0 0.00021842
4410.0 0.00022687
4430.0 0.00017207
4450.0 0.00017203
4470.0 0.00020429
4490.0 0.00014769
4510.0 0.00018628
4530.0 0.00019925
4550.0 0.0002648
4570.0 0.00039066
4590.0 0.00037059
4610.0 0.00023479
4630.0 0.00039707
4650.0 0.00058128
4670.0 0.00053537
4690.0 0.00030764
4710.0 0.00033997
4730.0 0.00045068
4750.0 0.00040077
4770.0 0.00030046
4790.0 0.00019964
4810.0 0.00029673
4830.0 0.00034519
4850.0 0.00029889
4870.0 8.5493e-05
4890.0 0.00032257
4910.0 0.00045944
4930.0 0.0004934
4950.0 0.00048069
4970.0 0.00028232
4990.0 0.00033039
5010.0 0.00040005
5030.0 0.00044985
5050.0 0.00044867
5070.0 0.0003203
5090.0 0.00025963
5110.0 0.00024284
5130.0 0.00021627
5150.0 0.00024572
5170.0 0.00021205
5190.0 0.00026653
5210.0 0.00026653
5230.0 0.00029307
5250.0 0.00037097
5270.0 0.00030386
5290.0 0.00029662
5310.0 0.00045031
5330.0 0.0005254
5350.0 0.0004331
5370.0 0.00037215
5390.0 0.00043293
5410.0 0.00055351
5430.0 0.0006118
5450.0 0.00065164
5470.0 0.00064552
5490.0 0.00062513
5510.0 0.00073734
5530.0 0.00076575
5550.0 0.00082604
5570.0 0.00088379
5590.0 0.00087717
5610.0 0.00082603
5630.0 0.00079576
5650.0 0.00081453
5670.0 0.00080494
5690.0 0.00068106
5710.0 0.00066118
5730.0 0.00067784
5750.0 0.00074565
5770.0 0.00064192
5790.0 0.00058546
5810.0 0.00059188
5830.0 0.00062567
5850.0 0.00057003
5870.0 0.00057764
5890.0 0.00069902
5910.0 0.00066363
5930.0 0.00053548
5950.0 0.00046156
5970.0 0.00050239
5990.0 0.00046495
6010.0 0.00044074
6030.0 0.00045383
6050.0 0.00042281
6070.0 0.00031112
6090.0 0.00027792
6110.0 0.00036934
6130.0 0.00043026
6150.0 0.00045122
6170.0 0.0004336
6190.0 0.00040048
6210.0 0.00039226
6230.0 0.00046611
6250.0 0.00043084
6270.0 0.00039457
6290.0 0.00036507
6310.0 0.00034606
6330.0 0.00032912
6350.0 0.00028613
6370.0 0.00028325
6390.0 0.00033688
6410.0 0.00042116
6430.0 0.00048403
6450.0 0.00045058
6470.0 0.00043705
6490.0 0.00055387
6510.0 0.00064298
6530.0 0.00060622
6550.0 0.00057885
6570.0 0.0005881
6590.0 0.00057033
6610.0 0.00062284
6630.0 0.00058247
6650.0 0.000508
6670.0 0.00045661
6690.0 0.00044769
6710.0 0.00056066
6730.0 0.00051116
6750.0 0.0004287
6770.0 0.00037936
6790.0 0.00039925
6810.0 0.00045001
6830.0 0.00044044
6850.0 0.00039672
6870.0 0.00041382
6890.0 0.00040885
6910.0 0.00038519
6930.0 0.00044522
6950.0 0.00040876
6970.0 0.00037737
6990.0 0.00037437
7010.0 0.00035962
7030.0 0.00034075
7050.0 0.00033196
7070.0 0.00036761
7090.0 0.00035003
7110.0 0.00030001
7130.0 0.00024007
7150.0 0.000219
7170.0 0.00029703
7190.0 0.00032444
7210.0 0.00030965
7230.0 0.00032027
7250.0 0.00029492
7270.0 0.00027883
7290.0 0.00031219
7310.0 0.00035407
7330.0 0.00034903
7350.0 0.00032598
7370.0 0.00030777
7390.0 0.00031967
7410.0 0.00037425
7430.0 0.00041049
7450.0 0.00043389
7470.0 0.00042313
7490.0 0.00044072
7510.0 0.00042585
7530.0 0.0004225
7550.0 0.00042006
7570.0 0.0003703
7590.0 0.00036712
7610.0 0.00035517
7630.0 0.00032495
7650.0 0.00035377
7670.0 0.00038603
7690.0 0.0004189
7710.0 0.00047088
7730.0 0.00050073
7750.0 0.00052277
7770.0 0.00052529
7790.0 0.00057672
7810.0 0.00059352
7830.0 0.00054119
7850.0 0.00054526
7870.0 0.00051962
7890.0 0.00054602
7910.0 0.00051771
7930.0 0.00052258
7950.0 0.00045557
7970.0 0.00046679
7990.0 0.00044637
8010.0 0.00045373
8030.0 0.00045151
8050.0 0.0004756
8070.0 0.00045699
8090.0 0.00045851
8110.0 0.00044857
8130.0 0.00044848
8150.0 0.0004276
8170.0 0.0004164
8190.0 0.00041188
8210.0 0.00041521
8230.0 0.00036621
8250.0 0.00033462
8270.0 0.00029447
8290.0 0.00024687
8310.0 0.00021435
8330.0 0.0001717
8350.0 0.00014318
8370.0 0.00014504
8390.0 0.00014507
8410.0 0.00015235
8430.0 0.00018918
8450.0 0.00020322
8470.0 0.00021574
8490.0 0.00024931
8510.0 0.00027141
8530.0 0.00031194
8550.0 0.00036886
8570.0 0.00040869
8590.0 0.00043538
8610.0 0.00047669
8630.0 0.00052914
8650.0 0.00053877
8670.0 0.00054592
8690.0 0.00056803
8710.0 0.00056018
8730.0 0.00055118
8750.0 0.00051735
8770.0 0.00051795
8790.0 0.00051125
8810.0 0.00047114
8830.0 0.00047226
8850.0 0.00044154
8870.0 0.00042395
8890.0 0.00038486
8910.0 0.00041679
8930.0 0.0003795
8950.0 0.00037477
8970.0 0.00037753
8990.0 0.00036502
9010.0 0.00037299
9030.0 0.00035673
9050.0 0.00035481
9070.0 0.00035452
9090.0 0.00035417
9110.0 0.00035396
9130.0 0.00035348
9150.0 0.00035286
9170.0 0.00035134
9190.0 0.00034841
9210.0 0.00035293
9230.0 0.00035107
9250.0 0.00034979
9270.0 0.0003486
9290.0 0.00034746
9310.0 0.00034636
9330.0 0.00034527
9350.0 0.00034415
9370.0 0.00034301
9390.0 0.00034184
9410.0 0.00034063
9430.0 0.00033939
9450.0 0.0003381
9470.0 0.0003368
9490.0 0.00033548
9510.0 0.00033413
9530.0 0.00033277
9550.0 0.00033137
9570.0 0.00032996
9590.0 0.00032854
9610.0 0.00032709
9630.0 0.00032564
9650.0 0.00032418
9670.0 0.00032271
9690.0 0.00032123
9710.0 0.00031975
9730.0 0.00031826
9750.0 0.00031678
9770.0 0.0003153
9790.0 0.00031382
9810.0 0.00031234
9830.0 0.00031087
9850.0 0.00030941
9870.0 0.00030795
9890.0 0.0003065
9910.0 0.00030507
9930.0 0.00030364
9950.0 0.00030147
9970.0 0.0003003
9990.0 0.00029911
10010.0 0.00029791
10030.0 0.00029665
10050.0 0.00029531
10070.0 0.0002936
10090.0 0.00029249
10110.0 0.00029135
10130.0 0.0002902
10150.0 0.00028905
10170.0 0.00028788
10190.0 0.00028669
10210.0 0.00028555
10230.0 0.00028445
10250.0 0.00028333
10270.0 0.00028224
10290.0 0.0002812
10310.0 0.00028017
10330.0 0.00027913
10350.0 0.00027815
10370.0 0.00027721
10390.0 0.00027626
10410.0 0.00027534
10430.0 0.00027449
10450.0 0.00027363
10470.0 0.00027278
10490.0 0.00027199
10510.0 0.00027122
10530.0 0.00027044
10550.0 0.0002697
10570.0 0.00026902
10590.0 0.00026834
10610.0 0.00026767
10630.0 0.00026706
10650.0 0.00026647
10670.0 0.00026587
10690.0 0.00026531
10710.0 0.00026479
10730.0 0.00026428
10750.0 0.00026377
10770.0 0.00026333
10790.0 0.0002629
10810.0 0.00026247
10830.0 0.00026206
10850.0 0.00026168
10870.0 0.00026124
10890.0 0.00026074
10910.0 0.00026013
10930.0 0.00025928
10950.0 0.00025801
10970.0 0.00025625
10990.0 0.00025396
11010.0 0.00025255
11030.0 0.00024881
11050.0 0.00024443
11070.0 0.00023936
11090.0 0.0002335
11110.0 0.00022763
11130.0 0.00022174
11150.0 0.00021566
11170.0 0.00020968
11190.0 0.00020416
11210.0 0.00019873
11230.0 0.00019343
11250.0 0.00018862
11270.0 0.0001842
11290.0 0.00017992
11310.0 0.00017598
11330.0 0.00017259
11350.0 0.00016939
11370.0 0.00016638
11390.0 0.0001637
11410.0 0.00016123
11430.0 0.00015874
11450.0 0.00015638
11470.0 0.00015413
11490.0 0.00015182
11510.0 0.00014936
11530.0 0.00014695
11550.0 0.00014447
11570.0 0.00014175
11590.0 0.00013893
11610.0 0.0001361
11630.0 0.00013304
11650.0 0.00012978
11670.0 0.00012662
11690.0 0.0001234
11710.0 0.00012004
11730.0 0.00011673
11750.0 0.00011361
11770.0 0.00011043
11790.0 0.0001073
11810.0 0.00010441
11830.0 0.00010166
11850.0 9.8902e-05
11870.0 9.6396e-05
11890.0 9.4131e-05
11910.0 9.1926e-05
11930.0 8.9829e-05
11950.0 8.795e-05
11970.0 8.6155e-05
11990.0 8.4367e-05
12010.0 8.2721e-05
12030.0 8.1191e-05
12050.0 7.9668e-05
12070.0 7.817e-05
12090.0 7.6849e-05
12110.0 7.5571e-05
12130.0 7.4326e-05
12150.0 7.3212e-05
12170.0 7.225e-05
12190.0 7.1342e-05
12210.0 7.0613e-05
12230.0 7.0107e-05
12250.0 6.9795e-05
12270.0 6.9707e-05
12290.0 6.9891e-05
12310.0 7.0336e-05
12330.0 7.1059e-05
12350.0 7.2063e-05
12370.0 7.3299e-05
12390.0 7.4778e-05
12410.0 7.6537e-05
12430.0 7.8393e-05
12450.0 8.0347e-05
12470.0 8.2428e-05
12490.0 8.4535e-05
12510.0 8.655e-05
12530.0 8.8557e-05
12550.0 9.0506e-05
12570.0 9.2285e-05
12590.0 9.3914e-05
12610.0 9.5433e-05
12630.0 9.6777e-05
12650.0 9.7914e-05
12670.0 9.8913e-05
12690.0 9.9758e-05
12710.0 0.00010044
12730.0 0.00010099
12750.0 0.0001014
12770.0 0.00010168
12790.0 0.00010184
12810.0 0.00010188
12830.0 0.00010179
12850.0 0.00010162
12870.0 0.00010134
12890.0 0.00010093
12910.0 0.00010041
12930.0 9.9815e-05
12950.0 9.9069e-05
12970.0 9.8179e-05
12990.0 9.7243e-05
13010.0 9.62e-05
13030.0 9.5006e-05
13050.0 9.3742e-05
13070.0 9.2464e-05
13090.0 9.1055e-05
13110.0 8.9582e-05
13130.0 8.815e-05
13150.0 8.672e-05
13170.0 8.5236e-05
13190.0 8.3882e-05
13210.0 8.2672e-05
13230.0 8.1538e-05
13250.0 8.0547e-05
13270.0 7.9773e-05
13290.0 7.916e-05
13310.0 7.8706e-05
13330.0 7.8458e-05
13350.0 7.8376e-05
13370.0 7.8422e-05
13390.0 7.8576e-05
13410.0 7.8795e-05
13430.0 7.9032e-05
13450.0 7.9247e-05
13470.0 7.9397e-05
13490.0 7.9456e-05
13510.0 7.9375e-05
13530.0 7.9145e-05
13550.0 7.8779e-05
13570.0 7.8259e-05
13590.0 7.7576e-05
13610.0 7.6799e-05
13630.0 7.5958e-05
13650.0 7.5009e-05
13670.0 7.4028e-05
13690.0 7.3074e-05
13710.0 7.2115e-05
13730.0 7.1138e-05
13750.0 7.0265e-05
13770.0 6.9447e-05
13790.0 6.8653e-05
13810.0 6.7913e-05
13830.0 6.7247e-05
13850.0 6.6591e-05
13870.0 6.5947e-05
13890.0 6.5342e-05
13910.0 6.475e-05
13930.0 6.4137e-05
13950.0 6.3528e-05
13970.0 6.2951e-05
13990.0 6.2359e-05
14010.0 6.1768e-05
14030.0 6.1211e-05
14050.0 6.068e-05
14070.0 6.0156e-05
14090.0 5.9685e-05
14110.0 5.9271e-05
14130.0 5.8898e-05
14150.0 5.8576e-05
14170.0 5.8322e-05
14190.0 5.8123e-05
14210.0 5.7979e-05
14230.0 5.7895e-05
14250.0 5.7864e-05
14270.0 5.7893e-05
14290.0 5.7983e-05
14310.0 5.8114e-05
14330.0 5.8291e-05
14350.0 5.8523e-05
14370.0 5.8783e-05
14390.0 5.9055e-05
14410.0 5.9363e-05
14430.0 5.9681e-05
14450.0 5.9979e-05
14470.0 6.0269e-05
14490.0 6.0561e-05
14510.0 6.0812e-05
14530.0 6.1026e-05
14550.0 6.123e-05
14570.0 6.1419e-05
14590.0 6.1583e-05
14610.0 6.1756e-05
14630.0 6.1959e-05
14650.0 6.218e-05
14670.0 6.2436e-05
14690.0 6.277e-05
14710.0 6.3189e-05
14730.0 6.3652e-05
14750.0 6.4219e-05
14770.0 6.4906e-05
14790.0 6.5666e-05
14810.0 6.649e-05
14830.0 6.7472e-05
14850.0 6.8513e-05
14870.0 6.9555e-05
14890.0 7.0644e-05
14910.0 7.1759e-05
14930.0 7.2768e-05
14950.0 7.365e-05
14970.0 7.443e-05
14990.0 7.5004e-05
15010.0 7.5344e-05
15030.0 7.5494e-05
15050.0 7.5464e-05
15070.0 7.5264e-05
15090.0 7.4959e-05
15110.0 7.458e-05
15130.0 7.4155e-05
15150.0 7.371e-05
15170.0 7.3249e-05
15190.0 7.278e-05
15210.0 7.2312e-05
15230.0 7.1845e-05
15250.0 7.1372e-05
15270.0 7.0901e-05
15290.0 7.0437e-05
15310.0 6.9969e-05
15330.0 6.95e-05
15350.0 6.9036e-05
15370.0 6.8573e-05
15390.0 6.8105e-05
15410.0 6.7642e-05
15430.0 6.7183e-05
15450.0 6.6722e-05
15470.0 6.626e-05
15490.0 6.5805e-05
15510.0 6.5352e-05
15530.0 6.4896e-05
15550.0 6.4444e-05
15570.0 6.3997e-05
15590.0 6.3546e-05
15610.0 6.3097e-05
15630.0 6.2655e-05
15650.0 6.2214e-05
15670.0 6.1772e-05
15690.0 6.1334e-05
15710.0 6.0903e-05
15730.0 6.0468e-05
15750.0 6.0036e-05
15770.0 5.961e-05
15790.0 5.9185e-05
15810.0 5.8758e-05
15830.0 5.8338e-05
15850.0 5.7923e-05
15870.0 5.7507e-05
15890.0 5.7094e-05
15910.0 5.6687e-05
15930.0 5.6281e-05
15950.0 5.5874e-05
15970.0 5.5474e-05
15990.0 5.5078e-05
16010.0 5.4681e-05
16030.0 5.4286e-05
16050.0 5.39e-05
16070.0 5.3514e-05
16090.0 5.3129e-05
16110.0 5.275e-05
16130.0 5.2376e-05
16150.0 5.1998e-05
16170.0 5.1625e-05
16190.0 5.1259e-05
16210.0 5.0895e-05
16230.0 5.053e-05
16250.0 5.0173e-05
16270.0 4.9819e-05
16290.0 4.9465e-05
16310.0 4.9114e-05
16330.0 4.877e-05
16350.0 4.8427e-05
16370.0 4.8082e-05
16390.0 4.7747e-05
16410.0 4.7415e-05
16430.0 4.7082e-05
16450.0 4.6753e-05
16470.0 4.6432e-05
16490.0 4.6109e-05
16510.0 4.5788e-05
16530.0 4.5474e-05
16550.0 4.5162e-05
16570.0 4.485e-05
16590.0 4.4542e-05
16610.0 4.4241e-05
16630.0 4.394e-05
16650.0 4.3641e-05
16670.0 4.3348e-05
16690.0 4.3058e-05
16710.0 4.2765e-05
16730.0 4.2479e-05
16750.0 4.2198e-05
16770.0 4.1917e-05
16790.0 4.1637e-05
16810.0 4.1365e-05
16830.0 4.1094e-05
16850.0 4.0823e-05
16870.0 4.0557e-05
16890.0 4.0296e-05
16910.0 4.0033e-05
16930.0 3.9773e-05
16950.0 3.9519e-05
16970.0 3.9267e-05
16990.0 3.9015e-05
17010.0 3.8768e-05
17030.0 3.8526e-05
17050.0 3.8282e-05
17070.0 3.8041e-05
17090.0 3.7806e-05
17110.0 3.7572e-05
17130.0 3.7336e-05
17150.0 3.7107e-05
17170.0 3.6882e-05
17190.0 3.6656e-05
17210.0 3.6432e-05
17230.0 3.6215e-05
17250.0 3.5997e-05
17270.0 3.5779e-05
17290.0 3.5566e-05
17310.0 3.5357e-05
17330.0 3.5147e-05
17350.0 3.4938e-05
17370.0 3.4737e-05
17390.0 3.4536e-05
17410.0 3.4334e-05
17430.0 3.4137e-05
17450.0 3.3944e-05
17470.0 3.3747e-05
17490.0 3.3555e-05
17510.0 3.3367e-05
17530.0 3.318e-05
17550.0 3.2993e-05
17570.0 3.2811e-05
17590.0 3.2631e-05
17610.0 3.245e-05
17630.0 3.2272e-05
17650.0 3.2098e-05
17670.0 3.1924e-05
17690.0 3.1748e-05
17710.0 3.158e-05
17730.0 3.1413e-05
17750.0 3.1245e-05
17770.0 3.108e-05
17790.0 3.092e-05
17810.0 3.0757e-05
17830.0 3.0596e-05
17850.0 3.0439e-05
17870.0 3.0284e-05
17890.0 3.0127e-05
17910.0 2.9973e-05
17930.0 2.9824e-05
17950.0 2.9674e-05
17970.0 2.9524e-05
17990.0 2.9379e-05
18010.0 2.9236e-05
18030.0 2.9089e-05
18050.0 2.8946e-05
18070.0 2.8807e-05
18090.0 2.8667e-05
18110.0 2.8527e-05
18130.0 2.8393e-05
18150.0 2.8259e-05
18170.0 2.8123e-05
18190.0 2.7991e-05
18210.0 2.7863e-05
18230.0 2.7731e-05
18250.0 2.76e-05
18270.0 2.7475e-05
18290.0 2.735e-05
18310.0 2.7224e-05
18330.0 2.7101e-05
18350.0 2.6981e-05
18370.0 2.6859e-05
18390.0 2.6738e-05
18410.0 2.6621e-05
18430.0 2.6504e-05
18450.0 2.6385e-05
18470.0 2.627e-05
18490.0 2.6158e-05
18510.0 2.6044e-05
18530.0 2.5932e-05
18550.0 2.5824e-05
18570.0 2.5714e-05
18590.0 2.5603e-05
18610.0 2.5496e-05
18630.0 2.5391e-05
18650.0 2.5283e-05
18670.0 2.5177e-05
18690.0 2.5076e-05
18710.0 2.4974e-05
18730.0 2.4871e-05
18750.0 2.4771e-05
18770.0 2.4673e-05
18790.0 2.4571e-05
18810.0 2.4472e-05
18830.0 2.4377e-05
18850.0 2.428e-05
18870.0 2.4183e-05
18890.0 2.409e-05
18910.0 2.3998e-05
18930.0 2.3903e-05
18950.0 2.381e-05
18970.0 2.3721e-05
18990.0 2.363e-05
19010.0 2.3536e-05
19030.0 2.3449e-05
19050.0 2.3362e-05
19070.0 2.3273e-05
19090.0 2.3186e-05
19110.0 2.3103e-05
19130.0 2.3016e-05
19150.0 2.293e-05
19170.0 2.2847e-05
19190.0 2.2764e-05
19210.0 2.2679e-05
19230.0 2.2597e-05
19250.0 2.2518e-05
19270.0 2.2436e-05
19290.0 2.2355e-05
19310.0 2.2277e-05
19330.0 2.2199e-05
19350.0 2.2118e-05
19370.0 2.204e-05
19390.0 2.1964e-05
19410.0 2.1887e-05
19430.0 2.1809e-05
19450.0 2.1736e-05
19470.0 2.1661e-05
19490.0 2.1585e-05
19510.0 2.1511e-05
19530.0 2.144e-05
19550.0 2.1365e-05
19570.0 2.129e-05
19590.0 2.122e-05
19610.0 2.1149e-05
19630.0 2.1077e-05
19650.0 2.1007e-05
19670.0 2.0939e-05
19690.0 2.0867e-05
19710.0 2.0797e-05
19730.0 2.0729e-05
19750.0 2.0661e-05
19770.0 2.059e-05
19790.0 2.0523e-05
19810.0 2.0457e-05
19830.0 2.0389e-05
19850.0 2.032e-05
19870.0 2.0253e-05
19890.0 2.018e-05
19910.0 2.0097e-05
19930.0 2.0006e-05
19950.0 1.9899e-05
19970.0 1.9761e-05
19990.0 1.9592e-05
20010.0 1.9396e-05
20030.0 1.9156e-05
20050.0 1.8874e-05
20070.0 1.8572e-05
20090.0 1.8249e-05
20110.0 1.7888e-05
20130.0 1.7529e-05
20150.0 1.718e-05
20170.0 1.6822e-05
20190.0 1.6466e-05
20210.0 1.6135e-05
20230.0 1.5816e-05
20250.0 1.5501e-05
20270.0 1.5212e-05
20290.0 1.4954e-05
20310.0 1.4712e-05
20330.0 1.4492e-05
20350.0 1.4317e-05
20370.0 1.4169e-05
20390.0 1.405e-05
20410.0 1.3968e-05
20430.0 1.3921e-05
20450.0 1.3907e-05
20470.0 1.3928e-05
20490.0 1.3982e-05
20510.0 1.4067e-05
20530.0 1.4186e-05
20550.0 1.433e-05
20570.0 1.4493e-05
20590.0 1.4682e-05
20610.0 1.489e-05
20630.0 1.5102e-05
20650.0 1.5325e-05
20670.0 1.5563e-05
20690.0 1.579e-05
20710.0 1.6009e-05
20730.0 1.6224e-05
20750.0 1.6428e-05
20770.0 1.6607e-05
20790.0 1.6771e-05
20810.0 1.692e-05
20830.0 1.7043e-05
20850.0 1.7144e-05
20870.0 1.7227e-05
20890.0 1.7289e-05
20910.0 1.733e-05
20930.0 1.7354e-05
20950.0 1.7362e-05
20970.0 1.7355e-05
20990.0 1.7336e-05
21010.0 1.7303e-05
21030.0 1.726e-05
21050.0 1.7208e-05
21070.0 1.7146e-05
21090.0 1.7072e-05
21110.0 1.6996e-05
21130.0 1.6914e-05
21150.0 1.6823e-05
21170.0 1.673e-05
21190.0 1.6638e-05
21210.0 1.6542e-05
21230.0 1.6445e-05
21250.0 1.6356e-05
21270.0 1.6271e-05
21290.0 1.619e-05
21310.0 1.6118e-05
21330.0 1.606e-05
21350.0 1.601e-05
21370.0 1.5972e-05
21390.0 1.5948e-05
21410.0 1.5937e-05
21430.0 1.5939e-05
21450.0 1.5956e-05
21470.0 1.5986e-05
21490.0 1.6029e-05
21510.0 1.6086e-05
21530.0 1.6151e-05
21550.0 1.6227e-05
21570.0 1.6316e-05
21590.0 1.6412e-05
21610.0 1.6513e-05
21630.0 1.6625e-05
21650.0 1.6746e-05
21670.0 1.6866e-05
21690.0 1.6993e-05
21710.0 1.713e-05
21730.0 1.7268e-05
21750.0 1.7407e-05
21770.0 1.7559e-05
21790.0 1.7716e-05
21810.0 1.7872e-05
21830.0 1.8034e-05
21850.0 1.8206e-05
21870.0 1.8379e-05
21890.0 1.855e-05
21910.0 1.8732e-05
21930.0 1.8916e-05
21950.0 1.9096e-05
21970.0 1.9279e-05
21990.0 1.9469e-05
22010.0 1.9648e-05
22030.0 1.9821e-05
22050.0 1.9993e-05
22070.0 2.0157e-05
22090.0 2.0304e-05
22110.0 2.0441e-05
22130.0 2.0567e-05
22150.0 2.0671e-05
22170.0 2.0756e-05
22190.0 2.0822e-05
22210.0 2.0864e-05
22230.0 2.0879e-05
22250.0 2.087e-05
22270.0 2.0833e-05
22290.0 2.077e-05
22310.0 2.0681e-05
22330.0 2.056e-05
22350.0 2.0413e-05
22370.0 2.0245e-05
22390.0 2.0049e-05
22410.0 1.9823e-05
22430.0 1.9587e-05
22450.0 1.9334e-05
22470.0 1.9056e-05
22490.0 1.8768e-05
22510.0 1.8479e-05
22530.0 1.8171e-05
22550.0 1.7851e-05
22570.0 1.7544e-05
22590.0 1.7237e-05
22610.0 1.6922e-05
22630.0 1.6617e-05
