#lamb flux
1010.0 1.0127e-08
1030.0 1.3797e-08
1050.0 1.8809e-08
1070.0 2.5474e-08
1090.0 3.4275e-08
1110.0 4.5108e-08
1130.0 5.8021e-08
1150.0 7.344e-08
1170.0 9.1367e-08
1190.0 1.109e-07
1210.0 1.3232e-07
1230.0 1.5553e-07
1250.0 1.7942e-07
1270.0 2.0311e-07
1290.0 2.2701e-07
1310.0 2.4959e-07
1330.0 2.6936e-07
1350.0 2.8635e-07
1370.0 3.002e-07
1390.0 3.0953e-07
1410.0 3.1398e-07
1430.0 3.145e-07
1450.0 3.105e-07
1470.0 3.0184e-07
1490.0 2.8956e-07
1510.0 2.746e-07
1530.0 2.5641e-07
1550.0 2.3619e-07
1570.0 2.1503e-07
1590.0 1.9312e-07
1610.0 1.7079e-07
1630.0 1.4896e-07
1650.0 1.2787e-07
1670.0 1.0758e-07
1690.0 8.8434e-08
1710.0 7.068e-08
1730.0 5.4282e-08
1750.0 3.9221e-08
1770.0 2.5622e-08
1790.0 1.341e-08
1810.0 2.5217e-09
1830.0 1e-99
1850.0 1e-99
1870.0 1e-99
1890.0 1e-99
1910.0 1e-99
1930.0 1e-99
1950.0 1e-99
1970.0 1e-99
1990.0 1e-99
2010.0 1e-99
2030.0 1e-99
2050.0 1e-99
2070.0 1e-99
2090.0 1e-99
2110.0 1e-99
2130.0 1e-99
2150.0 1e-99
2170.0 1e-99
2190.0 1e-99
2210.0 1e-99
2230.0 1e-99
2250.0 1e-99
2270.0 4.9618e-09
2290.0 1.1919e-08
2310.0 1.9062e-08
2330.0 2.6353e-08
2350.0 3.3736e-08
2370.0 4.1128e-08
2390.0 4.8484e-08
2410.0 5.5768e-08
2430.0 6.2846e-08
2450.0 6.9627e-08
2470.0 7.6036e-08
2490.0 8.1946e-08
2510.0 8.7248e-08
2530.0 9.1986e-08
2550.0 9.6306e-08
2570.0 1.0057e-07
2590.0 1.053e-07
2610.0 1.1161e-07
2630.0 1.2066e-07
2650.0 1.3317e-07
2670.0 1.5062e-07
2690.0 1.7456e-07
2710.0 2.0374e-07
2730.0 2.3678e-07
2750.0 2.747e-07
2770.0 3.1307e-07
2790.0 3.4733e-07
2810.0 3.7706e-07
2830.0 4.0182e-07
2850.0 4.1648e-07
2870.0 4.2378e-07
2890.0 4.2602e-07
2910.0 4.2313e-07
2930.0 4.1517e-07
2950.0 4.0505e-07
2970.0 3.9291e-07
2990.0 3.7788e-07
3010.0 3.6102e-07
3030.0 3.4374e-07
3050.0 3.2559e-07
3070.0 3.057e-07
3090.0 2.8612e-07
3110.0 2.6691e-07
3130.0 2.4765e-07
3150.0 1.9898e-07
3170.0 1.5636e-07
3190.0 1.0893e-07
3210.0 6.0727e-08
3230.0 2.3339e-08
3250.0 4.8501e-08
3270.0 1.7249e-07
3290.0 2.0429e-07
3310.0 1e-99
3330.0 1e-99
3350.0 1e-99
3370.0 1e-99
3390.0 1e-99
3410.0 1e-99
3430.0 1e-99
3450.0 1e-99
3470.0 1e-99
3490.0 1e-99
3510.0 1e-99
3530.0 1e-99
3550.0 1e-99
3570.0 1e-99
3590.0 1.615e-07
3610.0 3.1002e-07
3630.0 7.9272e-07
3650.0 9.0884e-07
3670.0 6.5743e-07
3690.0 3.1352e-07
3710.0 8.8463e-08
3730.0 9.0812e-08
3750.0 1.1822e-07
3770.0 1.2169e-07
3790.0 1.1913e-07
3810.0 2.89e-07
3830.0 2.4211e-07
3850.0 7.8995e-08
3870.0 1e-99
3890.0 1.3417e-07
3910.0 2.5264e-07
3930.0 2.5948e-07
3950.0 3.1684e-07
3970.0 3.8059e-07
3990.0 3.288e-07
4010.0 4.183e-07
4030.0 3.9477e-07
4050.0 3.4607e-07
4070.0 3.0603e-07
4090.0 3.2552e-07
4110.0 3.8132e-07
4130.0 3.8769e-07
4150.0 3.551e-07
4170.0 3.3312e-07
4190.0 3.7674e-07
4210.0 3.2151e-07
4230.0 2.8193e-07
4250.0 2.1393e-07
4270.0 1.2625e-07
4290.0 1.4371e-07
4310.0 1.3582e-07
4330.0 1.2995e-07
4350.0 2.5251e-07
4370.0 2.5283e-07
4390.0 3.3731e-07
4410.0 3.8986e-07
4430.0 4.5653e-07
4450.0 3.8308e-07
4470.0 2.8155e-07
4490.0 2.6282e-07
4510.0 2.274e-07
4530.0 2.0187e-07
4550.0 1.7183e-07
4570.0 1.6313e-07
4590.0 1.6703e-07
4610.0 1.0133e-07
4630.0 6.1119e-08
4650.0 1.2238e-08
4670.0 1.3753e-08
4690.0 1e-99
4710.0 1e-99
4730.0 1e-99
4750.0 1e-99
4770.0 1e-99
4790.0 1e-99
4810.0 1e-99
4830.0 1e-99
4850.0 1e-99
4870.0 1e-99
4890.0 1e-99
4910.0 1e-99
4930.0 1e-99
4950.0 1e-99
4970.0 1e-99
4990.0 1e-99
5010.0 1e-99
5030.0 1e-99
5050.0 1e-99
5070.0 1e-99
5090.0 1e-99
5110.0 1e-99
5130.0 1e-99
5150.0 1e-99
5170.0 1e-99
5190.0 1e-99
5210.0 1e-99
5230.0 1e-99
5250.0 1e-99
5270.0 1e-99
5290.0 1e-99
5310.0 1e-99
5330.0 1e-99
5350.0 1e-99
5370.0 1e-99
5390.0 1e-99
5410.0 1e-99
5430.0 1e-99
5450.0 1e-99
5470.0 1e-99
5490.0 1e-99
5510.0 1e-99
5530.0 1e-99
5550.0 1e-99
5570.0 4.0771e-09
5590.0 5.0504e-08
5610.0 5.4336e-08
5630.0 3.6111e-08
5650.0 4.262e-08
5670.0 4.3348e-08
5690.0 6.1615e-08
5710.0 2.9389e-08
5730.0 4.6339e-08
5750.0 5.1591e-08
5770.0 4.3018e-08
5790.0 9.2089e-08
5810.0 1.2931e-07
5830.0 1.0368e-07
5850.0 3.9821e-08
5870.0 8.3313e-09
5890.0 5.1242e-09
5910.0 4.0635e-08
5930.0 2.7469e-08
5950.0 4.4386e-08
5970.0 4.7795e-08
5990.0 6.787e-08
6010.0 5.9436e-08
6030.0 7.0304e-08
6050.0 6.6331e-08
6070.0 3.5429e-08
6090.0 5.5937e-08
6110.0 6.8843e-08
6130.0 5.4434e-08
6150.0 6.0158e-08
6170.0 7.0856e-08
6190.0 2.0878e-08
6210.0 2.9341e-08
6230.0 4.5942e-08
6250.0 4.4776e-08
6270.0 4.4357e-08
6290.0 6.4955e-08
6310.0 9.1342e-08
6330.0 9.6508e-08
6350.0 9.1196e-08
6370.0 1.0098e-07
6390.0 7.2171e-08
6410.0 8.3779e-08
6430.0 7.0309e-08
6450.0 7.8783e-08
6470.0 8.7845e-08
6490.0 9.3666e-08
6510.0 6.7604e-08
6530.0 7.4527e-08
6550.0 7.3696e-08
6570.0 5.8683e-08
6590.0 7.486e-08
6610.0 7.684e-08
6630.0 8.04e-08
6650.0 6.6709e-08
6670.0 5.8232e-08
6690.0 5.3336e-08
6710.0 4.6711e-08
6730.0 4.1094e-08
6750.0 4.1354e-08
6770.0 2.1582e-08
6790.0 1e-99
6810.0 1e-99
6830.0 2.5002e-08
6850.0 1.0395e-08
6870.0 1.0997e-08
6890.0 8.6776e-09
6910.0 7.4236e-09
6930.0 1.0997e-09
6950.0 1.2487e-08
6970.0 1.1348e-08
6990.0 1.1388e-08
7010.0 9.2556e-09
7030.0 1.9433e-08
7050.0 2.0168e-08
7070.0 1e-99
7090.0 1e-99
7110.0 1e-99
7130.0 1e-99
7150.0 1e-99
7170.0 1e-99
7190.0 1e-99
7210.0 1e-99
7230.0 3.2494e-09
7250.0 3.9504e-10
7270.0 3.4184e-09
7290.0 1.335e-08
7310.0 1e-99
7330.0 1e-99
7350.0 1e-99
7370.0 4.2197e-09
7390.0 2.6221e-08
7410.0 1e-99
7430.0 1e-99
7450.0 1e-99
7470.0 1.5923e-08
7490.0 2.1299e-08
7510.0 5.5367e-09
7530.0 1.7343e-08
7550.0 1e-99
7570.0 1e-99
7590.0 1e-99
7610.0 1.3853e-08
7630.0 1e-99
7650.0 9.8062e-09
7670.0 1e-99
7690.0 1e-99
7710.0 1e-99
7730.0 1e-99
7750.0 1e-99
7770.0 1e-99
7790.0 8.0369e-09
7810.0 1e-99
7830.0 3.6493e-10
7850.0 1e-99
7870.0 1e-99
7890.0 1e-99
7910.0 1e-99
7930.0 1e-99
7950.0 1e-99
7970.0 1e-99
7990.0 1e-99
8010.0 1e-99
8030.0 1e-99
8050.0 1e-99
8070.0 1e-99
8090.0 1e-99
8110.0 1e-99
8130.0 1e-99
8150.0 1e-99
8170.0 1e-99
8190.0 1e-99
8210.0 1e-99
8230.0 1e-99
8250.0 1e-99
8270.0 1e-99
8290.0 1e-99
8310.0 1e-99
8330.0 1e-99
8350.0 1e-99
8370.0 1e-99
8390.0 1e-99
8410.0 1e-99
8430.0 1e-99
8450.0 1e-99
8470.0 1e-99
8490.0 1e-99
8510.0 1e-99
8530.0 1e-99
8550.0 1e-99
8570.0 1e-99
8590.0 1e-99
8610.0 1e-99
8630.0 1e-99
8650.0 1e-99
8670.0 1e-99
8690.0 1e-99
8710.0 1e-99
8730.0 1e-99
8750.0 1e-99
8770.0 1e-99
8790.0 1e-99
8810.0 1e-99
8830.0 1e-99
8850.0 1e-99
8870.0 1e-99
8890.0 1e-99
8910.0 1e-99
8930.0 1e-99
8950.0 1e-99
8970.0 1e-99
8990.0 1e-99
9010.0 1e-99
9030.0 1e-99
9050.0 1e-99
9070.0 1e-99
9090.0 1e-99
9110.0 1e-99
9130.0 1e-99
9150.0 1e-99
9170.0 1e-99
9190.0 1e-99
9210.0 1e-99
9230.0 1e-99
9250.0 1e-99
9270.0 1e-99
9290.0 1e-99
9310.0 1e-99
9330.0 1e-99
9350.0 1e-99
9370.0 1e-99
9390.0 1e-99
9410.0 1e-99
9430.0 1e-99
9450.0 1e-99
9470.0 1e-99
9490.0 1e-99
9510.0 1e-99
9530.0 1e-99
9550.0 1e-99
9570.0 1e-99
9590.0 1e-99
9610.0 1e-99
9630.0 1e-99
9650.0 1e-99
9670.0 1e-99
9690.0 1e-99
9710.0 1e-99
9730.0 1e-99
9750.0 1e-99
9770.0 1e-99
9790.0 1e-99
9810.0 1e-99
9830.0 1e-99
9850.0 1e-99
9870.0 1e-99
9890.0 1e-99
9910.0 1e-99
9930.0 1e-99
9950.0 1e-99
9970.0 1e-99
9990.0 1e-99
10010.0 1e-99
10030.0 1e-99
10050.0 1e-99
10070.0 1e-99
10090.0 1e-99
10110.0 1e-99
10130.0 1e-99
10150.0 1e-99
10170.0 1e-99
10190.0 1e-99
10210.0 1e-99
10230.0 1e-99
10250.0 1e-99
10270.0 1e-99
10290.0 1e-99
10310.0 1e-99
10330.0 1e-99
10350.0 1e-99
10370.0 1e-99
10390.0 1e-99
10410.0 1e-99
10430.0 1e-99
10450.0 1e-99
10470.0 1e-99
10490.0 1e-99
10510.0 1e-99
10530.0 1e-99
10550.0 1e-99
10570.0 1e-99
10590.0 1e-99
10610.0 1e-99
10630.0 1e-99
10650.0 1e-99
10670.0 1e-99
10690.0 1e-99
10710.0 1e-99
10730.0 1e-99
10750.0 1e-99
10770.0 1e-99
10790.0 1e-99
10810.0 1e-99
10830.0 1e-99
10850.0 1e-99
10870.0 1e-99
10890.0 1e-99
10910.0 1e-99
10930.0 1e-99
10950.0 1e-99
10970.0 1e-99
10990.0 1e-99
11010.0 3.9177e-08
11030.0 3.8943e-08
11050.0 3.8609e-08
11070.0 3.8193e-08
11090.0 3.7708e-08
11110.0 3.718e-08
11130.0 3.6625e-08
11150.0 3.6046e-08
11170.0 3.5455e-08
11190.0 3.4866e-08
11210.0 3.4268e-08
11230.0 3.3663e-08
11250.0 3.3065e-08
11270.0 3.2472e-08
11290.0 3.1875e-08
11310.0 3.1285e-08
11330.0 3.0714e-08
11350.0 3.0149e-08
11370.0 2.9592e-08
11390.0 2.9054e-08
11410.0 2.853e-08
11430.0 2.8013e-08
11450.0 2.7512e-08
11470.0 2.7027e-08
11490.0 2.655e-08
11510.0 2.6081e-08
11530.0 2.5624e-08
11550.0 2.5174e-08
11570.0 2.4728e-08
11590.0 2.4287e-08
11610.0 2.3852e-08
11630.0 2.3417e-08
11650.0 2.2982e-08
11670.0 2.2551e-08
11690.0 2.212e-08
11710.0 2.1686e-08
11730.0 2.125e-08
11750.0 2.0817e-08
11770.0 2.0378e-08
11790.0 1.9936e-08
11810.0 1.9497e-08
11830.0 1.9057e-08
11850.0 1.8613e-08
11870.0 1.8174e-08
11890.0 1.7744e-08
11910.0 1.7316e-08
11930.0 1.6896e-08
11950.0 1.649e-08
11970.0 1.6095e-08
11990.0 1.5711e-08
12010.0 1.5345e-08
12030.0 1.4997e-08
12050.0 1.4666e-08
12070.0 1.4354e-08
12090.0 1.4064e-08
12110.0 1.3793e-08
12130.0 1.3542e-08
12150.0 1.331e-08
12170.0 1.3095e-08
12190.0 1.2902e-08
12210.0 1.2725e-08
12230.0 1.2559e-08
12250.0 1.2407e-08
12270.0 1.2269e-08
12290.0 1.2138e-08
12310.0 1.201e-08
12330.0 1.1893e-08
12350.0 1.1779e-08
12370.0 1.1662e-08
12390.0 1.1547e-08
12410.0 1.1435e-08
12430.0 1.1314e-08
12450.0 1.1188e-08
12470.0 1.1058e-08
12490.0 1.0919e-08
12510.0 1.077e-08
12530.0 1.0614e-08
12550.0 1.0447e-08
12570.0 1.0269e-08
12590.0 1.008e-08
12610.0 9.879e-09
12630.0 9.6661e-09
12650.0 9.4453e-09
12670.0 9.2132e-09
12690.0 8.9695e-09
12710.0 8.7201e-09
12730.0 8.4648e-09
12750.0 8.1958e-09
12770.0 7.9236e-09
12790.0 7.6512e-09
12810.0 7.3724e-09
12830.0 7.0872e-09
12850.0 6.809e-09
12870.0 6.5327e-09
12890.0 6.2529e-09
12910.0 5.9798e-09
12930.0 5.7181e-09
12950.0 5.4582e-09
12970.0 5.2054e-09
12990.0 4.9724e-09
13010.0 4.7526e-09
13030.0 4.5445e-09
13050.0 4.3559e-09
13070.0 4.1893e-09
13090.0 4.0383e-09
13110.0 3.9075e-09
13130.0 3.7994e-09
13150.0 3.7114e-09
13170.0 3.644e-09
13190.0 3.5983e-09
13210.0 3.5721e-09
13230.0 3.5662e-09
13250.0 3.5803e-09
13270.0 3.6095e-09
13290.0 3.656e-09
13310.0 3.7214e-09
13330.0 3.7972e-09
13350.0 3.8813e-09
13370.0 3.9772e-09
13390.0 4.0807e-09
13410.0 4.1794e-09
13430.0 4.2804e-09
13450.0 4.3825e-09
13470.0 4.4779e-09
13490.0 4.566e-09
13510.0 4.6542e-09
13530.0 4.7351e-09
13550.0 4.8077e-09
13570.0 4.8767e-09
13590.0 4.9433e-09
13610.0 5.0044e-09
13630.0 5.0613e-09
13650.0 5.1168e-09
13670.0 5.1684e-09
13690.0 5.2145e-09
13710.0 5.2561e-09
13730.0 5.2915e-09
13750.0 5.3183e-09
13770.0 5.3367e-09
13790.0 5.345e-09
13810.0 5.3426e-09
13830.0 5.3317e-09
13850.0 5.3092e-09
13870.0 5.2754e-09
13890.0 5.2353e-09
13910.0 5.1892e-09
13930.0 5.1337e-09
13950.0 5.0747e-09
13970.0 5.0194e-09
13990.0 4.961e-09
14010.0 4.9024e-09
14030.0 4.8504e-09
14050.0 4.803e-09
14070.0 4.7551e-09
14090.0 4.7154e-09
14110.0 4.6838e-09
14130.0 4.6555e-09
14150.0 4.6307e-09
14170.0 4.6146e-09
14190.0 4.6028e-09
14210.0 4.5923e-09
14230.0 4.5866e-09
14250.0 4.586e-09
14270.0 4.5857e-09
14290.0 4.5872e-09
14310.0 4.5948e-09
14330.0 4.6051e-09
14350.0 4.6169e-09
14370.0 4.6335e-09
14390.0 4.6557e-09
14410.0 4.6799e-09
14430.0 4.7083e-09
14450.0 4.7425e-09
14470.0 4.7805e-09
14490.0 4.8209e-09
14510.0 4.8661e-09
14530.0 4.9149e-09
14550.0 4.9652e-09
14570.0 5.0172e-09
14590.0 5.0714e-09
14610.0 5.126e-09
14630.0 5.1802e-09
14650.0 5.2351e-09
14670.0 5.2902e-09
14690.0 5.3441e-09
14710.0 5.3969e-09
14730.0 5.4502e-09
14750.0 5.502e-09
14770.0 5.5516e-09
14790.0 5.6002e-09
14810.0 5.6477e-09
14830.0 5.6909e-09
14850.0 5.7321e-09
14870.0 5.7722e-09
14890.0 5.8096e-09
14910.0 5.844e-09
14930.0 5.8789e-09
14950.0 5.9147e-09
14970.0 5.9498e-09
14990.0 5.9876e-09
15010.0 6.0292e-09
15030.0 6.0733e-09
15050.0 6.1191e-09
15070.0 6.1688e-09
15090.0 6.2201e-09
15110.0 6.2715e-09
15130.0 6.3232e-09
15150.0 6.3753e-09
15170.0 6.4263e-09
15190.0 6.4761e-09
15210.0 6.5257e-09
15230.0 6.5745e-09
15250.0 6.6215e-09
15270.0 6.6677e-09
15290.0 6.7137e-09
15310.0 6.7581e-09
15330.0 6.8011e-09
15350.0 6.8436e-09
15370.0 6.8851e-09
15390.0 6.9243e-09
15410.0 6.9629e-09
15430.0 7.0008e-09
15450.0 7.037e-09
15470.0 7.0715e-09
15490.0 7.1057e-09
15510.0 7.1386e-09
15530.0 7.1694e-09
15550.0 7.1993e-09
15570.0 7.2284e-09
15590.0 7.2554e-09
15610.0 7.2806e-09
15630.0 7.3056e-09
15650.0 7.329e-09
15670.0 7.3504e-09
15690.0 7.3709e-09
15710.0 7.3906e-09
15730.0 7.408e-09
15750.0 7.4239e-09
15770.0 7.4392e-09
15790.0 7.4529e-09
15810.0 7.4642e-09
15830.0 7.4749e-09
15850.0 7.4848e-09
15870.0 7.4925e-09
15890.0 7.4988e-09
15910.0 7.5045e-09
15930.0 7.5084e-09
15950.0 7.5101e-09
15970.0 7.5112e-09
15990.0 7.5113e-09
16010.0 7.5093e-09
16030.0 7.5057e-09
16050.0 7.502e-09
16070.0 7.4964e-09
16090.0 7.489e-09
16110.0 7.4809e-09
16130.0 7.4719e-09
16150.0 7.4603e-09
16170.0 7.4478e-09
16190.0 7.4349e-09
16210.0 7.4203e-09
16230.0 7.4039e-09
16250.0 7.3871e-09
16270.0 7.3695e-09
16290.0 7.3497e-09
16310.0 7.3289e-09
16330.0 7.3078e-09
16350.0 7.285e-09
16370.0 7.2601e-09
16390.0 7.2355e-09
16410.0 7.2098e-09
16430.0 7.1824e-09
16450.0 7.1541e-09
16470.0 7.1258e-09
16490.0 7.0955e-09
16510.0 7.0639e-09
16530.0 7.0322e-09
16550.0 6.9996e-09
16570.0 6.9652e-09
16590.0 6.9302e-09
16610.0 6.8953e-09
16630.0 6.8588e-09
16650.0 6.8213e-09
16670.0 6.7837e-09
16690.0 6.7453e-09
16710.0 6.705e-09
16730.0 6.6647e-09
16750.0 6.6242e-09
16770.0 6.5823e-09
16790.0 6.5395e-09
16810.0 6.497e-09
16830.0 6.4537e-09
16850.0 6.4091e-09
16870.0 6.3644e-09
16890.0 6.3196e-09
16910.0 6.2734e-09
16930.0 6.2264e-09
16950.0 6.1799e-09
16970.0 6.1328e-09
16990.0 6.0845e-09
17010.0 6.0364e-09
17030.0 5.9883e-09
17050.0 5.9389e-09
17070.0 5.8892e-09
17090.0 5.8398e-09
17110.0 5.7898e-09
17130.0 5.7386e-09
17150.0 5.6879e-09
17170.0 5.6374e-09
17190.0 5.5859e-09
17210.0 5.5342e-09
17230.0 5.4829e-09
17250.0 5.431e-09
17270.0 5.3783e-09
17290.0 5.3261e-09
17310.0 5.2739e-09
17330.0 5.221e-09
17350.0 5.1678e-09
17370.0 5.1156e-09
17390.0 5.0627e-09
17410.0 5.0094e-09
17430.0 4.9565e-09
17450.0 4.9039e-09
17470.0 4.8501e-09
17490.0 4.7967e-09
17510.0 4.744e-09
17530.0 4.6908e-09
17550.0 4.6373e-09
17570.0 4.5845e-09
17590.0 4.5319e-09
17610.0 4.4786e-09
17630.0 4.4257e-09
17650.0 4.3733e-09
17670.0 4.3206e-09
17690.0 4.2674e-09
17710.0 4.2154e-09
17730.0 4.1634e-09
17750.0 4.111e-09
17770.0 4.059e-09
17790.0 4.0078e-09
17810.0 3.956e-09
17830.0 3.9043e-09
17850.0 3.8534e-09
17870.0 3.8027e-09
17890.0 3.7515e-09
17910.0 3.7009e-09
17930.0 3.6512e-09
17950.0 3.6011e-09
17970.0 3.5512e-09
17990.0 3.502e-09
18010.0 3.4531e-09
18030.0 3.4037e-09
18050.0 3.3551e-09
18070.0 3.3071e-09
18090.0 3.259e-09
18110.0 3.2111e-09
18130.0 3.1641e-09
18150.0 3.1172e-09
18170.0 3.0703e-09
18190.0 3.024e-09
18210.0 2.9784e-09
18230.0 2.9325e-09
18250.0 2.8869e-09
18270.0 2.8423e-09
18290.0 2.7978e-09
18310.0 2.7534e-09
18330.0 2.7097e-09
18350.0 2.6667e-09
18370.0 2.6234e-09
18390.0 2.5806e-09
18410.0 2.5386e-09
18430.0 2.4968e-09
18450.0 2.455e-09
18470.0 2.414e-09
18490.0 2.3737e-09
18510.0 2.3333e-09
18530.0 2.2934e-09
18550.0 2.2543e-09
18570.0 2.2153e-09
18590.0 2.1764e-09
18610.0 2.1384e-09
18630.0 2.1009e-09
18650.0 2.0634e-09
18670.0 2.0263e-09
18690.0 1.9902e-09
18710.0 1.9542e-09
18730.0 1.9184e-09
18750.0 1.8834e-09
18770.0 1.8489e-09
18790.0 1.8142e-09
18810.0 1.7802e-09
18830.0 1.747e-09
18850.0 1.714e-09
18870.0 1.6812e-09
18890.0 1.6492e-09
18910.0 1.6176e-09
18930.0 1.5861e-09
18950.0 1.5552e-09
18970.0 1.525e-09
18990.0 1.4949e-09
19010.0 1.4649e-09
19030.0 1.4359e-09
19050.0 1.4073e-09
19070.0 1.3788e-09
19090.0 1.3509e-09
19110.0 1.3236e-09
19130.0 1.2964e-09
19150.0 1.2695e-09
19170.0 1.2434e-09
19190.0 1.2175e-09
19210.0 1.1919e-09
19230.0 1.1667e-09
19250.0 1.1423e-09
19270.0 1.1179e-09
19290.0 1.0939e-09
19310.0 1.0706e-09
19330.0 1.0475e-09
19350.0 1.0245e-09
19370.0 1.0021e-09
19390.0 9.8027e-10
19410.0 9.5856e-10
19430.0 9.3716e-10
19450.0 9.1643e-10
19470.0 8.9594e-10
19490.0 8.756e-10
19510.0 8.5577e-10
19530.0 8.3641e-10
19550.0 8.171e-10
19570.0 7.9811e-10
19590.0 7.7975e-10
19610.0 7.616e-10
19630.0 7.4361e-10
19650.0 7.2611e-10
19670.0 7.0903e-10
19690.0 6.9196e-10
19710.0 6.7524e-10
19730.0 6.59e-10
19750.0 6.4295e-10
19770.0 6.2696e-10
19790.0 6.1151e-10
19810.0 5.9639e-10
19830.0 5.8133e-10
19850.0 5.6655e-10
19870.0 5.522e-10
19890.0 5.3787e-10
19910.0 5.2359e-10
19930.0 5.0966e-10
19950.0 4.9586e-10
19970.0 4.8197e-10
19990.0 4.6823e-10
20010.0 4.5498e-10
20030.0 4.4192e-10
20050.0 4.2939e-10
20070.0 4.1784e-10
20090.0 4.0736e-10
20110.0 3.9803e-10
20130.0 3.9023e-10
20150.0 3.8387e-10
20170.0 3.7897e-10
20190.0 3.7556e-10
20210.0 3.7327e-10
20230.0 3.7206e-10
20250.0 3.7212e-10
20270.0 3.7286e-10
20290.0 3.74e-10
20310.0 3.7582e-10
20330.0 3.7823e-10
20350.0 3.8016e-10
20370.0 3.8218e-10
20390.0 3.8433e-10
20410.0 3.8611e-10
20430.0 3.8735e-10
20450.0 3.887e-10
20470.0 3.8971e-10
20490.0 3.9013e-10
20510.0 3.903e-10
20530.0 3.9046e-10
20550.0 3.9022e-10
20570.0 3.8958e-10
20590.0 3.8905e-10
20610.0 3.8844e-10
20630.0 3.8754e-10
20650.0 3.8665e-10
20670.0 3.8605e-10
20690.0 3.8511e-10
20710.0 3.8402e-10
20730.0 3.8306e-10
20750.0 3.8203e-10
20770.0 3.8053e-10
20790.0 3.7895e-10
20810.0 3.773e-10
20830.0 3.7513e-10
20850.0 3.7246e-10
20870.0 3.696e-10
20890.0 3.662e-10
20910.0 3.6192e-10
20930.0 3.5712e-10
20950.0 3.5175e-10
20970.0 3.4551e-10
20990.0 3.3847e-10
21010.0 3.3088e-10
21030.0 3.2246e-10
21050.0 3.1319e-10
21070.0 3.0324e-10
21090.0 2.9264e-10
21110.0 2.8122e-10
21130.0 2.6911e-10
21150.0 2.5638e-10
21170.0 2.4297e-10
21190.0 2.2886e-10
21210.0 2.1413e-10
21230.0 1.9873e-10
21250.0 1.8261e-10
21270.0 1.6577e-10
21290.0 1.4818e-10
21310.0 1.298e-10
21330.0 1.1062e-10
21350.0 9.0595e-11
21370.0 7.0091e-11
21390.0 8.5204e-11
21410.0 1.0075e-10
21430.0 1.1732e-10
21450.0 1.3409e-10
21470.0 1.5107e-10
21490.0 1.6879e-10
21510.0 1.8712e-10
21530.0 2.0547e-10
21550.0 2.243e-10
21570.0 2.4395e-10
21590.0 2.6374e-10
21610.0 2.8365e-10
21630.0 3.0423e-10
21650.0 3.255e-10
21670.0 3.4635e-10
21690.0 3.677e-10
21710.0 3.897e-10
21730.0 4.118e-10
21750.0 4.3386e-10
21770.0 4.569e-10
21790.0 4.8019e-10
21810.0 5.034e-10
21830.0 5.2705e-10
21850.0 5.5143e-10
21870.0 5.758e-10
21890.0 6.0012e-10
21910.0 6.252e-10
21930.0 6.5055e-10
21950.0 6.7575e-10
21970.0 7.0133e-10
21990.0 7.2763e-10
22010.0 7.5353e-10
22030.0 7.7941e-10
22050.0 8.0569e-10
22070.0 8.2192e-10
22090.0 8.1968e-10
22110.0 8.1738e-10
22130.0 8.1501e-10
22150.0 8.1253e-10
22170.0 8.0996e-10
22190.0 8.0735e-10
22210.0 8.0466e-10
22230.0 8.0186e-10
22250.0 7.9901e-10
22270.0 7.9612e-10
22290.0 7.9315e-10
22310.0 7.9012e-10
22330.0 7.8709e-10
22350.0 7.8401e-10
22370.0 7.8087e-10
22390.0 7.7772e-10
22410.0 7.7458e-10
22430.0 7.7135e-10
22450.0 7.681e-10
22470.0 7.6485e-10
22490.0 7.6156e-10
22510.0 7.5819e-10
22530.0 7.5483e-10
22550.0 7.5144e-10
22570.0 7.4795e-10
22590.0 7.4438e-10
22610.0 7.408e-10
22630.0 7.3711e-10
22650.0 7.3326e-10
22670.0 7.2937e-10
22690.0 7.2538e-10
22710.0 7.2122e-10
22730.0 7.1693e-10
22750.0 7.1257e-10
22770.0 7.0801e-10
22790.0 7.0326e-10
22810.0 6.9838e-10
22830.0 6.9335e-10
22850.0 6.881e-10
22870.0 6.8269e-10
22890.0 6.7714e-10
22910.0 6.7138e-10
22930.0 6.6543e-10
22950.0 6.5931e-10
22970.0 6.5302e-10
22990.0 6.4648e-10
23010.0 6.3977e-10
23030.0 6.3286e-10
23050.0 6.2572e-10
23070.0 6.1834e-10
23090.0 6.1074e-10
23110.0 6.1086e-10
23130.0 6.1146e-10
23150.0 6.1196e-10
23170.0 6.1235e-10
23190.0 6.126e-10
23210.0 6.1272e-10
23230.0 6.1267e-10
23250.0 6.1247e-10
23270.0 6.1213e-10
23290.0 6.1163e-10
23310.0 6.1094e-10
23330.0 6.1018e-10
23350.0 6.0934e-10
23370.0 6.0839e-10
23390.0 6.0739e-10
23410.0 6.0645e-10
23430.0 6.0548e-10
23450.0 6.0453e-10
23470.0 6.037e-10
23490.0 6.0297e-10
23510.0 6.0229e-10
23530.0 6.0173e-10
23550.0 6.0134e-10
23570.0 6.0103e-10
23590.0 6.0081e-10
23610.0 6.0069e-10
23630.0 6.0065e-10
23650.0 6.0062e-10
23670.0 6.0064e-10
23690.0 6.0069e-10
23710.0 6.0072e-10
23730.0 6.0072e-10
23750.0 6.0072e-10
23770.0 6.0069e-10
23790.0 6.0058e-10
23810.0 6.0043e-10
23830.0 6.0026e-10
23850.0 6e-10
23870.0 5.9967e-10
23890.0 5.9934e-10
23910.0 5.9899e-10
23930.0 5.9854e-10
23950.0 5.981e-10
23970.0 5.9773e-10
23990.0 5.9735e-10
24010.0 5.9703e-10
