#lamb flux
1010.0 4.1431e-06
1030.0 4.5656e-06
1050.0 5.0515e-06
1070.0 5.5985e-06
1090.0 6.2199e-06
1110.0 6.8572e-06
1130.0 7.4986e-06
1150.0 8.1705e-06
1170.0 8.8636e-06
1190.0 9.5208e-06
1210.0 1.0187e-05
1230.0 1.0875e-05
1250.0 1.155e-05
1270.0 1.2205e-05
1290.0 1.2897e-05
1310.0 1.3588e-05
1330.0 1.4251e-05
1350.0 1.4922e-05
1370.0 1.5614e-05
1390.0 1.6289e-05
1410.0 1.6944e-05
1430.0 1.7629e-05
1450.0 1.8313e-05
1470.0 1.8975e-05
1490.0 1.9644e-05
1510.0 2.035e-05
1530.0 2.1019e-05
1550.0 2.1679e-05
1570.0 2.2361e-05
1590.0 2.3044e-05
1610.0 2.3696e-05
1630.0 2.4369e-05
1650.0 2.5058e-05
1670.0 2.5725e-05
1690.0 2.6382e-05
1710.0 2.7065e-05
1730.0 2.775e-05
1750.0 2.8394e-05
1770.0 2.9056e-05
1790.0 2.973e-05
1810.0 3.0381e-05
1830.0 3.1018e-05
1850.0 3.1694e-05
1870.0 3.235e-05
1890.0 3.2981e-05
1910.0 3.3622e-05
1930.0 3.4276e-05
1950.0 3.4894e-05
1970.0 3.5501e-05
1990.0 3.6128e-05
2010.0 3.6738e-05
2030.0 3.7318e-05
2050.0 3.7911e-05
2070.0 3.8513e-05
2090.0 3.9067e-05
2110.0 3.9611e-05
2130.0 4.0164e-05
2150.0 4.0694e-05
2170.0 4.1183e-05
2190.0 4.1683e-05
2210.0 4.2173e-05
2230.0 4.2622e-05
2250.0 4.3053e-05
2270.0 4.3494e-05
2290.0 4.3898e-05
2310.0 4.4257e-05
2330.0 4.4617e-05
2350.0 4.4964e-05
2370.0 4.5269e-05
2390.0 4.557e-05
2410.0 4.5902e-05
2430.0 4.6233e-05
2450.0 4.659e-05
2470.0 4.7048e-05
2490.0 4.7665e-05
2510.0 4.8448e-05
2530.0 4.9632e-05
2550.0 5.1564e-05
2570.0 5.4526e-05
2590.0 5.8852e-05
2610.0 6.5546e-05
2630.0 7.464e-05
2650.0 8.5457e-05
2670.0 9.7973e-05
2690.0 0.00011154
2710.0 0.00012415
2730.0 0.00013496
2750.0 0.00014421
2770.0 0.00015102
2790.0 0.00015552
2810.0 0.00015854
2830.0 0.00016065
2850.0 0.00016188
2870.0 0.00016278
2890.0 0.00016365
2910.0 0.00016446
2930.0 0.00016512
2950.0 0.00016587
2970.0 0.00016669
2990.0 0.00016738
3010.0 0.0019636
3030.0 0.0019722
3050.0 0.0019803
3070.0 0.0019852
3090.0 0.0019886
3110.0 0.0019879
3130.0 0.0019799
3150.0 0.0019632
3170.0 0.0019359
3190.0 0.0018984
3210.0 0.0018552
3230.0 0.0018111
3250.0 0.0017759
3270.0 0.0017542
3290.0 0.0017553
3310.0 0.001775
3330.0 0.00182
3350.0 0.001883
3370.0 0.0019653
3390.0 0.0020635
3410.0 0.0021666
3430.0 0.0022787
3450.0 0.0024026
3470.0 0.0025321
3490.0 0.0026636
3510.0 0.0028069
3530.0 0.0029559
3550.0 0.0031014
3570.0 0.0032499
3590.0 0.0034131
3610.0 0.0035728
3630.0 0.0037373
3650.0 0.0039005
3670.0 0.0040496
3690.0 0.004164
3710.0 0.0042409
3730.0 0.0042819
3750.0 0.0042951
3770.0 0.0040015
3790.0 0.0037138
3810.0 0.0032627
3830.0 0.002439
3850.0 0.0017762
3870.0 0.0017382
3890.0 0.0021827
3910.0 0.0033914
3930.0 0.0045106
3950.0 0.0050878
3970.0 0.0053423
3990.0 0.0057038
4010.0 0.0063166
4030.0 0.0063107
4050.0 0.0059394
4070.0 0.0055118
4090.0 0.0052758
4110.0 0.0056625
4130.0 0.0058201
4150.0 0.0058256
4170.0 0.0059874
4190.0 0.0059882
4210.0 0.0061179
4230.0 0.0066166
4250.0 0.0072341
4270.0 0.0075406
4290.0 0.0074691
4310.0 0.0076095
4330.0 0.0081327
4350.0 0.0094219
4370.0 0.010594
4390.0 0.0099549
4410.0 0.008196
4430.0 0.0070139
4450.0 0.0059349
4470.0 0.0054942
4490.0 0.0062054
4510.0 0.0073707
4530.0 0.0081549
4550.0 0.0090041
4570.0 0.010527
4590.0 0.012901
4610.0 0.016941
4630.0 0.020439
4650.0 0.020702
4670.0 0.020531
4690.0 0.021791
4710.0 0.022003
4730.0 0.018296
4750.0 0.013802
4770.0 0.011184
4790.0 0.010824
4810.0 0.010287
4830.0 0.010258
4850.0 0.012101
4870.0 0.015051
4890.0 0.016141
4910.0 0.013989
4930.0 0.01318
4950.0 0.015291
4970.0 0.020132
4990.0 0.024647
5010.0 0.025211
5030.0 0.020218
5050.0 0.013817
5070.0 0.010166
5090.0 0.0087749
5110.0 0.0086577
5130.0 0.0093861
5150.0 0.0097207
5170.0 0.0095922
5190.0 0.0095188
5210.0 0.0093029
5230.0 0.0097733
5250.0 0.010677
5270.0 0.012216
5290.0 0.014128
5310.0 0.015372
5330.0 0.015877
5350.0 0.016835
5370.0 0.018435
5390.0 0.019082
5410.0 0.017561
5430.0 0.01551
5450.0 0.015263
5470.0 0.018179
5490.0 0.023011
5510.0 0.027951
5530.0 0.030204
5550.0 0.029247
5570.0 0.027075
5590.0 0.024488
5610.0 0.023447
5630.0 0.023521
5650.0 0.02362
5670.0 0.023147
5690.0 0.021856
5710.0 0.020868
5730.0 0.018512
5750.0 0.014222
5770.0 0.012473
5790.0 0.013497
5810.0 0.015743
5830.0 0.017867
5850.0 0.019116
5870.0 0.019163
5890.0 0.01785
5910.0 0.017287
5930.0 0.017474
5950.0 0.018322
5970.0 0.018917
5990.0 0.017263
6010.0 0.014252
6030.0 0.011797
6050.0 0.010812
6070.0 0.011248
6090.0 0.012427
6110.0 0.012679
6130.0 0.011813
6150.0 0.011502
6170.0 0.012619
6190.0 0.0151
6210.0 0.018135
6230.0 0.020213
6250.0 0.020044
6270.0 0.017732
6290.0 0.014624
6310.0 0.01172
6330.0 0.0096943
6350.0 0.0091807
6370.0 0.010075
6390.0 0.011578
6410.0 0.013449
6430.0 0.015542
6450.0 0.018263
6470.0 0.02258
6490.0 0.027536
6510.0 0.02915
6530.0 0.027472
6550.0 0.026212
6570.0 0.025906
6590.0 0.024853
6610.0 0.022903
6630.0 0.021318
6650.0 0.020457
6670.0 0.02042
6690.0 0.019837
6710.0 0.017847
6730.0 0.015478
6750.0 0.014196
6770.0 0.01494
6790.0 0.016052
6810.0 0.016546
6830.0 0.016764
6850.0 0.016158
6870.0 0.015409
6890.0 0.014925
6910.0 0.01422
6930.0 0.013742
6950.0 0.013866
6970.0 0.014374
6990.0 0.015796
7010.0 0.016493
7030.0 0.015745
7050.0 0.014427
7070.0 0.012565
7090.0 0.010679
7110.0 0.010006
7130.0 0.010445
7150.0 0.010894
7170.0 0.011184
7190.0 0.010971
7210.0 0.010916
7230.0 0.012223
7250.0 0.014205
7270.0 0.01596
7290.0 0.016859
7310.0 0.01577
7330.0 0.014093
7350.0 0.012851
7370.0 0.012544
7390.0 0.013129
7410.0 0.014112
7430.0 0.015521
7450.0 0.017165
7470.0 0.018661
7490.0 0.018999
7510.0 0.01652
7530.0 0.01638
7550.0 0.01484
7570.0 0.012674
7590.0 0.0102
7610.0 0.0095319
7630.0 0.010389
7650.0 0.012106
7670.0 0.013879
7690.0 0.015334
7710.0 0.016839
7730.0 0.018188
7750.0 0.019156
7770.0 0.018874
7790.0 0.018766
7810.0 0.019111
7830.0 0.018933
7850.0 0.018187
7870.0 0.017089
7890.0 0.015733
7910.0 0.013934
7930.0 0.012367
7950.0 0.011387
7970.0 0.011126
7990.0 0.011517
8010.0 0.011773
8030.0 0.011931
8050.0 0.012055
8070.0 0.011926
8090.0 0.01189
8110.0 0.011466
8130.0 0.010714
8150.0 0.01012
8170.0 0.010013
8190.0 0.010187
8210.0 0.010285
8230.0 0.010199
8250.0 0.0098561
8270.0 0.008704
8290.0 0.0068833
8310.0 0.0050108
8330.0 0.0033716
8350.0 0.0024093
8370.0 0.0024467
8390.0 0.0029677
8410.0 0.0037497
8430.0 0.0045786
8450.0 0.0050318
8470.0 0.0052837
8490.0 0.0055396
8510.0 0.0058339
8530.0 0.0064766
8550.0 0.0075435
8570.0 0.0088718
8590.0 0.01025
8610.0 0.011964
8630.0 0.013901
8650.0 0.015082
8670.0 0.015087
8690.0 0.014563
8710.0 0.013829
8730.0 0.013257
8750.0 0.012724
8770.0 0.012386
8790.0 0.0119
8810.0 0.011051
8830.0 0.010108
8850.0 0.0086787
8870.0 0.0076829
8890.0 0.0071303
8910.0 0.0074905
8930.0 0.0073525
8950.0 0.0075581
8970.0 0.0076497
8990.0 0.0077599
9010.0 0.007894
9030.0 0.0077873
9050.0 0.0077803
9070.0 0.0077858
9090.0 0.0077919
9110.0 0.0077957
9130.0 0.007803
9150.0 0.0078139
9170.0 0.0078207
9190.0 0.0078222
9210.0 0.0078651
9230.0 0.0078716
9250.0 0.0078832
9270.0 0.0078966
9290.0 0.0079116
9310.0 0.0079284
9330.0 0.0079464
9350.0 0.0079653
9370.0 0.0079854
9390.0 0.0080066
9410.0 0.0080286
9430.0 0.0080513
9450.0 0.0080752
9470.0 0.0081
9490.0 0.0081255
9510.0 0.0081518
9530.0 0.0081793
9550.0 0.0082072
9570.0 0.0082358
9590.0 0.0082655
9610.0 0.0082959
9630.0 0.0083267
9650.0 0.0083585
9670.0 0.0083911
9690.0 0.0084241
9710.0 0.0084577
9730.0 0.0084921
9750.0 0.008527
9770.0 0.0085622
9790.0 0.0085981
9810.0 0.0086347
9830.0 0.0086715
9850.0 0.0087086
9870.0 0.0087465
9890.0 0.0087845
9910.0 0.0088227
9930.0 0.0088613
9950.0 0.008898
9970.0 0.0089376
9990.0 0.0089772
10010.0 0.0090067
10030.0 0.0090463
10050.0 0.0090838
10070.0 0.0091114
10090.0 0.0091552
10110.0 0.0091978
10130.0 0.0092393
10150.0 0.0092803
10170.0 0.0093201
10190.0 0.0093583
10210.0 0.009397
10230.0 0.0094355
10250.0 0.0094727
10270.0 0.0095095
10290.0 0.0095468
10310.0 0.0095827
10330.0 0.0096172
10350.0 0.0096524
10370.0 0.0096869
10390.0 0.0097199
10410.0 0.0097524
10430.0 0.0097852
10450.0 0.0098163
10470.0 0.009846
10490.0 0.0098758
10510.0 0.0099047
10530.0 0.0099313
10550.0 0.0099575
10570.0 0.0099836
10590.0 0.010008
10610.0 0.010031
10630.0 0.010053
10650.0 0.010075
10670.0 0.010094
10690.0 0.010112
10710.0 0.01013
10730.0 0.010146
10750.0 0.01016
10770.0 0.010174
10790.0 0.010186
10810.0 0.010196
10830.0 0.010205
10850.0 0.010212
10870.0 0.010214
10890.0 0.010211
10910.0 0.010199
10930.0 0.010174
10950.0 0.010124
10970.0 0.010048
10990.0 0.0099416
11010.0 0.0096103
11030.0 0.0094139
11050.0 0.0091884
11070.0 0.0089291
11090.0 0.0086277
11110.0 0.0083256
11130.0 0.0080206
11150.0 0.0077044
11170.0 0.0073934
11190.0 0.0071078
11210.0 0.0068303
11230.0 0.0065654
11250.0 0.0063316
11270.0 0.0061246
11290.0 0.0059343
11310.0 0.0057692
11330.0 0.0056349
11350.0 0.0055156
11370.0 0.0054096
11390.0 0.005318
11410.0 0.0052341
11430.0 0.0051478
11450.0 0.0050611
11470.0 0.0049717
11490.0 0.0048726
11510.0 0.0047604
11530.0 0.0046429
11550.0 0.0045171
11570.0 0.0043781
11590.0 0.0042339
11610.0 0.0040905
11630.0 0.0039407
11650.0 0.003789
11670.0 0.0036482
11690.0 0.0035139
11710.0 0.0033838
11730.0 0.003265
11750.0 0.0031607
11770.0 0.0030629
11790.0 0.0029744
11810.0 0.0028978
11830.0 0.002829
11850.0 0.0027636
11870.0 0.0027049
11890.0 0.0026508
11910.0 0.0025964
11930.0 0.0025413
11950.0 0.0024869
11970.0 0.00243
11990.0 0.0023684
12010.0 0.0023056
12030.0 0.0022419
12050.0 0.0021751
12070.0 0.0021067
12090.0 0.0020431
12110.0 0.0019814
12130.0 0.0019225
12150.0 0.0018709
12170.0 0.0018277
12190.0 0.0017915
12210.0 0.0017663
12230.0 0.0017525
12250.0 0.0017497
12270.0 0.0017592
12290.0 0.0017797
12310.0 0.0018094
12330.0 0.0018503
12350.0 0.0018997
12370.0 0.0019536
12390.0 0.0020131
12410.0 0.0020794
12430.0 0.0021426
12450.0 0.0022039
12470.0 0.0022647
12490.0 0.0023207
12510.0 0.0023681
12530.0 0.0024102
12550.0 0.0024451
12570.0 0.0024698
12590.0 0.0024853
12610.0 0.0024926
12630.0 0.0024902
12650.0 0.0024791
12670.0 0.0024603
12690.0 0.0024339
12710.0 0.0024017
12730.0 0.0023646
12750.0 0.0023213
12770.0 0.002275
12790.0 0.0022271
12810.0 0.0021764
12830.0 0.0021229
12850.0 0.0020704
12870.0 0.0020174
12890.0 0.001962
12910.0 0.0019066
12930.0 0.0018522
12950.0 0.0017953
12970.0 0.0017366
12990.0 0.0016799
13010.0 0.0016227
13030.0 0.0015638
13050.0 0.0015061
13070.0 0.0014514
13090.0 0.0013963
13110.0 0.0013433
13130.0 0.0012951
13150.0 0.0012506
13170.0 0.001209
13190.0 0.001174
13210.0 0.0011456
13230.0 0.0011223
13250.0 0.0011054
13270.0 0.001095
13290.0 0.0010904
13310.0 0.0010919
13330.0 0.0010986
13350.0 0.0011098
13370.0 0.0011254
13390.0 0.001145
13410.0 0.0011655
13430.0 0.0011881
13450.0 0.0012123
13470.0 0.0012359
13490.0 0.0012582
13510.0 0.0012811
13530.0 0.0013019
13550.0 0.00132
13570.0 0.0013362
13590.0 0.0013508
13610.0 0.0013625
13630.0 0.0013716
13650.0 0.0013792
13670.0 0.0013845
13690.0 0.0013878
13710.0 0.0013894
13730.0 0.0013894
13750.0 0.0013877
13770.0 0.0013845
13790.0 0.0013798
13810.0 0.0013737
13830.0 0.0013663
13850.0 0.0013574
13870.0 0.0013469
13890.0 0.0013351
13910.0 0.0013222
13930.0 0.0013076
13950.0 0.0012919
13970.0 0.0012759
13990.0 0.001259
14010.0 0.0012414
14030.0 0.0012244
14050.0 0.0012077
14070.0 0.0011909
14090.0 0.0011754
14110.0 0.0011614
14130.0 0.0011486
14150.0 0.0011373
14170.0 0.0011281
14190.0 0.0011208
14210.0 0.0011154
14230.0 0.0011121
14250.0 0.0011108
14270.0 0.0011117
14290.0 0.0011148
14310.0 0.0011196
14330.0 0.0011262
14350.0 0.0011347
14370.0 0.0011445
14390.0 0.001155
14410.0 0.0011669
14430.0 0.0011795
14450.0 0.0011921
14470.0 0.0012051
14490.0 0.001219
14510.0 0.0012327
14530.0 0.0012464
14550.0 0.0012614
14570.0 0.0012776
14590.0 0.0012946
14610.0 0.0013137
14630.0 0.0013362
14650.0 0.0013608
14670.0 0.0013878
14690.0 0.0014192
14710.0 0.0014544
14730.0 0.0014906
14750.0 0.0015301
14770.0 0.0015731
14790.0 0.0016164
14810.0 0.0016593
14830.0 0.0017048
14850.0 0.0017483
14870.0 0.001788
14890.0 0.0018253
14910.0 0.0018596
14930.0 0.001888
14950.0 0.0019109
14970.0 0.0019295
14990.0 0.0019423
15010.0 0.00195
15030.0 0.0019537
15050.0 0.0019539
15070.0 0.0019516
15090.0 0.0019477
15110.0 0.0019427
15130.0 0.001937
15150.0 0.0019314
15170.0 0.0019254
15190.0 0.0019192
15210.0 0.0019133
15230.0 0.0019075
15250.0 0.0019014
15270.0 0.0018954
15290.0 0.0018898
15310.0 0.001884
15330.0 0.0018781
15350.0 0.0018725
15370.0 0.001867
15390.0 0.0018611
15410.0 0.0018555
15430.0 0.00185
15450.0 0.0018444
15470.0 0.0018387
15490.0 0.0018333
15510.0 0.0018279
15530.0 0.0018224
15550.0 0.0018169
15570.0 0.0018117
15590.0 0.0018062
15610.0 0.0018006
15630.0 0.0017954
15650.0 0.0017901
15670.0 0.0017846
15690.0 0.0017793
15710.0 0.0017742
15730.0 0.0017688
15750.0 0.0017634
15770.0 0.0017583
15790.0 0.0017531
15810.0 0.0017476
15830.0 0.0017423
15850.0 0.0017373
15870.0 0.001732
15890.0 0.0017266
15910.0 0.0017216
15930.0 0.0017164
15950.0 0.001711
15970.0 0.0017058
15990.0 0.0017007
16010.0 0.0016953
16030.0 0.00169
16050.0 0.0016849
16070.0 0.0016797
16090.0 0.0016744
16110.0 0.0016692
16130.0 0.0016641
16150.0 0.0016586
16170.0 0.0016533
16190.0 0.0016482
16210.0 0.0016429
16230.0 0.0016375
16250.0 0.0016322
16270.0 0.0016271
16290.0 0.0016217
16310.0 0.0016163
16330.0 0.0016111
16350.0 0.0016058
16370.0 0.0016002
16390.0 0.0015949
16410.0 0.0015896
16430.0 0.0015841
16450.0 0.0015787
16470.0 0.0015735
16490.0 0.001568
16510.0 0.0015624
16530.0 0.001557
16550.0 0.0015516
16570.0 0.001546
16590.0 0.0015404
16610.0 0.0015351
16630.0 0.0015295
16650.0 0.0015239
16670.0 0.0015184
16690.0 0.0015129
16710.0 0.0015071
16730.0 0.0015015
16750.0 0.001496
16770.0 0.0014903
16790.0 0.0014844
16810.0 0.0014789
16830.0 0.0014733
16850.0 0.0014674
16870.0 0.0014617
16890.0 0.0014561
16910.0 0.0014502
16930.0 0.0014443
16950.0 0.0014386
16970.0 0.0014328
16990.0 0.0014269
17010.0 0.001421
17030.0 0.0014153
17050.0 0.0014093
17070.0 0.0014033
17090.0 0.0013975
17110.0 0.0013916
17130.0 0.0013854
17150.0 0.0013795
17170.0 0.0013736
17190.0 0.0013676
17210.0 0.0013615
17230.0 0.0013556
17250.0 0.0013496
17270.0 0.0013433
17290.0 0.0013373
17310.0 0.0013313
17330.0 0.001325
17350.0 0.0013188
17370.0 0.0013128
17390.0 0.0013067
17410.0 0.0013004
17430.0 0.0012943
17450.0 0.0012882
17470.0 0.0012818
17490.0 0.0012755
17510.0 0.0012694
17530.0 0.0012631
17550.0 0.0012567
17570.0 0.0012505
17590.0 0.0012444
17610.0 0.001238
17630.0 0.0012316
17650.0 0.0012254
17670.0 0.0012191
17690.0 0.0012125
17710.0 0.0012062
17730.0 0.0012
17750.0 0.0011935
17770.0 0.0011871
17790.0 0.0011809
17810.0 0.0011744
17830.0 0.0011679
17850.0 0.0011615
17870.0 0.0011552
17890.0 0.0011486
17910.0 0.0011421
17930.0 0.0011358
17950.0 0.0011293
17970.0 0.0011228
17990.0 0.0011164
18010.0 0.00111
18030.0 0.0011033
18050.0 0.0010969
18070.0 0.0010905
18090.0 0.001084
18110.0 0.0010773
18130.0 0.001071
18150.0 0.0010645
18170.0 0.0010579
18190.0 0.0010514
18210.0 0.0010451
18230.0 0.0010384
18250.0 0.0010318
18270.0 0.0010254
18290.0 0.0010189
18310.0 0.0010123
18330.0 0.0010058
18350.0 0.00099947
18370.0 0.00099285
18390.0 0.00098625
18410.0 0.00097985
18430.0 0.00097337
18450.0 0.00096664
18470.0 0.00096018
18490.0 0.00095382
18510.0 0.00094724
18530.0 0.00094068
18550.0 0.00093435
18570.0 0.00092785
18590.0 0.00092118
18610.0 0.00091474
18630.0 0.00090835
18650.0 0.00090177
18670.0 0.00089518
18690.0 0.0008889
18710.0 0.00088244
18730.0 0.00087587
18750.0 0.00086948
18770.0 0.00086318
18790.0 0.00085651
18810.0 0.00085002
18830.0 0.00084372
18850.0 0.00083728
18870.0 0.00083073
18890.0 0.00082442
18910.0 0.00081814
18930.0 0.00081161
18950.0 0.00080519
18970.0 0.00079894
18990.0 0.00079254
19010.0 0.00078593
19030.0 0.00077971
19050.0 0.00077344
19070.0 0.000767
19090.0 0.00076066
19110.0 0.00075452
19130.0 0.00074811
19150.0 0.00074169
19170.0 0.00073547
19190.0 0.00072925
19210.0 0.00072281
19230.0 0.0007165
19250.0 0.00071042
19270.0 0.00070413
19290.0 0.00069781
19310.0 0.0006917
19330.0 0.00068556
19350.0 0.00067913
19370.0 0.00067295
19390.0 0.00066688
19410.0 0.00066064
19430.0 0.00065436
19450.0 0.00064835
19470.0 0.00064226
19490.0 0.00063601
19510.0 0.00062992
19530.0 0.00062394
19550.0 0.00061771
19570.0 0.00061148
19590.0 0.00060554
19610.0 0.00059951
19630.0 0.00059334
19650.0 0.00058735
19670.0 0.00058147
19690.0 0.00057533
19710.0 0.00056926
19730.0 0.00056337
19750.0 0.0005574
19770.0 0.00055123
19790.0 0.00054532
19810.0 0.00053949
19830.0 0.00053347
19850.0 0.00052746
19870.0 0.00052162
19890.0 0.0005155
19910.0 0.00050905
19930.0 0.00050253
19950.0 0.00049561
19970.0 0.00048784
19990.0 0.00047931
20010.0 0.0004704
20030.0 0.00046044
20050.0 0.00044966
20070.0 0.00043879
20090.0 0.00042786
20110.0 0.00041639
20130.0 0.0004056
20150.0 0.00039566
20170.0 0.00038609
20190.0 0.00037713
20210.0 0.0003693
20230.0 0.00036223
20250.0 0.00035573
20270.0 0.00035021
20290.0 0.00034563
20310.0 0.00034174
20330.0 0.00033858
20350.0 0.0003364
20370.0 0.00033491
20390.0 0.00033414
20410.0 0.00033411
20430.0 0.00033472
20450.0 0.00033605
20470.0 0.00033807
20490.0 0.00034061
20510.0 0.00034374
20530.0 0.00034756
20550.0 0.0003518
20570.0 0.00035631
20590.0 0.00036139
20610.0 0.00036681
20630.0 0.00037228
20650.0 0.00037798
20670.0 0.00038408
20690.0 0.00038994
20710.0 0.00039566
20730.0 0.0004015
20750.0 0.00040724
20770.0 0.00041258
20790.0 0.0004179
20810.0 0.00042327
20830.0 0.0004284
20850.0 0.0004334
20870.0 0.00043868
20890.0 0.00044402
20910.0 0.00044919
20930.0 0.00045463
20950.0 0.00046038
20970.0 0.00046608
20990.0 0.00047179
21010.0 0.00047788
21030.0 0.00048387
21050.0 0.00048956
21070.0 0.00049515
21090.0 0.00050063
21110.0 0.0005054
21130.0 0.00050965
21150.0 0.00051346
21170.0 0.00051656
21190.0 0.00051886
21210.0 0.00052051
21230.0 0.00052136
21250.0 0.00052136
21270.0 0.0005206
21290.0 0.000519
21310.0 0.00051662
21330.0 0.00051363
21350.0 0.00050986
21370.0 0.00050535
21390.0 0.00050038
21410.0 0.00049493
21430.0 0.00048866
21450.0 0.00048218
21470.0 0.0004756
21490.0 0.00046863
21510.0 0.00046143
21530.0 0.00045453
21550.0 0.00044766
21570.0 0.00044072
21590.0 0.00043425
21610.0 0.00042832
21630.0 0.0004227
21650.0 0.00041754
21670.0 0.00041338
21690.0 0.00040984
21710.0 0.00040699
21730.0 0.00040503
21750.0 0.00040393
21770.0 0.00040364
21790.0 0.00040426
21810.0 0.00040569
21830.0 0.00040794
21850.0 0.0004111
21870.0 0.00041495
21890.0 0.00041934
21910.0 0.00042457
21930.0 0.0004304
21950.0 0.00043655
21970.0 0.00044323
21990.0 0.00045066
22010.0 0.00045807
22030.0 0.00046562
22050.0 0.00047358
22070.0 0.00048165
22090.0 0.00048934
22110.0 0.00049716
22130.0 0.00050501
22150.0 0.00051236
22170.0 0.00051928
22190.0 0.00052606
22210.0 0.00053226
22230.0 0.00053754
22250.0 0.00054227
22270.0 0.00054629
22290.0 0.00054932
22310.0 0.00055144
22330.0 0.00055266
22350.0 0.00055279
22370.0 0.00055188
22390.0 0.00054988
22410.0 0.00054665
22430.0 0.00054248
22450.0 0.00053733
22470.0 0.00053095
22490.0 0.00052364
22510.0 0.00051572
22530.0 0.00050661
22550.0 0.00049651
22570.0 0.00048617
22590.0 0.00047526
22610.0 0.00046348
22630.0 0.00045146
22650.0 0.00043968
22670.0 0.00042728
22690.0 0.00041466
22710.0 0.00040251
22730.0 0.00039051
22750.0 0.00037804
22770.0 0.00036639
22790.0 0.00035548
22810.0 0.00034473
22830.0 0.00033448
22850.0 0.00032533
22870.0 0.00031679
22890.0 0.00030878
22910.0 0.0003019
22930.0 0.00029609
22950.0 0.0002911
22970.0 0.00028714
22990.0 0.00028452
23010.0 0.00028293
23030.0 0.00028246
23050.0 0.00028315
23070.0 0.00028487
23090.0 0.00028781
23110.0 0.00029182
23130.0 0.00029664
23150.0 0.00030238
23170.0 0.00030911
23190.0 0.00031629
23210.0 0.00032377
23230.0 0.00033193
23250.0 0.00034028
23270.0 0.00034841
23290.0 0.00035659
23310.0 0.00036486
23330.0 0.00037232
23350.0 0.00037919
23370.0 0.00038561
23390.0 0.00039123
23410.0 0.0003958
23430.0 0.00039959
23450.0 0.00040247
23470.0 0.00040425
23490.0 0.00040505
23510.0 0.00040482
23530.0 0.00040355
23550.0 0.00040142
23570.0 0.00039835
23590.0 0.00039433
23610.0 0.00038968
23630.0 0.00038441
23650.0 0.00037821
