#lamb flux
1010.0 2.0102e-06
1030.0 2.263e-06
1050.0 2.5367e-06
1070.0 2.8463e-06
1090.0 3.2051e-06
1110.0 3.5752e-06
1130.0 3.9509e-06
1150.0 4.3481e-06
1170.0 4.7628e-06
1190.0 5.1641e-06
1210.0 5.5786e-06
1230.0 6.0157e-06
1250.0 6.4546e-06
1270.0 6.8943e-06
1290.0 7.369e-06
1310.0 7.8577e-06
1330.0 8.3438e-06
1350.0 8.8486e-06
1370.0 9.3808e-06
1390.0 9.9158e-06
1410.0 1.045e-05
1430.0 1.1015e-05
1450.0 1.1589e-05
1470.0 1.2157e-05
1490.0 1.2737e-05
1510.0 1.3346e-05
1530.0 1.3934e-05
1550.0 1.4517e-05
1570.0 1.5116e-05
1590.0 1.5711e-05
1610.0 1.6281e-05
1630.0 1.6854e-05
1650.0 1.7431e-05
1670.0 1.798e-05
1690.0 1.8508e-05
1710.0 1.9037e-05
1730.0 1.955e-05
1750.0 2.0013e-05
1770.0 2.0467e-05
1790.0 2.0906e-05
1810.0 2.1304e-05
1830.0 2.1667e-05
1850.0 2.203e-05
1870.0 2.2352e-05
1890.0 2.263e-05
1910.0 2.2887e-05
1930.0 2.3127e-05
1950.0 2.3316e-05
1970.0 2.347e-05
1990.0 2.3612e-05
2010.0 2.3717e-05
2030.0 2.3776e-05
2050.0 2.3819e-05
2070.0 2.3841e-05
2090.0 2.3808e-05
2110.0 2.3744e-05
2130.0 2.3658e-05
2150.0 2.3534e-05
2170.0 2.3361e-05
2190.0 2.3169e-05
2210.0 2.2948e-05
2230.0 2.268e-05
2250.0 2.2381e-05
2270.0 2.2067e-05
2290.0 2.1713e-05
2310.0 2.132e-05
2330.0 2.0911e-05
2350.0 2.048e-05
2370.0 2.0016e-05
2390.0 1.9532e-05
2410.0 1.9038e-05
2430.0 1.8511e-05
2450.0 1.7952e-05
2470.0 1.7367e-05
2490.0 1.6752e-05
2510.0 1.6108e-05
2530.0 1.5471e-05
2550.0 1.4891e-05
2570.0 1.4434e-05
2590.0 1.4168e-05
2610.0 1.4226e-05
2630.0 1.4647e-05
2650.0 1.5359e-05
2670.0 1.6359e-05
2690.0 1.7567e-05
2710.0 1.8704e-05
2730.0 1.9627e-05
2750.0 2.0335e-05
2770.0 2.0646e-05
2790.0 2.052e-05
2810.0 2.0035e-05
2830.0 1.9221e-05
2850.0 1.8134e-05
2870.0 1.6874e-05
2890.0 1.5477e-05
2910.0 1.3999e-05
2930.0 1.2507e-05
2950.0 1.0973e-05
2970.0 9.4162e-06
2990.0 7.8887e-06
3010.0 1.4359e-05
3030.0 1.0919e-05
3050.0 7.4846e-06
3070.0 4.1478e-06
3090.0 3.1236e-06
3110.0 3.1236e-06
3130.0 3.1236e-06
3150.0 3.1236e-06
3170.0 3.1236e-06
3190.0 3.1236e-06
3210.0 1.3135e-05
3230.0 6.1296e-05
3250.0 0.0001224
3270.0 0.00013308
3290.0 0.00016458
3310.0 0.0001387
3330.0 0.00014284
3350.0 0.00015802
3370.0 0.00017882
3390.0 0.0002028
3410.0 0.00022836
3430.0 0.00025951
3450.0 0.00029238
3470.0 0.00032705
3490.0 0.00035286
3510.0 0.00036588
3530.0 0.00038691
3550.0 0.00039722
3570.0 0.00038687
3590.0 0.00040778
3610.0 0.00038994
3630.0 0.0004777
3650.0 0.00054096
3670.0 0.00058036
3690.0 0.00053461
3710.0 0.00042103
3730.0 0.00038183
3750.0 0.00033327
3770.0 0.00029595
3790.0 0.0002592
3810.0 0.00025289
3830.0 0.00031122
3850.0 0.00012301
3870.0 0.00028715
3890.0 0.00034932
3910.0 0.00037115
3930.0 0.00044159
3950.0 0.00048046
3970.0 0.00057147
3990.0 0.00070667
4010.0 0.00049483
4030.0 0.00039894
4050.0 0.00033075
4070.0 0.00035741
4090.0 0.00055665
4110.0 0.00051512
4130.0 0.00054464
4150.0 0.0005095
4170.0 0.00048788
4190.0 0.00044952
4210.0 0.00066836
4230.0 0.00069578
4250.0 0.00074817
4270.0 0.00069827
4290.0 0.0007204
4310.0 0.0008221
4330.0 0.00096114
4350.0 0.00094142
4370.0 0.00090163
4390.0 0.00078726
4410.0 0.00073087
4430.0 0.00058478
4450.0 0.00050467
4470.0 0.00057092
4490.0 0.00069066
4510.0 0.00071763
4530.0 0.00076015
4550.0 0.00081152
4570.0 0.0011208
4590.0 0.0016292
4610.0 0.0019377
4630.0 0.0019332
4650.0 0.0019533
4670.0 0.0021809
4690.0 0.0023973
4710.0 0.0019634
4730.0 0.0014905
4750.0 0.0011959
4770.0 0.0010828
4790.0 0.0010445
4810.0 0.00099977
4830.0 0.0010986
4850.0 0.0012588
4870.0 0.0013873
4890.0 0.0014234
4910.0 0.0012824
4930.0 0.0013499
4950.0 0.0016858
4970.0 0.0020624
4990.0 0.0021597
5010.0 0.0019812
5030.0 0.0016342
5050.0 0.0012307
5070.0 0.00097367
5090.0 0.00087367
5110.0 0.00085283
5130.0 0.00087382
5150.0 0.00087235
5170.0 0.00085434
5190.0 0.00081538
5210.0 0.00080165
5230.0 0.00088819
5250.0 0.00099861
5270.0 0.0011909
5290.0 0.0013894
5310.0 0.0014478
5330.0 0.0015409
5350.0 0.0017187
5370.0 0.0018492
5390.0 0.0017013
5410.0 0.0015103
5430.0 0.0014543
5450.0 0.001681
5470.0 0.0021164
5490.0 0.0025318
5510.0 0.0027322
5530.0 0.0027129
5550.0 0.0025906
5570.0 0.0025161
5590.0 0.0024517
5610.0 0.0024509
5630.0 0.0024482
5650.0 0.0024516
5670.0 0.0024675
5690.0 0.0023224
5710.0 0.0019718
5730.0 0.0017392
5750.0 0.0016186
5770.0 0.0016542
5790.0 0.0017378
5810.0 0.0018451
5830.0 0.0019048
5850.0 0.0018353
5870.0 0.0017184
5890.0 0.0016175
5910.0 0.001664
5930.0 0.0017842
5950.0 0.0017166
5970.0 0.0015479
5990.0 0.0013219
6010.0 0.0010777
6030.0 0.00095886
6050.0 0.0010094
6070.0 0.0010992
6090.0 0.0010991
6110.0 0.00097366
6130.0 0.00096354
6150.0 0.0010998
6170.0 0.0012892
6190.0 0.0014608
6210.0 0.0014871
6230.0 0.0014457
6250.0 0.0013276
6270.0 0.0011305
6290.0 0.00094182
6310.0 0.00082112
6330.0 0.00078881
6350.0 0.00081506
6370.0 0.00082077
6390.0 0.00088347
6410.0 0.0010721
6430.0 0.0013583
6450.0 0.0016011
6470.0 0.001687
6490.0 0.0016539
6510.0 0.0016844
6530.0 0.0017568
6550.0 0.0017413
6570.0 0.0017989
6590.0 0.0018228
6610.0 0.0018474
6630.0 0.0018547
6650.0 0.0017748
6670.0 0.0016338
6690.0 0.0014533
6710.0 0.0013334
6730.0 0.0013368
6750.0 0.0014033
6770.0 0.0014552
6790.0 0.0014903
6810.0 0.0015077
6830.0 0.0014765
6850.0 0.0014247
6870.0 0.0013391
6890.0 0.0013029
6910.0 0.0012383
6930.0 0.0012641
6950.0 0.0013579
6970.0 0.0014062
6990.0 0.0014474
7010.0 0.0014221
7030.0 0.0013186
7050.0 0.0011603
7070.0 0.00099713
7090.0 0.00089132
7110.0 0.00087646
7130.0 0.0008962
7150.0 0.00083523
7170.0 0.00078046
7190.0 0.00081833
7210.0 0.00091924
7230.0 0.0010667
7250.0 0.001159
7270.0 0.0011703
7290.0 0.0010769
7310.0 0.00097898
7330.0 0.00092011
7350.0 0.00091653
7370.0 0.00093875
7390.0 0.00097668
7410.0 0.001065
7430.0 0.0012352
7450.0 0.0014177
7470.0 0.0015351
7490.0 0.0015442
7510.0 0.0014608
7530.0 0.0012178
7550.0 0.0010664
7570.0 0.00092397
7590.0 0.00085242
7610.0 0.00088661
7630.0 0.00098436
7650.0 0.001104
7670.0 0.0012141
7690.0 0.0012833
7710.0 0.0013625
7730.0 0.0014488
7750.0 0.0015249
7770.0 0.001513
7790.0 0.0015131
7810.0 0.0015474
7830.0 0.0015726
7850.0 0.0015288
7870.0 0.001465
7890.0 0.0014334
7910.0 0.0013572
7930.0 0.001332
7950.0 0.0012668
7970.0 0.0012402
7990.0 0.0012086
8010.0 0.0012519
8030.0 0.001259
8050.0 0.001273
8070.0 0.001258
8090.0 0.0012507
8110.0 0.0011969
8130.0 0.0011892
8150.0 0.0011656
8170.0 0.0011316
8190.0 0.00111
8210.0 0.0011121
8230.0 0.0010727
8250.0 0.0010319
8270.0 0.00091535
8290.0 0.00073642
8310.0 0.0005475
8330.0 0.00041414
8350.0 0.00037919
8370.0 0.00045009
8390.0 0.00054644
8410.0 0.00059841
8430.0 0.00062575
8450.0 0.00065557
8470.0 0.00069341
8490.0 0.00077239
8510.0 0.0008781
8530.0 0.0010179
8550.0 0.0011655
8570.0 0.0012954
8590.0 0.0013976
8610.0 0.0014652
8630.0 0.001487
8650.0 0.0014813
8670.0 0.00148
8690.0 0.0015402
8710.0 0.0016133
8730.0 0.0016707
8750.0 0.0016577
8770.0 0.0016731
8790.0 0.0016575
8810.0 0.0015483
8830.0 0.0014751
8850.0 0.0013714
8870.0 0.0012873
8890.0 0.0012497
8910.0 0.0012591
8930.0 0.0011914
8950.0 0.0011249
8970.0 0.0010973
8990.0 0.0010813
9010.0 0.0010411
9030.0 0.0010173
9050.0 0.0010099
9070.0 0.0010064
9090.0 0.0010032
9110.0 0.0010002
9130.0 0.00099712
9150.0 0.00099403
9170.0 0.00099027
9190.0 0.00098685
9210.0 0.00098929
9230.0 0.00098426
9250.0 0.00098016
9270.0 0.00097647
9290.0 0.00097309
9310.0 0.00096979
9330.0 0.00096659
9350.0 0.00096358
9370.0 0.00096057
9390.0 0.00095748
9410.0 0.00095448
9430.0 0.00095143
9450.0 0.00094746
9470.0 0.0009438
9490.0 0.00094167
9510.0 0.00093909
9530.0 0.00093634
9550.0 0.00093356
9570.0 0.00093071
9590.0 0.0009278
9610.0 0.00092488
9630.0 0.00092197
9650.0 0.00091904
9670.0 0.0009161
9690.0 0.00091318
9710.0 0.00091026
9730.0 0.00090732
9750.0 0.00090439
9770.0 0.0009015
9790.0 0.00089857
9810.0 0.00089562
9830.0 0.00089269
9850.0 0.00088978
9870.0 0.0008868
9890.0 0.00088384
9910.0 0.00088087
9930.0 0.00087779
9950.0 0.00086762
9970.0 0.00086674
9990.0 0.00086545
10010.0 0.00086388
10030.0 0.00086173
10050.0 0.00085907
10070.0 0.00085626
10090.0 0.00085352
10110.0 0.00085032
10130.0 0.00084738
10150.0 0.00084431
10170.0 0.00084101
10190.0 0.00083745
10210.0 0.0008342
10230.0 0.00083102
10250.0 0.00082754
10270.0 0.00082408
10290.0 0.00082083
10310.0 0.00081731
10330.0 0.00081353
10350.0 0.00081004
10370.0 0.00080653
10390.0 0.00080271
10410.0 0.0007989
10430.0 0.00079536
10450.0 0.0007915
10470.0 0.00078746
10490.0 0.00078361
10510.0 0.00077974
10530.0 0.00077539
10550.0 0.00077118
10570.0 0.00076717
10590.0 0.00076287
10610.0 0.00075838
10630.0 0.00075413
10650.0 0.00074979
10670.0 0.00074502
10690.0 0.00074037
10710.0 0.00073584
10730.0 0.00073099
10750.0 0.00072584
10770.0 0.00072111
10790.0 0.00071621
10810.0 0.00071096
10830.0 0.00070579
10850.0 0.00070079
10870.0 0.00069521
10890.0 0.00068951
10910.0 0.00068396
10930.0 0.00067811
10950.0 0.00067164
10970.0 0.00066501
10990.0 0.00065831
11010.0 0.00066016
11030.0 0.0006518
11050.0 0.00064372
11070.0 0.00063552
11090.0 0.00062686
11110.0 0.00061896
11130.0 0.00061145
11150.0 0.00060387
11170.0 0.00059651
11190.0 0.00058978
11210.0 0.00058297
11230.0 0.00057606
11250.0 0.00056951
11270.0 0.00056316
11290.0 0.00055651
11310.0 0.00054988
11330.0 0.00054373
11350.0 0.00053737
11370.0 0.0005308
11390.0 0.00052441
11410.0 0.00051804
11430.0 0.00051105
11450.0 0.00050399
11470.0 0.00049693
11490.0 0.00048939
11510.0 0.00048123
11530.0 0.00047311
11550.0 0.00046474
11570.0 0.00045565
11590.0 0.00044635
11610.0 0.00043713
11630.0 0.00042733
11650.0 0.00041711
11670.0 0.00040732
11690.0 0.00039754
11710.0 0.00038747
11730.0 0.00037766
11750.0 0.00036846
11770.0 0.00035914
11790.0 0.00034999
11810.0 0.00034149
11830.0 0.00033335
11850.0 0.00032512
11870.0 0.00031753
11890.0 0.00031053
11910.0 0.00030362
11930.0 0.00029696
11950.0 0.00029085
11970.0 0.00028495
11990.0 0.00027906
12010.0 0.00027358
12030.0 0.00026847
12050.0 0.00026344
12070.0 0.00025858
12090.0 0.0002543
12110.0 0.00025024
12130.0 0.00024639
12150.0 0.00024299
12170.0 0.00024005
12190.0 0.00023735
12210.0 0.00023513
12230.0 0.00023344
12250.0 0.0002322
12270.0 0.00023143
12290.0 0.00023119
12310.0 0.00023143
12330.0 0.00023219
12350.0 0.00023348
12370.0 0.00023519
12390.0 0.0002374
12410.0 0.00024023
12430.0 0.00024334
12450.0 0.00024678
12470.0 0.00025067
12490.0 0.00025485
12510.0 0.00025902
12530.0 0.00026343
12550.0 0.00026798
12570.0 0.00027229
12590.0 0.00027638
12610.0 0.00028035
12630.0 0.00028389
12650.0 0.00028676
12670.0 0.00028918
12690.0 0.000291
12710.0 0.00029209
12730.0 0.00029252
12750.0 0.00029228
12770.0 0.00029134
12790.0 0.00028982
12810.0 0.00028771
12830.0 0.00028504
12850.0 0.00028209
12870.0 0.00027885
12890.0 0.00027527
12910.0 0.00027159
12930.0 0.00026797
12950.0 0.00026421
12970.0 0.00026043
12990.0 0.00025691
13010.0 0.00025347
13030.0 0.00025005
13050.0 0.00024677
13070.0 0.0002437
13090.0 0.00024058
13110.0 0.0002375
13130.0 0.00023455
13150.0 0.00023162
13170.0 0.00022859
13190.0 0.00022567
13210.0 0.00022289
13230.0 0.00022009
13250.0 0.00021738
13270.0 0.00021492
13290.0 0.00021262
13310.0 0.00021049
13330.0 0.00020872
13350.0 0.00020729
13370.0 0.00020617
13390.0 0.00020541
13410.0 0.00020501
13430.0 0.00020487
13450.0 0.00020497
13470.0 0.00020519
13490.0 0.00020545
13510.0 0.00020568
13530.0 0.00020573
13550.0 0.00020553
13570.0 0.00020502
13590.0 0.0002041
13610.0 0.00020279
13630.0 0.00020113
13650.0 0.00019902
13670.0 0.00019657
13690.0 0.00019392
13710.0 0.00019102
13730.0 0.00018786
13750.0 0.00018482
13770.0 0.00018183
13790.0 0.00017886
13810.0 0.00017606
13830.0 0.00017356
13850.0 0.00017121
13870.0 0.00016908
13890.0 0.00016725
13910.0 0.00016568
13930.0 0.00016427
13950.0 0.00016307
13970.0 0.0001621
13990.0 0.00016123
14010.0 0.00016047
14030.0 0.0001598
14050.0 0.00015918
14070.0 0.00015856
14090.0 0.00015793
14110.0 0.00015729
14130.0 0.00015657
14150.0 0.00015576
14170.0 0.00015491
14190.0 0.00015396
14210.0 0.00015291
14230.0 0.00015178
14250.0 0.00015064
14270.0 0.00014941
14290.0 0.00014816
14310.0 0.00014697
14330.0 0.00014584
14350.0 0.00014474
14370.0 0.00014377
14390.0 0.00014294
14410.0 0.0001422
14430.0 0.0001416
14450.0 0.00014114
14470.0 0.0001408
14490.0 0.00014056
14510.0 0.00014043
14530.0 0.00014038
14550.0 0.0001404
14570.0 0.0001405
14590.0 0.00014065
14610.0 0.00014088
14630.0 0.00014121
14650.0 0.00014162
14670.0 0.00014213
14690.0 0.00014278
14710.0 0.00014357
14730.0 0.00014445
14750.0 0.00014549
14770.0 0.00014672
14790.0 0.00014808
14810.0 0.00014956
14830.0 0.00015133
14850.0 0.00015328
14870.0 0.00015534
14890.0 0.00015762
14910.0 0.0001601
14930.0 0.00016256
14950.0 0.00016493
14970.0 0.00016725
14990.0 0.00016926
15010.0 0.00017086
15030.0 0.0001721
15050.0 0.00017299
15070.0 0.00017348
15090.0 0.00017373
15110.0 0.00017382
15130.0 0.00017379
15150.0 0.00017371
15170.0 0.00017359
15190.0 0.00017346
15210.0 0.00017333
15230.0 0.00017319
15250.0 0.00017306
15270.0 0.00017292
15290.0 0.00017279
15310.0 0.00017266
15330.0 0.00017252
15350.0 0.00017239
15370.0 0.00017227
15390.0 0.00017213
15410.0 0.000172
15430.0 0.00017188
15450.0 0.00017175
15470.0 0.00017162
15490.0 0.00017149
15510.0 0.00017137
15530.0 0.00017124
15550.0 0.00017112
15570.0 0.00017099
15590.0 0.00017087
15610.0 0.00017074
15630.0 0.00017062
15650.0 0.0001705
15670.0 0.00017037
15690.0 0.00017025
15710.0 0.00017013
15730.0 0.00017
15750.0 0.00016988
15770.0 0.00016975
15790.0 0.00016963
15810.0 0.0001695
15830.0 0.00016938
15850.0 0.00016926
15870.0 0.00016913
15890.0 0.00016901
15910.0 0.00016888
15930.0 0.00016876
15950.0 0.00016863
15970.0 0.0001685
15990.0 0.00016838
16010.0 0.00016825
16030.0 0.00016812
16050.0 0.00016799
16070.0 0.00016786
16090.0 0.00016773
16110.0 0.0001676
16130.0 0.00016747
16150.0 0.00016734
16170.0 0.0001672
16190.0 0.00016707
16210.0 0.00016693
16230.0 0.00016679
16250.0 0.00016666
16270.0 0.00016652
16290.0 0.00016638
16310.0 0.00016623
16330.0 0.00016609
16350.0 0.00016595
16370.0 0.0001658
16390.0 0.00016565
16410.0 0.0001655
16430.0 0.00016535
16450.0 0.0001652
16470.0 0.00016505
16490.0 0.00016489
16510.0 0.00016473
16530.0 0.00016457
16550.0 0.00016441
16570.0 0.00016425
16590.0 0.00016408
16610.0 0.00016392
16630.0 0.00016375
16650.0 0.00016358
16670.0 0.00016341
16690.0 0.00016323
16710.0 0.00016305
16730.0 0.00016287
16750.0 0.00016269
16770.0 0.00016251
16790.0 0.00016232
16810.0 0.00016213
16830.0 0.00016194
16850.0 0.00016174
16870.0 0.00016155
16890.0 0.00016135
16910.0 0.00016114
16930.0 0.00016094
16950.0 0.00016073
16970.0 0.00016052
16990.0 0.00016031
17010.0 0.00016009
17030.0 0.00015987
17050.0 0.00015965
17070.0 0.00015943
17090.0 0.0001592
17110.0 0.00015897
17130.0 0.00015873
17150.0 0.0001585
17170.0 0.00015826
17190.0 0.00015801
17210.0 0.00015777
17230.0 0.00015752
17250.0 0.00015727
17270.0 0.00015701
17290.0 0.00015675
17310.0 0.00015649
17330.0 0.00015623
17350.0 0.00015596
17370.0 0.00015569
17390.0 0.00015541
17410.0 0.00015513
17430.0 0.00015485
17450.0 0.00015457
17470.0 0.00015428
17490.0 0.00015398
17510.0 0.00015369
17530.0 0.00015339
17550.0 0.00015309
17570.0 0.00015279
17590.0 0.00015248
17610.0 0.00015217
17630.0 0.00015185
17650.0 0.00015154
17670.0 0.00015121
17690.0 0.00015089
17710.0 0.00015056
17730.0 0.00015023
17750.0 0.00014989
17770.0 0.00014956
17790.0 0.00014922
17810.0 0.00014887
17830.0 0.00014852
17850.0 0.00014818
17870.0 0.00014782
17890.0 0.00014746
17910.0 0.0001471
17930.0 0.00014674
17950.0 0.00014638
17970.0 0.00014601
17990.0 0.00014564
18010.0 0.00014527
18030.0 0.00014489
18050.0 0.00014451
18070.0 0.00014412
18090.0 0.00014374
18110.0 0.00014335
18130.0 0.00014296
18150.0 0.00014257
18170.0 0.00014217
18190.0 0.00014177
18210.0 0.00014137
18230.0 0.00014097
18250.0 0.00014056
18270.0 0.00014015
18290.0 0.00013974
18310.0 0.00013933
18330.0 0.00013891
18350.0 0.0001385
18370.0 0.00013808
18390.0 0.00013765
18410.0 0.00013723
18430.0 0.00013681
18450.0 0.00013638
18470.0 0.00013595
18490.0 0.00013552
18510.0 0.00013509
18530.0 0.00013465
18550.0 0.00013422
18570.0 0.00013378
18590.0 0.00013334
18610.0 0.0001329
18630.0 0.00013246
18650.0 0.00013202
18670.0 0.00013157
18690.0 0.00013113
18710.0 0.00013069
18730.0 0.00013024
18750.0 0.00012979
18770.0 0.00012934
18790.0 0.00012889
18810.0 0.00012844
18830.0 0.00012799
18850.0 0.00012754
18870.0 0.00012708
18890.0 0.00012663
18910.0 0.00012618
18930.0 0.00012572
18950.0 0.00012527
18970.0 0.00012482
18990.0 0.00012436
19010.0 0.0001239
19030.0 0.00012345
19050.0 0.00012299
19070.0 0.00012254
19090.0 0.00012208
19110.0 0.00012163
19130.0 0.00012117
19150.0 0.00012071
19170.0 0.00012026
19190.0 0.00011981
19210.0 0.00011935
19230.0 0.0001189
19250.0 0.00011845
19270.0 0.00011799
19290.0 0.00011754
19310.0 0.00011709
19330.0 0.00011664
19350.0 0.00011618
19370.0 0.00011574
19390.0 0.00011529
19410.0 0.00011484
19430.0 0.00011439
19450.0 0.00011395
19470.0 0.0001135
19490.0 0.00011306
19510.0 0.00011261
19530.0 0.00011217
19550.0 0.00011173
19570.0 0.00011129
19590.0 0.00011085
19610.0 0.00011041
19630.0 0.00010998
19650.0 0.00010954
19670.0 0.00010911
19690.0 0.00010868
19710.0 0.00010825
19730.0 0.00010782
19750.0 0.00010739
19770.0 0.00010696
19790.0 0.00010654
19810.0 0.00010611
19830.0 0.00010569
19850.0 0.00010526
19870.0 0.00010483
19890.0 0.00010437
19910.0 0.00010388
19930.0 0.00010333
19950.0 0.00010269
19970.0 0.00010191
19990.0 0.00010096
20010.0 9.9865e-05
20030.0 9.8563e-05
20050.0 9.7063e-05
20070.0 9.5457e-05
20090.0 9.3763e-05
20110.0 9.1912e-05
20130.0 9.0079e-05
20150.0 8.8298e-05
20170.0 8.6501e-05
20190.0 8.4721e-05
20210.0 8.3051e-05
20230.0 8.1436e-05
20250.0 7.9825e-05
20270.0 7.8308e-05
20290.0 7.6884e-05
20310.0 7.5487e-05
20330.0 7.4117e-05
20350.0 7.2879e-05
20370.0 7.1683e-05
20390.0 7.0513e-05
20410.0 6.9417e-05
20430.0 6.8401e-05
20450.0 6.7396e-05
20470.0 6.6451e-05
20490.0 6.5589e-05
20510.0 6.478e-05
20530.0 6.4012e-05
20550.0 6.3321e-05
20570.0 6.2708e-05
20590.0 6.2142e-05
20610.0 6.1641e-05
20630.0 6.1212e-05
20650.0 6.084e-05
20670.0 6.0525e-05
20690.0 6.0272e-05
20710.0 6.0072e-05
20730.0 5.9921e-05
20750.0 5.9817e-05
20770.0 5.9745e-05
20790.0 5.9708e-05
20810.0 5.9702e-05
20830.0 5.9712e-05
20850.0 5.973e-05
20870.0 5.9765e-05
20890.0 5.9799e-05
20910.0 5.9813e-05
20930.0 5.9818e-05
20950.0 5.9806e-05
20970.0 5.9763e-05
20990.0 5.9687e-05
21010.0 5.9582e-05
21030.0 5.9435e-05
21050.0 5.9247e-05
21070.0 5.9018e-05
21090.0 5.8742e-05
21110.0 5.8429e-05
21130.0 5.8079e-05
21150.0 5.7684e-05
21170.0 5.7255e-05
21190.0 5.6805e-05
21210.0 5.6315e-05
21230.0 5.5791e-05
21250.0 5.5261e-05
21270.0 5.4715e-05
21290.0 5.4141e-05
21310.0 5.3561e-05
21330.0 5.2996e-05
21350.0 5.2416e-05
21370.0 5.1833e-05
21390.0 5.1272e-05
21410.0 5.0726e-05
21430.0 5.0174e-05
21450.0 4.9659e-05
21470.0 4.9182e-05
21490.0 4.8726e-05
21510.0 4.8303e-05
21530.0 4.7929e-05
21550.0 4.7595e-05
21570.0 4.73e-05
21590.0 4.7057e-05
21610.0 4.6864e-05
21630.0 4.6717e-05
21650.0 4.6624e-05
21670.0 4.6574e-05
21690.0 4.6569e-05
21710.0 4.6611e-05
21730.0 4.6687e-05
21750.0 4.6789e-05
21770.0 4.6934e-05
21790.0 4.7102e-05
21810.0 4.7276e-05
21830.0 4.7464e-05
21850.0 4.7667e-05
21870.0 4.7861e-05
21890.0 4.8038e-05
21910.0 4.8217e-05
21930.0 4.838e-05
21950.0 4.8514e-05
21970.0 4.863e-05
21990.0 4.8731e-05
22010.0 4.8795e-05
22030.0 4.8831e-05
22050.0 4.8846e-05
22070.0 4.8833e-05
22090.0 4.8791e-05
22110.0 4.8727e-05
22130.0 4.864e-05
22150.0 4.8531e-05
22170.0 4.8402e-05
22190.0 4.8253e-05
22210.0 4.8084e-05
22230.0 4.7901e-05
22250.0 4.77e-05
22270.0 4.7479e-05
22290.0 4.7244e-05
22310.0 4.6994e-05
22330.0 4.6717e-05
22350.0 4.6422e-05
22370.0 4.6111e-05
22390.0 4.5774e-05
22410.0 4.5403e-05
22430.0 4.502e-05
22450.0 4.4614e-05
22470.0 4.4169e-05
22490.0 4.37e-05
22510.0 4.322e-05
22530.0 4.2698e-05
22550.0 4.2143e-05
22570.0 4.1587e-05
22590.0 4.1014e-05
22610.0 4.0411e-05
22630.0 3.9804e-05
22650.0 3.9215e-05
22670.0 3.8607e-05
22690.0 3.7998e-05
22710.0 3.7417e-05
22730.0 3.6851e-05
22750.0 3.6276e-05
22770.0 3.5744e-05
22790.0 3.5249e-05
