#lamb flux
1010.0 5.3144e-06
1030.0 5.7211e-06
1050.0 6.4088e-06
1070.0 7.1824e-06
1090.0 8.0038e-06
1110.0 8.855e-06
1130.0 9.7175e-06
1150.0 1.0624e-05
1170.0 1.1555e-05
1190.0 1.2427e-05
1210.0 1.3291e-05
1230.0 1.416e-05
1250.0 1.499e-05
1270.0 1.5754e-05
1290.0 1.6525e-05
1310.0 1.7249e-05
1330.0 1.7894e-05
1350.0 1.851e-05
1370.0 1.9124e-05
1390.0 1.9695e-05
1410.0 2.0233e-05
1430.0 2.081e-05
1450.0 2.1404e-05
1470.0 2.1999e-05
1490.0 2.2644e-05
1510.0 2.3384e-05
1530.0 2.4144e-05
1550.0 2.4964e-05
1570.0 2.5888e-05
1590.0 2.6898e-05
1610.0 2.7966e-05
1630.0 2.9171e-05
1650.0 3.0494e-05
1670.0 3.1885e-05
1690.0 3.3357e-05
1710.0 3.4949e-05
1730.0 3.6626e-05
1750.0 3.8315e-05
1770.0 4.0082e-05
1790.0 4.1904e-05
1810.0 4.371e-05
1830.0 4.5492e-05
1850.0 4.7301e-05
1870.0 4.9026e-05
1890.0 5.0632e-05
1910.0 5.2147e-05
1930.0 5.3553e-05
1950.0 5.4752e-05
1970.0 5.5762e-05
1990.0 5.662e-05
2010.0 5.726e-05
2030.0 5.7659e-05
2050.0 5.7884e-05
2070.0 5.7937e-05
2090.0 5.7747e-05
2110.0 5.7387e-05
2130.0 5.6905e-05
2150.0 5.6281e-05
2170.0 5.5519e-05
2190.0 5.4716e-05
2210.0 5.3871e-05
2230.0 5.2972e-05
2250.0 5.2074e-05
2270.0 5.1234e-05
2290.0 5.0417e-05
2310.0 4.9635e-05
2330.0 4.8955e-05
2350.0 4.8372e-05
2370.0 4.787e-05
2390.0 4.7493e-05
2410.0 4.7281e-05
2430.0 4.7201e-05
2450.0 4.7274e-05
2470.0 4.7558e-05
2490.0 4.8075e-05
2510.0 4.8788e-05
2530.0 4.9843e-05
2550.0 5.1448e-05
2570.0 5.378e-05
2590.0 5.7107e-05
2610.0 6.2212e-05
2630.0 6.9319e-05
2650.0 7.818e-05
2670.0 8.9011e-05
2690.0 0.00010156
2710.0 0.00011431
2730.0 0.00012642
2750.0 0.0001379
2770.0 0.00014766
2790.0 0.00015546
2810.0 0.00016188
2830.0 0.00016737
2850.0 0.0001721
2870.0 0.00017672
2890.0 0.00018161
2910.0 0.00018689
2930.0 0.00019261
2950.0 0.00019895
2970.0 0.00020594
2990.0 0.00021344
3010.0 0.00027283
3030.0 0.00028361
3050.0 0.00029503
3070.0 0.00030664
3090.0 0.00031842
3110.0 0.00032971
3130.0 0.00033965
3150.0 0.00034814
3170.0 0.00035335
3190.0 0.00037672
3210.0 0.00047043
3230.0 0.00061934
3250.0 0.00068856
3270.0 0.00063415
3290.0 0.00054237
3310.0 0.00049396
3330.0 0.00047473
3350.0 0.00047406
3370.0 0.0004789
3390.0 0.00048649
3410.0 0.00049175
3430.0 0.00047843
3450.0 0.00047519
3470.0 0.00047574
3490.0 0.00052571
3510.0 0.00066244
3530.0 0.00079826
3550.0 0.00092582
3570.0 0.0010673
3590.0 0.001146
3610.0 0.0011493
3630.0 0.0011375
3650.0 0.0011738
3670.0 0.0013098
3690.0 0.0015325
3710.0 0.0017556
3730.0 0.0019255
3750.0 0.0020674
3770.0 0.0020561
3790.0 0.0019271
3810.0 0.0017799
3830.0 0.0016118
3850.0 0.0015108
3870.0 0.00152
3890.0 0.001679
3910.0 0.0019043
3930.0 0.0021423
3950.0 0.0024004
3970.0 0.0025625
3990.0 0.0025266
4010.0 0.0023837
4030.0 0.0021128
4050.0 0.001853
4070.0 0.0017189
4090.0 0.0017008
4110.0 0.0017718
4130.0 0.0017993
4150.0 0.0018087
4170.0 0.0018442
4190.0 0.0019234
4210.0 0.0019257
4230.0 0.0019419
4250.0 0.0019721
4270.0 0.0020311
4290.0 0.002103
4310.0 0.002177
4330.0 0.0021654
4350.0 0.0020739
4370.0 0.0019375
4390.0 0.001755
4410.0 0.0015456
4430.0 0.0014083
4450.0 0.0013652
4470.0 0.0013993
4490.0 0.0014994
4510.0 0.0017005
4530.0 0.0020741
4550.0 0.0026419
4570.0 0.0031365
4590.0 0.0035855
4610.0 0.0041309
4630.0 0.0045145
4650.0 0.004482
4670.0 0.0041377
4690.0 0.0036669
4710.0 0.0032078
4730.0 0.0027983
4750.0 0.0024399
4770.0 0.0021958
4790.0 0.0022051
4810.0 0.0023356
4830.0 0.0024283
4850.0 0.0024719
4870.0 0.0025981
4890.0 0.0027472
4910.0 0.0028868
4930.0 0.0030432
4950.0 0.0031563
4970.0 0.0031129
4990.0 0.0028942
5010.0 0.0025855
5030.0 0.0022713
5050.0 0.0020413
5070.0 0.0018954
5090.0 0.0018075
5110.0 0.0017899
5130.0 0.001793
5150.0 0.0018051
5170.0 0.0018861
5190.0 0.0020465
5210.0 0.0022804
5230.0 0.0025128
5250.0 0.0027528
5270.0 0.0030086
5290.0 0.0032312
5310.0 0.0033748
5330.0 0.0034375
5350.0 0.0034131
5370.0 0.0033598
5390.0 0.0033659
5410.0 0.0034694
5430.0 0.0036547
5450.0 0.0038942
5470.0 0.0041024
5490.0 0.0041806
5510.0 0.0041486
5530.0 0.0040678
5550.0 0.0039605
5570.0 0.0038216
5590.0 0.0036828
5610.0 0.0035463
5630.0 0.0033898
5650.0 0.0031773
5670.0 0.0029315
5690.0 0.0027274
5710.0 0.0025801
5730.0 0.0024396
5750.0 0.0023578
5770.0 0.0023482
5790.0 0.0023573
5810.0 0.0023334
5830.0 0.002306
5850.0 0.0022689
5870.0 0.0021889
5890.0 0.00212
5910.0 0.0020551
5930.0 0.0019164
5950.0 0.0017291
5970.0 0.0015497
5990.0 0.0014071
6010.0 0.0013167
6030.0 0.0012704
6050.0 0.0012752
6070.0 0.0013294
6090.0 0.0013664
6110.0 0.0013701
6130.0 0.0013706
6150.0 0.0013846
6170.0 0.0014036
6190.0 0.0014091
6210.0 0.0013841
6230.0 0.0013086
6250.0 0.0012057
6270.0 0.0011096
6290.0 0.0010363
6310.0 0.0010349
6330.0 0.001108
6350.0 0.0012048
6370.0 0.0012854
6390.0 0.0013782
6410.0 0.0014995
6430.0 0.0015933
6450.0 0.0016479
6470.0 0.0016924
6490.0 0.0017336
6510.0 0.0017572
6530.0 0.0017674
6550.0 0.0017854
6570.0 0.0017785
6590.0 0.0017404
6610.0 0.001688
6630.0 0.0016222
6650.0 0.0015344
6670.0 0.0014413
6690.0 0.0013751
6710.0 0.0013303
6730.0 0.0012815
6750.0 0.0012506
6770.0 0.0012604
6790.0 0.0012753
6810.0 0.0012641
6830.0 0.0012401
6850.0 0.0012289
6870.0 0.0012176
6890.0 0.0011932
6910.0 0.0011891
6930.0 0.0011907
6950.0 0.0011788
6970.0 0.0011618
6990.0 0.0011383
7010.0 0.0011069
7030.0 0.0010577
7050.0 0.00098299
7070.0 0.00091592
7090.0 0.0009068
7110.0 0.00093557
7130.0 0.00094852
7150.0 0.00094509
7170.0 0.00096308
7190.0 0.0010054
7210.0 0.0010371
7230.0 0.0010621
7250.0 0.0010864
7270.0 0.0010717
7290.0 0.0010397
7310.0 0.0010273
7330.0 0.0010503
7350.0 0.0010906
7370.0 0.0011175
7390.0 0.0011472
7410.0 0.0011919
7430.0 0.0012242
7450.0 0.0012358
7470.0 0.0012283
7490.0 0.0011738
7510.0 0.0011154
7530.0 0.0011027
7550.0 0.0010827
7570.0 0.0010618
7590.0 0.0010614
7610.0 0.0010682
7630.0 0.0010902
7650.0 0.0011507
7670.0 0.0012303
7690.0 0.0013064
7710.0 0.0013624
7730.0 0.0014126
7750.0 0.0014601
7770.0 0.001502
7790.0 0.0015418
7810.0 0.0015579
7830.0 0.0015235
7850.0 0.0014753
7870.0 0.0014359
7890.0 0.0014091
7910.0 0.0014061
7930.0 0.001387
7950.0 0.0013591
7970.0 0.0013241
7990.0 0.0013031
8010.0 0.0012312
8030.0 0.0012331
8050.0 0.0012321
8070.0 0.001221
8090.0 0.0012124
8110.0 0.0012084
8130.0 0.001215
8150.0 0.0012122
8170.0 0.001201
8190.0 0.0011703
8210.0 0.001119
8230.0 0.0010724
8250.0 0.001055
8270.0 0.0010113
8290.0 0.00091722
8310.0 0.00081745
8330.0 0.0007514
8350.0 0.00072854
8370.0 0.00077048
8390.0 0.00084855
8410.0 0.00090897
8430.0 0.00096222
8450.0 0.0010376
8470.0 0.0011134
8490.0 0.0012027
8510.0 0.0012975
8530.0 0.0013925
8550.0 0.0014685
8570.0 0.0015259
8590.0 0.0015709
8610.0 0.0016078
8630.0 0.0016148
8650.0 0.0015904
8670.0 0.0015976
8690.0 0.0016683
8710.0 0.0017613
8730.0 0.0017996
8750.0 0.0017822
8770.0 0.0017937
8790.0 0.0017977
8810.0 0.0017425
8830.0 0.001619
8850.0 0.0014646
8870.0 0.001351
8890.0 0.0013135
8910.0 0.001277
8930.0 0.0011937
8950.0 0.0011143
8970.0 0.0010873
8990.0 0.0010992
9010.0 0.001094
9030.0 0.0010795
9050.0 0.0010702
9070.0 0.0010645
9090.0 0.0010593
9110.0 0.0010542
9130.0 0.0010491
9150.0 0.0010442
9170.0 0.0010391
9190.0 0.0010345
9210.0 0.0010306
9230.0 0.0010254
9250.0 0.0010204
9270.0 0.0010156
9290.0 0.0010109
9310.0 0.0010063
9330.0 0.0010017
9350.0 0.00099726
9370.0 0.00099286
9390.0 0.00098848
9410.0 0.00098417
9430.0 0.0009797
9450.0 0.00097421
9470.0 0.00096913
9490.0 0.00096614
9510.0 0.00096259
9530.0 0.00095898
9550.0 0.00095515
9570.0 0.00095127
9590.0 0.00094745
9610.0 0.00094362
9630.0 0.00093973
9650.0 0.0009359
9670.0 0.0009322
9690.0 0.00092843
9710.0 0.00092467
9730.0 0.00092102
9750.0 0.00091737
9770.0 0.00091362
9790.0 0.00090999
9810.0 0.00090642
9830.0 0.00090278
9850.0 0.00089906
9870.0 0.00089557
9890.0 0.00089204
9910.0 0.00088844
9930.0 0.00088488
9950.0 0.00087987
9970.0 0.0008767
9990.0 0.0008734
10010.0 0.0008701
10030.0 0.00086668
10050.0 0.00086319
10070.0 0.00085973
10090.0 0.00085629
10110.0 0.00085236
10130.0 0.00084712
10150.0 0.00084376
10170.0 0.00084065
10190.0 0.0008371
10210.0 0.00083365
10230.0 0.00083016
10250.0 0.00082631
10270.0 0.00082242
10290.0 0.00081872
10310.0 0.00081473
10330.0 0.00081049
10350.0 0.00080652
10370.0 0.00080253
10390.0 0.00079823
10410.0 0.00079393
10430.0 0.00078989
10450.0 0.00078554
10470.0 0.00078101
10490.0 0.00077665
10510.0 0.00077227
10530.0 0.00076741
10550.0 0.00076267
10570.0 0.00075814
10590.0 0.00075331
10610.0 0.00074828
10630.0 0.00074348
10650.0 0.00073858
10670.0 0.00073325
10690.0 0.00072803
10710.0 0.00072292
10730.0 0.0007175
10750.0 0.00071176
10770.0 0.00070643
10790.0 0.00070092
10810.0 0.00069507
10830.0 0.00068928
10850.0 0.00068367
10870.0 0.0006775
10890.0 0.00067127
10910.0 0.00066526
10930.0 0.00065909
10950.0 0.00065257
10970.0 0.00064616
10990.0 0.00064
11010.0 0.00064987
11030.0 0.00064298
11050.0 0.00063648
11070.0 0.00063
11090.0 0.00062322
11110.0 0.000617
11130.0 0.00061103
11150.0 0.00060498
11170.0 0.00059909
11190.0 0.00059369
11210.0 0.0005883
11230.0 0.00058296
11250.0 0.00057802
11270.0 0.00057338
11290.0 0.00056875
11310.0 0.00056433
11330.0 0.00056037
11350.0 0.00055645
11370.0 0.00055255
11390.0 0.00054884
11410.0 0.00054519
11430.0 0.00054126
11450.0 0.00053727
11470.0 0.00053321
11490.0 0.00052882
11510.0 0.00052397
11530.0 0.000519
11550.0 0.00051374
11570.0 0.00050791
11590.0 0.00050178
11610.0 0.00049551
11630.0 0.00048872
11650.0 0.00048145
11670.0 0.00047423
11690.0 0.00046679
11710.0 0.00045887
11730.0 0.00045083
11750.0 0.0004429
11770.0 0.00043451
11790.0 0.00042584
11810.0 0.00041726
11830.0 0.00040857
11850.0 0.00039932
11870.0 0.00039023
11890.0 0.00038137
11910.0 0.00037226
11930.0 0.00036311
11950.0 0.0003544
11970.0 0.0003458
11990.0 0.0003371
12010.0 0.00032891
12030.0 0.0003212
12050.0 0.00031364
12070.0 0.00030637
12090.0 0.00029991
12110.0 0.0002938
12130.0 0.00028802
12150.0 0.00028285
12170.0 0.0002783
12190.0 0.00027406
12210.0 0.00027044
12230.0 0.00026748
12250.0 0.00026505
12270.0 0.00026316
12290.0 0.00026187
12310.0 0.00026109
12330.0 0.00026081
12350.0 0.00026099
12370.0 0.00026151
12390.0 0.00026238
12410.0 0.00026362
12430.0 0.00026496
12450.0 0.00026641
12470.0 0.00026802
12490.0 0.00026966
12510.0 0.00027117
12530.0 0.0002727
12550.0 0.0002742
12570.0 0.00027547
12590.0 0.00027654
12610.0 0.00027748
12630.0 0.00027814
12650.0 0.0002784
12670.0 0.00027838
12690.0 0.00027798
12710.0 0.00027716
12730.0 0.00027593
12750.0 0.00027426
12770.0 0.00027215
12790.0 0.00026968
12810.0 0.00026681
12830.0 0.00026355
12850.0 0.00026011
12870.0 0.00025649
12890.0 0.00025261
12910.0 0.00024868
12930.0 0.00024481
12950.0 0.00024084
12970.0 0.00023688
12990.0 0.00023314
13010.0 0.00022952
13030.0 0.00022593
13050.0 0.00022253
13070.0 0.00021936
13090.0 0.00021622
13110.0 0.00021321
13130.0 0.00021039
13150.0 0.00020769
13170.0 0.00020503
13190.0 0.00020254
13210.0 0.00020022
13230.0 0.00019795
13250.0 0.00019578
13270.0 0.00019377
13290.0 0.00019182
13310.0 0.00018991
13330.0 0.00018811
13350.0 0.00018639
13370.0 0.00018468
13390.0 0.00018298
13410.0 0.00018136
13430.0 0.00017974
13450.0 0.00017809
13470.0 0.00017645
13490.0 0.00017483
13510.0 0.00017312
13530.0 0.0001714
13550.0 0.00016971
13570.0 0.00016798
13590.0 0.00016619
13610.0 0.00016442
13630.0 0.00016269
13650.0 0.00016089
13670.0 0.0001591
13690.0 0.00015737
13710.0 0.00015563
13730.0 0.00015383
13750.0 0.00015214
13770.0 0.00015048
13790.0 0.0001488
13810.0 0.00014716
13830.0 0.0001456
13850.0 0.00014403
13870.0 0.00014248
13890.0 0.00014102
13910.0 0.00013962
13930.0 0.00013822
13950.0 0.00013689
13970.0 0.00013568
13990.0 0.00013449
14010.0 0.00013335
14030.0 0.00013229
14050.0 0.00013129
14070.0 0.00013028
14090.0 0.00012934
14110.0 0.00012846
14130.0 0.00012759
14150.0 0.00012673
14170.0 0.00012593
14190.0 0.00012516
14210.0 0.00012439
14230.0 0.00012366
14250.0 0.00012298
14270.0 0.0001223
14290.0 0.00012165
14310.0 0.00012107
14330.0 0.00012052
14350.0 0.00011998
14370.0 0.00011949
14390.0 0.00011904
14410.0 0.00011859
14430.0 0.00011817
14450.0 0.00011779
14470.0 0.00011741
14490.0 0.00011703
14510.0 0.00011667
14530.0 0.00011633
14550.0 0.00011597
14570.0 0.00011561
14590.0 0.00011527
14610.0 0.00011492
14630.0 0.00011457
14650.0 0.00011425
14670.0 0.00011397
14690.0 0.00011374
14710.0 0.00011359
14730.0 0.00011357
14750.0 0.00011369
14770.0 0.000114
14790.0 0.00011454
14810.0 0.00011532
14830.0 0.00011643
14850.0 0.00011787
14870.0 0.00011956
14890.0 0.00012158
14910.0 0.0001239
14930.0 0.00012631
14950.0 0.00012872
14970.0 0.00013115
14990.0 0.00013335
15010.0 0.00013521
15030.0 0.00013677
15050.0 0.00013803
15070.0 0.00013894
15090.0 0.00013965
15110.0 0.00014021
15130.0 0.00014068
15150.0 0.0001411
15170.0 0.00014151
15190.0 0.0001419
15210.0 0.00014231
15230.0 0.00014271
15250.0 0.00014313
15270.0 0.00014355
15290.0 0.00014399
15310.0 0.00014443
15330.0 0.00014488
15350.0 0.00014533
15370.0 0.0001458
15390.0 0.00014627
15410.0 0.00014675
15430.0 0.00014724
15450.0 0.00014774
15470.0 0.00014825
15490.0 0.00014876
15510.0 0.00014928
15530.0 0.0001498
15550.0 0.00015034
15570.0 0.00015088
15590.0 0.00015143
15610.0 0.00015198
15630.0 0.00015254
15650.0 0.00015311
15670.0 0.00015369
15690.0 0.00015427
15710.0 0.00015485
15730.0 0.00015545
15750.0 0.00015604
15770.0 0.00015665
15790.0 0.00015726
15810.0 0.00015787
15830.0 0.00015849
15850.0 0.00015911
15870.0 0.00015974
15890.0 0.00016037
15910.0 0.00016101
15930.0 0.00016166
15950.0 0.0001623
15970.0 0.00016295
15990.0 0.0001636
16010.0 0.00016426
16030.0 0.00016492
16050.0 0.00016558
16070.0 0.00016625
16090.0 0.00016692
16110.0 0.00016759
16130.0 0.00016826
16150.0 0.00016893
16170.0 0.00016961
16190.0 0.00017029
16210.0 0.00017097
16230.0 0.00017165
16250.0 0.00017233
16270.0 0.00017301
16290.0 0.00017369
16310.0 0.00017437
16330.0 0.00017506
16350.0 0.00017574
16370.0 0.00017642
16390.0 0.0001771
16410.0 0.00017777
16430.0 0.00017845
16450.0 0.00017913
16470.0 0.0001798
16490.0 0.00018047
16510.0 0.00018114
16530.0 0.00018181
16550.0 0.00018247
16570.0 0.00018313
16590.0 0.00018378
16610.0 0.00018444
16630.0 0.00018509
16650.0 0.00018573
16670.0 0.00018637
16690.0 0.00018701
16710.0 0.00018763
16730.0 0.00018826
16750.0 0.00018888
16770.0 0.00018949
16790.0 0.0001901
16810.0 0.0001907
16830.0 0.00019129
16850.0 0.00019188
16870.0 0.00019246
16890.0 0.00019303
16910.0 0.0001936
16930.0 0.00019416
16950.0 0.00019471
16970.0 0.00019525
16990.0 0.00019578
17010.0 0.0001963
17030.0 0.00019682
17050.0 0.00019732
17070.0 0.00019782
17090.0 0.0001983
17110.0 0.00019878
17130.0 0.00019924
17150.0 0.0001997
17170.0 0.00020015
17190.0 0.00020058
17210.0 0.000201
17230.0 0.00020141
17250.0 0.00020181
17270.0 0.0002022
17290.0 0.00020258
17310.0 0.00020294
17330.0 0.00020329
17350.0 0.00020363
17370.0 0.00020396
17390.0 0.00020428
17410.0 0.00020458
17430.0 0.00020487
17450.0 0.00020514
17470.0 0.00020541
17490.0 0.00020566
17510.0 0.00020589
17530.0 0.00020611
17550.0 0.00020632
17570.0 0.00020652
17590.0 0.0002067
17610.0 0.00020686
17630.0 0.00020701
17650.0 0.00020715
17670.0 0.00020727
17690.0 0.00020738
17710.0 0.00020748
17730.0 0.00020756
17750.0 0.00020762
17770.0 0.00020767
17790.0 0.00020771
17810.0 0.00020773
17830.0 0.00020773
17850.0 0.00020773
17870.0 0.0002077
17890.0 0.00020766
17910.0 0.00020761
17930.0 0.00020754
17950.0 0.00020746
17970.0 0.00020736
17990.0 0.00020725
18010.0 0.00020712
18030.0 0.00020698
18050.0 0.00020682
18070.0 0.00020665
18090.0 0.00020646
18110.0 0.00020626
18130.0 0.00020604
18150.0 0.00020581
18170.0 0.00020557
18190.0 0.00020531
18210.0 0.00020503
18230.0 0.00020474
18250.0 0.00020444
18270.0 0.00020413
18290.0 0.0002038
18310.0 0.00020345
18330.0 0.0002031
18350.0 0.00020272
18370.0 0.00020234
18390.0 0.00020194
18410.0 0.00020153
18430.0 0.00020111
18450.0 0.00020067
18470.0 0.00020022
18490.0 0.00019976
18510.0 0.00019928
18530.0 0.00019879
18550.0 0.00019829
18570.0 0.00019778
18590.0 0.00019726
18610.0 0.00019672
18630.0 0.00019617
18650.0 0.00019561
18670.0 0.00019504
18690.0 0.00019446
18710.0 0.00019387
18730.0 0.00019327
18750.0 0.00019266
18770.0 0.00019203
18790.0 0.0001914
18810.0 0.00019076
18830.0 0.0001901
18850.0 0.00018944
18870.0 0.00018877
18890.0 0.00018808
18910.0 0.00018739
18930.0 0.00018669
18950.0 0.00018599
18970.0 0.00018527
18990.0 0.00018455
19010.0 0.00018381
19030.0 0.00018307
19050.0 0.00018232
19070.0 0.00018157
19090.0 0.00018081
19110.0 0.00018004
19130.0 0.00017926
19150.0 0.00017848
19170.0 0.00017769
19190.0 0.00017689
19210.0 0.00017609
19230.0 0.00017528
19250.0 0.00017447
19270.0 0.00017365
19290.0 0.00017282
19310.0 0.000172
19330.0 0.00017116
19350.0 0.00017032
19370.0 0.00016948
19390.0 0.00016863
19410.0 0.00016778
19430.0 0.00016693
19450.0 0.00016607
19470.0 0.00016521
19490.0 0.00016434
19510.0 0.00016347
19530.0 0.0001626
19550.0 0.00016172
19570.0 0.00016085
19590.0 0.00015997
19610.0 0.00015909
19630.0 0.0001582
19650.0 0.00015732
19670.0 0.00015643
19690.0 0.00015554
19710.0 0.00015465
19730.0 0.00015376
19750.0 0.00015287
19770.0 0.00015197
19790.0 0.00015108
19810.0 0.00015018
19830.0 0.00014929
19850.0 0.00014838
19870.0 0.00014746
19890.0 0.00014652
19910.0 0.00014552
19930.0 0.00014445
19950.0 0.00014325
19970.0 0.00014188
19990.0 0.00014029
20010.0 0.00013852
20030.0 0.00013649
20050.0 0.00013421
20070.0 0.00013181
20090.0 0.0001293
20110.0 0.0001266
20130.0 0.00012392
20150.0 0.00012131
20170.0 0.00011868
20190.0 0.00011606
20210.0 0.00011359
20230.0 0.00011117
20250.0 0.00010877
20270.0 0.00010649
20290.0 0.00010434
20310.0 0.00010225
20330.0 0.00010021
20350.0 9.8374e-05
20370.0 9.6623e-05
20390.0 9.4949e-05
20410.0 9.3404e-05
20430.0 9.1992e-05
20450.0 9.0642e-05
20470.0 8.94e-05
20490.0 8.8278e-05
20510.0 8.7241e-05
20530.0 8.6279e-05
20550.0 8.5406e-05
20570.0 8.4611e-05
20590.0 8.387e-05
20610.0 8.3186e-05
20630.0 8.2551e-05
20650.0 8.1951e-05
20670.0 8.1382e-05
20690.0 8.0833e-05
20710.0 8.0296e-05
20730.0 7.9765e-05
20750.0 7.923e-05
20770.0 7.8685e-05
20790.0 7.8126e-05
20810.0 7.7545e-05
20830.0 7.694e-05
20850.0 7.6311e-05
20870.0 7.5646e-05
20890.0 7.4948e-05
20910.0 7.4228e-05
20930.0 7.3474e-05
20950.0 7.2685e-05
20970.0 7.1878e-05
20990.0 7.1054e-05
21010.0 7.0192e-05
21030.0 6.9317e-05
21050.0 6.8442e-05
21070.0 6.755e-05
21090.0 6.6637e-05
21110.0 6.5743e-05
21130.0 6.4855e-05
21150.0 6.3956e-05
21170.0 6.3067e-05
21190.0 6.2204e-05
21210.0 6.1336e-05
21230.0 6.0474e-05
21250.0 5.9644e-05
21270.0 5.8832e-05
21290.0 5.8026e-05
21310.0 5.7243e-05
21330.0 5.6497e-05
21350.0 5.576e-05
21370.0 5.5042e-05
21390.0 5.4359e-05
21410.0 5.3701e-05
21430.0 5.3054e-05
21450.0 5.2444e-05
21470.0 5.1866e-05
21490.0 5.1309e-05
21510.0 5.0777e-05
21530.0 5.0277e-05
21550.0 4.9799e-05
21570.0 4.934e-05
21590.0 4.8906e-05
21610.0 4.8493e-05
21630.0 4.8096e-05
21650.0 4.7712e-05
21670.0 4.7345e-05
21690.0 4.6988e-05
21710.0 4.664e-05
21730.0 4.6299e-05
21750.0 4.5964e-05
21770.0 4.5633e-05
21790.0 4.5305e-05
21810.0 4.498e-05
21830.0 4.4658e-05
21850.0 4.4336e-05
21870.0 4.4017e-05
21890.0 4.3699e-05
21910.0 4.3381e-05
21930.0 4.3064e-05
21950.0 4.2749e-05
21970.0 4.2433e-05
21990.0 4.2114e-05
22010.0 4.1796e-05
22030.0 4.1476e-05
22050.0 4.1152e-05
22070.0 4.0824e-05
22090.0 4.0494e-05
22110.0 4.0157e-05
22130.0 3.9811e-05
22150.0 3.9461e-05
22170.0 3.9106e-05
22190.0 3.8738e-05
22210.0 3.8361e-05
22230.0 3.7984e-05
22250.0 3.7595e-05
22270.0 3.7195e-05
22290.0 3.6793e-05
22310.0 3.6386e-05
22330.0 3.5962e-05
22350.0 3.5533e-05
22370.0 3.5104e-05
22390.0 3.4663e-05
22410.0 3.4207e-05
22430.0 3.3756e-05
22450.0 3.33e-05
22470.0 3.2828e-05
22490.0 3.2354e-05
22510.0 3.1885e-05
22530.0 3.1401e-05
22550.0 3.0908e-05
22570.0 3.0427e-05
22590.0 2.9946e-05
22610.0 2.9456e-05
22630.0 2.8974e-05
22650.0 2.8511e-05
22670.0 2.8043e-05
22690.0 2.7582e-05
22710.0 2.7142e-05
22730.0 2.6714e-05
22750.0 2.6286e-05
22770.0 2.5883e-05
22790.0 2.5504e-05
22810.0 2.5134e-05
22830.0 2.4779e-05
22850.0 2.445e-05
22870.0 2.4135e-05
22890.0 2.3831e-05
22910.0 2.3547e-05
