#lamb flux
1010.0 1.9726e-10
1030.0 2.4811e-10
1050.0 3.0659e-10
1070.0 3.7243e-10
1090.0 4.4721e-10
1110.0 5.2392e-10
1130.0 6.0113e-10
1150.0 6.8201e-10
1170.0 7.6544e-10
1190.0 8.4456e-10
1210.0 9.2476e-10
1230.0 1.0076e-09
1250.0 1.0888e-09
1270.0 1.1677e-09
1290.0 1.251e-09
1310.0 1.3343e-09
1330.0 1.4141e-09
1350.0 1.4948e-09
1370.0 1.5782e-09
1390.0 1.6594e-09
1410.0 1.7383e-09
1430.0 1.8207e-09
1450.0 1.9031e-09
1470.0 1.9827e-09
1490.0 2.0632e-09
1510.0 2.1482e-09
1530.0 2.2288e-09
1550.0 2.3083e-09
1570.0 2.3906e-09
1590.0 2.4729e-09
1610.0 2.5517e-09
1630.0 2.6329e-09
1650.0 2.7163e-09
1670.0 2.797e-09
1690.0 2.8768e-09
1710.0 2.9597e-09
1730.0 3.0432e-09
1750.0 3.1218e-09
1770.0 3.2029e-09
1790.0 3.2857e-09
1810.0 3.366e-09
1830.0 3.4451e-09
1850.0 3.5292e-09
1870.0 3.6114e-09
1890.0 3.691e-09
1910.0 3.7725e-09
1930.0 3.8561e-09
1950.0 3.9363e-09
1970.0 4.0158e-09
1990.0 4.0987e-09
2010.0 4.1804e-09
2030.0 4.2597e-09
2050.0 4.3417e-09
2070.0 4.4261e-09
2090.0 4.5063e-09
2110.0 4.5866e-09
2130.0 4.6698e-09
2150.0 4.7518e-09
2170.0 4.831e-09
2190.0 4.9135e-09
2210.0 4.9971e-09
2230.0 5.0781e-09
2250.0 5.1593e-09
2270.0 5.2446e-09
2290.0 5.3281e-09
2310.0 5.4089e-09
2330.0 5.4928e-09
2350.0 5.578e-09
2370.0 5.6603e-09
2390.0 5.7438e-09
2410.0 5.8315e-09
2430.0 5.9183e-09
2450.0 6.0065e-09
2470.0 6.1044e-09
2490.0 6.2183e-09
2510.0 6.3498e-09
2530.0 6.5201e-09
2550.0 6.7558e-09
2570.0 7.0727e-09
2590.0 7.492e-09
2610.0 8.0914e-09
2630.0 8.8862e-09
2650.0 9.8582e-09
2670.0 1.1058e-08
2690.0 1.2512e-08
2710.0 1.4105e-08
2730.0 1.578e-08
2750.0 1.7593e-08
2770.0 1.9393e-08
2790.0 2.1067e-08
2810.0 2.2639e-08
2830.0 2.4111e-08
2850.0 2.5348e-08
2870.0 2.6443e-08
2890.0 2.7463e-08
2910.0 2.8416e-08
2930.0 2.9319e-08
2950.0 3.0248e-08
2970.0 3.1213e-08
2990.0 3.2199e-08
3010.0 3.3226e-08
3030.0 3.4322e-08
3050.0 3.5471e-08
3070.0 3.6639e-08
3090.0 3.7877e-08
3110.0 3.9195e-08
3130.0 4.0608e-08
3150.0 4.2215e-08
3170.0 4.4265e-08
3190.0 4.6934e-08
3210.0 5.0428e-08
3230.0 5.5077e-08
3250.0 6.0985e-08
3270.0 6.6606e-08
3290.0 7.5525e-08
3310.0 9.3796e-08
3330.0 9.9867e-08
3350.0 1.0285e-07
3370.0 1.0572e-07
3390.0 1.0864e-07
3410.0 1.1159e-07
3430.0 1.1456e-07
3450.0 1.1754e-07
3470.0 1.2046e-07
3490.0 1.2327e-07
3510.0 1.2582e-07
3530.0 1.247e-07
3550.0 1.2125e-07
3570.0 1.2304e-07
3590.0 1.308e-07
3610.0 1.4256e-07
3630.0 1.4724e-07
3650.0 1.4142e-07
3670.0 1.2989e-07
3690.0 1.2318e-07
3710.0 1.2474e-07
3730.0 1.2884e-07
3750.0 1.3105e-07
3770.0 1.3546e-07
3790.0 1.4039e-07
3810.0 1.384e-07
3830.0 1.2899e-07
3850.0 1.2056e-07
3870.0 1.1656e-07
3890.0 1.1523e-07
3910.0 1.1264e-07
3930.0 1.1134e-07
3950.0 1.1448e-07
3970.0 1.1815e-07
3990.0 1.1922e-07
4010.0 1.1484e-07
4030.0 1.0859e-07
4050.0 1.0458e-07
4070.0 1.0118e-07
4090.0 9.8424e-08
4110.0 9.4827e-08
4130.0 8.9157e-08
4150.0 8.3454e-08
4170.0 8.007e-08
4190.0 7.4664e-08
4210.0 6.7592e-08
4230.0 6.0434e-08
4250.0 5.3639e-08
4270.0 4.8564e-08
4290.0 4.4813e-08
4310.0 4.2827e-08
4330.0 4.2756e-08
4350.0 4.2967e-08
4370.0 4.3378e-08
4390.0 4.4981e-08
4410.0 4.6089e-08
4430.0 4.4493e-08
4450.0 4.0397e-08
4470.0 3.6818e-08
4490.0 3.4872e-08
4510.0 3.3621e-08
4530.0 3.2996e-08
4550.0 3.2459e-08
4570.0 3.2323e-08
4590.0 3.2766e-08
4610.0 3.3772e-08
4630.0 3.4372e-08
4650.0 3.4667e-08
4670.0 3.3825e-08
4690.0 3.1812e-08
4710.0 2.9807e-08
4730.0 2.8508e-08
4750.0 2.771e-08
4770.0 2.781e-08
4790.0 2.7702e-08
4810.0 2.7108e-08
4830.0 2.7162e-08
4850.0 2.8009e-08
4870.0 2.8288e-08
4890.0 2.7779e-08
4910.0 2.7135e-08
4930.0 2.559e-08
4950.0 2.3361e-08
4970.0 2.1834e-08
4990.0 2.0582e-08
5010.0 2.0314e-08
5030.0 2.0998e-08
5050.0 2.1536e-08
5070.0 2.2341e-08
5090.0 2.3692e-08
5110.0 2.4052e-08
5130.0 2.4262e-08
5150.0 2.471e-08
5170.0 2.4918e-08
5190.0 2.5571e-08
5210.0 2.5704e-08
5230.0 2.5439e-08
5250.0 2.5644e-08
5270.0 2.6002e-08
5290.0 2.6072e-08
5310.0 2.5877e-08
5330.0 2.5386e-08
5350.0 2.504e-08
5370.0 2.4774e-08
5390.0 2.4445e-08
5410.0 2.4174e-08
5430.0 2.4165e-08
5450.0 2.452e-08
5470.0 2.4975e-08
5490.0 2.5684e-08
5510.0 2.6462e-08
5530.0 2.6788e-08
5550.0 2.7187e-08
5570.0 2.7246e-08
5590.0 2.6681e-08
5610.0 2.6488e-08
5630.0 2.6687e-08
5650.0 2.6365e-08
5670.0 2.5781e-08
5690.0 2.5009e-08
5710.0 2.4943e-08
5730.0 2.5206e-08
5750.0 2.4132e-08
5770.0 2.2894e-08
5790.0 2.1047e-08
5810.0 1.8411e-08
5830.0 1.9847e-08
5850.0 2.1971e-08
5870.0 2.2447e-08
5890.0 2.2568e-08
5910.0 2.2752e-08
5930.0 2.2704e-08
5950.0 2.2329e-08
5970.0 2.2062e-08
5990.0 2.1744e-08
6010.0 2.1082e-08
6030.0 2.036e-08
6050.0 2.0042e-08
6070.0 1.9951e-08
6090.0 1.9648e-08
6110.0 1.8994e-08
6130.0 1.8347e-08
6150.0 1.7611e-08
6170.0 1.6875e-08
6190.0 1.6118e-08
6210.0 1.555e-08
6230.0 1.5324e-08
6250.0 1.4999e-08
6270.0 1.4686e-08
6290.0 1.4572e-08
6310.0 1.4478e-08
6330.0 1.416e-08
6350.0 1.3699e-08
6370.0 1.3437e-08
6390.0 1.3172e-08
6410.0 1.2805e-08
6430.0 1.2458e-08
6450.0 1.2184e-08
6470.0 1.1923e-08
6490.0 1.1742e-08
6510.0 1.1539e-08
6530.0 1.1246e-08
6550.0 1.0997e-08
6570.0 1.0827e-08
6590.0 1.0809e-08
6610.0 1.0741e-08
6630.0 1.0382e-08
6650.0 1.0089e-08
6670.0 9.9838e-09
6690.0 9.8267e-09
6710.0 9.5907e-09
6730.0 9.5059e-09
6750.0 9.5798e-09
6770.0 1.0149e-08
6790.0 1.1342e-08
6810.0 1.0771e-08
6830.0 9.4608e-09
6850.0 9.0871e-09
6870.0 8.948e-09
6890.0 8.949e-09
6910.0 8.9681e-09
6930.0 8.9885e-09
6950.0 8.9609e-09
6970.0 8.7334e-09
6990.0 8.6546e-09
7010.0 8.7834e-09
7030.0 8.8247e-09
7050.0 8.6966e-09
7070.0 8.6085e-09
7090.0 8.6642e-09
7110.0 8.866e-09
7130.0 8.895e-09
7150.0 8.9279e-09
7170.0 8.9755e-09
7190.0 9.0999e-09
7210.0 9.1983e-09
7230.0 9.2974e-09
7250.0 9.4212e-09
7270.0 9.5098e-09
7290.0 9.6597e-09
7310.0 9.8376e-09
7330.0 9.7615e-09
7350.0 9.5566e-09
7370.0 9.4267e-09
7390.0 9.404e-09
7410.0 9.4428e-09
7430.0 9.5605e-09
7450.0 9.6199e-09
7470.0 9.7563e-09
7490.0 9.7004e-09
7510.0 9.5948e-09
7530.0 9.7075e-09
7550.0 1.0008e-08
7570.0 9.9829e-09
7590.0 9.4675e-09
7610.0 9.3889e-09
7630.0 9.9207e-09
7650.0 1.012e-08
7670.0 1.0188e-08
7690.0 1.0641e-08
7710.0 1.0985e-08
7730.0 1.1091e-08
7750.0 1.1669e-08
7770.0 1.137e-08
7790.0 1.1101e-08
7810.0 1.176e-08
7830.0 1.2211e-08
7850.0 1.2517e-08
7870.0 1.2763e-08
7890.0 1.2861e-08
7910.0 1.2767e-08
7930.0 1.2855e-08
7950.0 1.3435e-08
7970.0 1.3432e-08
7990.0 1.2511e-08
8010.0 1.2001e-08
8030.0 1.2242e-08
8050.0 1.2504e-08
8070.0 1.1311e-08
8090.0 7.399e-09
8110.0 7.7265e-09
8130.0 1.1034e-08
8150.0 1.1884e-08
8170.0 1.2356e-08
8190.0 1.2624e-08
8210.0 1.2465e-08
8230.0 1.3514e-08
8250.0 1.3809e-08
8270.0 1.3058e-08
8290.0 1.2542e-08
8310.0 1.2359e-08
8330.0 1.3035e-08
8350.0 1.3651e-08
8370.0 1.3393e-08
8390.0 1.2772e-08
8410.0 1.276e-08
8430.0 1.1955e-08
8450.0 1.2218e-08
8470.0 1.3351e-08
8490.0 1.3391e-08
8510.0 1.2417e-08
8530.0 1.1637e-08
8550.0 1.1155e-08
8570.0 1.0513e-08
8590.0 1.0814e-08
8610.0 1.1475e-08
8630.0 1.1782e-08
8650.0 1.1986e-08
8670.0 1.1657e-08
8690.0 1.1385e-08
8710.0 1.0589e-08
8730.0 1.0209e-08
8750.0 1.0626e-08
8770.0 1.0793e-08
8790.0 1.0759e-08
8810.0 1.0708e-08
8830.0 1.0937e-08
8850.0 1.1484e-08
8870.0 1.0723e-08
8890.0 1.0114e-08
8910.0 9.9652e-09
8930.0 9.3665e-09
8950.0 9.0239e-09
8970.0 9.0201e-09
8990.0 8.6345e-09
9010.0 8.1059e-09
9030.0 7.9219e-09
9050.0 7.8559e-09
9070.0 7.7971e-09
9090.0 7.7379e-09
9110.0 7.6784e-09
9130.0 7.6185e-09
9150.0 7.5585e-09
9170.0 7.4982e-09
9190.0 7.4378e-09
9210.0 7.3773e-09
9230.0 7.3168e-09
9250.0 7.2563e-09
9270.0 7.1959e-09
9290.0 7.1355e-09
9310.0 7.0753e-09
9330.0 7.0152e-09
9350.0 6.9554e-09
9370.0 6.8958e-09
9390.0 6.8365e-09
9410.0 6.7775e-09
9430.0 6.7189e-09
9450.0 6.6605e-09
9470.0 6.6026e-09
9490.0 6.5451e-09
9510.0 6.488e-09
9530.0 6.4313e-09
9550.0 6.3752e-09
9570.0 6.3194e-09
9590.0 6.2642e-09
9610.0 6.2095e-09
9630.0 6.1553e-09
9650.0 6.1016e-09
9670.0 6.0485e-09
9690.0 5.9959e-09
9710.0 5.9439e-09
9730.0 5.8924e-09
9750.0 5.8415e-09
9770.0 5.7912e-09
9790.0 5.7414e-09
9810.0 5.6922e-09
9830.0 5.6436e-09
9850.0 5.5955e-09
9870.0 5.5481e-09
9890.0 5.5012e-09
9910.0 5.4548e-09
9930.0 5.4091e-09
9950.0 5.3639e-09
9970.0 5.3193e-09
9990.0 5.2752e-09
10010.0 5.2317e-09
10030.0 5.1888e-09
10050.0 5.1464e-09
10070.0 5.1046e-09
10090.0 5.0633e-09
10110.0 5.0225e-09
10130.0 4.9823e-09
10150.0 4.9426e-09
10170.0 4.9034e-09
10190.0 4.8648e-09
10210.0 4.8266e-09
10230.0 4.7889e-09
10250.0 4.7518e-09
10270.0 4.715e-09
10290.0 4.6788e-09
10310.0 4.6431e-09
10330.0 4.6078e-09
10350.0 4.5729e-09
10370.0 4.5386e-09
10390.0 4.5041e-09
10410.0 4.4636e-09
10430.0 4.4214e-09
10450.0 4.3964e-09
10470.0 4.3676e-09
10490.0 4.3383e-09
10510.0 4.3086e-09
10530.0 4.2777e-09
10550.0 4.2473e-09
10570.0 4.2176e-09
10590.0 4.1876e-09
10610.0 4.1577e-09
10630.0 4.1289e-09
10650.0 4.1002e-09
10670.0 4.0712e-09
10690.0 4.0429e-09
10710.0 4.0153e-09
10730.0 3.9876e-09
10750.0 3.9596e-09
10770.0 3.9331e-09
10790.0 3.9066e-09
10810.0 3.8798e-09
10830.0 3.8537e-09
10850.0 3.8284e-09
10870.0 3.8023e-09
10890.0 3.7765e-09
10910.0 3.7515e-09
10930.0 3.7264e-09
10950.0 3.7007e-09
10970.0 3.6753e-09
10990.0 3.6503e-09
11010.0 3.6247e-09
11030.0 3.5983e-09
11050.0 3.5721e-09
11070.0 3.5455e-09
11090.0 3.5173e-09
11110.0 3.4899e-09
11130.0 3.4625e-09
11150.0 3.434e-09
11170.0 3.4053e-09
11190.0 3.3774e-09
11210.0 3.3489e-09
11230.0 3.3197e-09
11250.0 3.2914e-09
11270.0 3.2639e-09
11290.0 3.236e-09
11310.0 3.2089e-09
11330.0 3.1839e-09
11350.0 3.1594e-09
11370.0 3.1356e-09
11390.0 3.1135e-09
11410.0 3.0927e-09
11430.0 3.0721e-09
11450.0 3.0526e-09
11470.0 3.0344e-09
11490.0 3.0163e-09
11510.0 2.9982e-09
11530.0 2.981e-09
11550.0 2.9639e-09
11570.0 2.9461e-09
11590.0 2.9283e-09
11610.0 2.9108e-09
11630.0 2.8923e-09
11650.0 2.8729e-09
11670.0 2.854e-09
11690.0 2.8347e-09
11710.0 2.8144e-09
11730.0 2.7941e-09
11750.0 2.7743e-09
11770.0 2.7536e-09
11790.0 2.7327e-09
11810.0 2.7124e-09
11830.0 2.6923e-09
11850.0 2.6715e-09
11870.0 2.6516e-09
11890.0 2.6329e-09
11910.0 2.6142e-09
11930.0 2.5959e-09
11950.0 2.5792e-09
11970.0 2.563e-09
11990.0 2.5472e-09
12010.0 2.5328e-09
12030.0 2.5196e-09
12050.0 2.507e-09
12070.0 2.4951e-09
12090.0 2.4848e-09
12110.0 2.4752e-09
12130.0 2.4662e-09
12150.0 2.4581e-09
12170.0 2.4507e-09
12190.0 2.4435e-09
12210.0 2.4366e-09
12230.0 2.43e-09
12250.0 2.4233e-09
12270.0 2.4161e-09
12290.0 2.4086e-09
12310.0 2.4008e-09
12330.0 2.3918e-09
12350.0 2.3819e-09
12370.0 2.3713e-09
12390.0 2.3596e-09
12410.0 2.3461e-09
12430.0 2.3321e-09
12450.0 2.3172e-09
12470.0 2.3008e-09
12490.0 2.2834e-09
12510.0 2.2659e-09
12530.0 2.2471e-09
12550.0 2.2272e-09
12570.0 2.2074e-09
12590.0 2.1874e-09
12610.0 2.1663e-09
12630.0 2.1451e-09
12650.0 2.1249e-09
12670.0 2.1042e-09
12690.0 2.0834e-09
12710.0 2.0637e-09
12730.0 2.0445e-09
12750.0 2.0249e-09
12770.0 2.0065e-09
12790.0 1.9893e-09
12810.0 1.9726e-09
12830.0 1.9563e-09
12850.0 1.9417e-09
12870.0 1.9282e-09
12890.0 1.9152e-09
12910.0 1.9035e-09
12930.0 1.8932e-09
12950.0 1.8836e-09
12970.0 1.8751e-09
12990.0 1.8681e-09
13010.0 1.8623e-09
13030.0 1.8574e-09
13050.0 1.8538e-09
13070.0 1.8511e-09
13090.0 1.8492e-09
13110.0 1.848e-09
13130.0 1.8473e-09
13150.0 1.8469e-09
13170.0 1.8465e-09
13190.0 1.8459e-09
13210.0 1.8449e-09
13230.0 1.8432e-09
13250.0 1.8407e-09
13270.0 1.8374e-09
13290.0 1.833e-09
13310.0 1.8273e-09
13330.0 1.8206e-09
13350.0 1.813e-09
13370.0 1.804e-09
13390.0 1.7936e-09
13410.0 1.7829e-09
13430.0 1.7712e-09
13450.0 1.7581e-09
13470.0 1.7446e-09
13490.0 1.7307e-09
13510.0 1.7153e-09
13530.0 1.6994e-09
13550.0 1.6837e-09
13570.0 1.6672e-09
13590.0 1.6499e-09
13610.0 1.6329e-09
13630.0 1.616e-09
13650.0 1.5982e-09
13670.0 1.5804e-09
13690.0 1.5632e-09
13710.0 1.5457e-09
13730.0 1.5274e-09
13750.0 1.5103e-09
13770.0 1.4935e-09
13790.0 1.4764e-09
13810.0 1.4598e-09
13830.0 1.4443e-09
13850.0 1.4287e-09
13870.0 1.4132e-09
13890.0 1.3988e-09
13910.0 1.385e-09
13930.0 1.3712e-09
13950.0 1.358e-09
13970.0 1.3459e-09
13990.0 1.334e-09
14010.0 1.3224e-09
14030.0 1.3116e-09
14050.0 1.3014e-09
14070.0 1.2911e-09
14090.0 1.2815e-09
14110.0 1.2727e-09
14130.0 1.2641e-09
14150.0 1.2557e-09
14170.0 1.2481e-09
14190.0 1.2409e-09
14210.0 1.2338e-09
14230.0 1.227e-09
14250.0 1.2208e-09
14270.0 1.2144e-09
14290.0 1.2082e-09
14310.0 1.2024e-09
14330.0 1.1968e-09
14350.0 1.191e-09
14370.0 1.1855e-09
14390.0 1.1803e-09
14410.0 1.1749e-09
14430.0 1.1696e-09
14450.0 1.1645e-09
14470.0 1.1595e-09
14490.0 1.1542e-09
14510.0 1.1492e-09
14530.0 1.1444e-09
14550.0 1.1394e-09
14570.0 1.1343e-09
14590.0 1.1294e-09
14610.0 1.1244e-09
14630.0 1.1192e-09
14650.0 1.1141e-09
14670.0 1.109e-09
14690.0 1.1037e-09
14710.0 1.0982e-09
14730.0 1.093e-09
14750.0 1.0876e-09
14770.0 1.082e-09
14790.0 1.0764e-09
14810.0 1.0708e-09
14830.0 1.0648e-09
14850.0 1.0588e-09
14870.0 1.0529e-09
14890.0 1.0469e-09
14910.0 1.0407e-09
14930.0 1.0348e-09
14950.0 1.0293e-09
14970.0 1.0238e-09
14990.0 1.0189e-09
15010.0 1.0146e-09
15030.0 1.0106e-09
15050.0 1.007e-09
15070.0 1.0039e-09
15090.0 1.0012e-09
15110.0 9.9846e-10
15130.0 9.9591e-10
15150.0 9.9352e-10
15170.0 9.9106e-10
15190.0 9.8858e-10
15210.0 9.8619e-10
15230.0 9.8381e-10
15250.0 9.8133e-10
15270.0 9.7887e-10
15290.0 9.7653e-10
15310.0 9.7411e-10
15330.0 9.7166e-10
15350.0 9.6928e-10
15370.0 9.6692e-10
15390.0 9.6442e-10
15410.0 9.6199e-10
15430.0 9.5963e-10
15450.0 9.572e-10
15470.0 9.5472e-10
15490.0 9.5235e-10
15510.0 9.4998e-10
15530.0 9.4752e-10
15550.0 9.451e-10
15570.0 9.4275e-10
15590.0 9.403e-10
15610.0 9.3781e-10
15630.0 9.3545e-10
15650.0 9.3306e-10
15670.0 9.3059e-10
15690.0 9.2818e-10
15710.0 9.2584e-10
15730.0 9.2339e-10
15750.0 9.2094e-10
15770.0 9.1857e-10
15790.0 9.1618e-10
15810.0 9.1367e-10
15830.0 9.1126e-10
15850.0 9.0891e-10
15870.0 9.0647e-10
15890.0 9.0403e-10
15910.0 9.0168e-10
15930.0 8.9928e-10
15950.0 8.9679e-10
15970.0 8.9439e-10
15990.0 8.9202e-10
16010.0 8.8957e-10
16030.0 8.8709e-10
16050.0 8.8475e-10
16070.0 8.8236e-10
16090.0 8.799e-10
16110.0 8.775e-10
16130.0 8.7516e-10
16150.0 8.7266e-10
16170.0 8.7021e-10
16190.0 8.6785e-10
16210.0 8.6544e-10
16230.0 8.6297e-10
16250.0 8.6058e-10
16270.0 8.5823e-10
16290.0 8.5577e-10
16310.0 8.5334e-10
16330.0 8.5098e-10
16350.0 8.4857e-10
16370.0 8.4605e-10
16390.0 8.4368e-10
16410.0 8.4131e-10
16430.0 8.3886e-10
16450.0 8.3643e-10
16470.0 8.341e-10
16490.0 8.3166e-10
16510.0 8.2919e-10
16530.0 8.2681e-10
16550.0 8.2443e-10
16570.0 8.2195e-10
16590.0 8.195e-10
16610.0 8.1717e-10
16630.0 8.1474e-10
16650.0 8.1229e-10
16670.0 8.0992e-10
16690.0 8.0755e-10
16710.0 8.0505e-10
16730.0 8.0263e-10
16750.0 8.0027e-10
16770.0 7.9784e-10
16790.0 7.9536e-10
16810.0 7.9301e-10
16830.0 7.9063e-10
16850.0 7.8817e-10
16870.0 7.8576e-10
16890.0 7.8341e-10
16910.0 7.8095e-10
16930.0 7.7846e-10
16950.0 7.761e-10
16970.0 7.7371e-10
16990.0 7.7125e-10
17010.0 7.6884e-10
17030.0 7.665e-10
17050.0 7.6405e-10
17070.0 7.616e-10
17090.0 7.5923e-10
17110.0 7.5684e-10
17130.0 7.5433e-10
17150.0 7.5193e-10
17170.0 7.4958e-10
17190.0 7.4714e-10
17210.0 7.447e-10
17230.0 7.4235e-10
17250.0 7.3994e-10
17270.0 7.3745e-10
17290.0 7.3506e-10
17310.0 7.3269e-10
17330.0 7.3023e-10
17350.0 7.2776e-10
17370.0 7.2543e-10
17390.0 7.2302e-10
17410.0 7.2056e-10
17430.0 7.1818e-10
17450.0 7.1583e-10
17470.0 7.1333e-10
17490.0 7.1088e-10
17510.0 7.0853e-10
17530.0 7.0611e-10
17550.0 7.0364e-10
17570.0 7.0126e-10
17590.0 6.9891e-10
17610.0 6.9644e-10
17630.0 6.9402e-10
17650.0 6.9166e-10
17670.0 6.8924e-10
17690.0 6.8672e-10
17710.0 6.8436e-10
17730.0 6.8198e-10
17750.0 6.7953e-10
17770.0 6.7711e-10
17790.0 6.7478e-10
17810.0 6.7233e-10
17830.0 6.6986e-10
17850.0 6.6748e-10
17870.0 6.651e-10
17890.0 6.6262e-10
17910.0 6.6018e-10
17930.0 6.5785e-10
17950.0 6.5542e-10
17970.0 6.5297e-10
17990.0 6.506e-10
18010.0 6.4823e-10
18030.0 6.4572e-10
18050.0 6.4331e-10
18070.0 6.4095e-10
18090.0 6.3851e-10
18110.0 6.3604e-10
18130.0 6.3369e-10
18150.0 6.3131e-10
18170.0 6.2884e-10
18190.0 6.2644e-10
18210.0 6.2408e-10
18230.0 6.2162e-10
18250.0 6.1914e-10
18270.0 6.1678e-10
18290.0 6.1439e-10
18310.0 6.1193e-10
18330.0 6.0953e-10
18350.0 6.0718e-10
18370.0 6.0472e-10
18390.0 6.0228e-10
18410.0 5.9991e-10
18430.0 5.9751e-10
18450.0 5.9501e-10
18470.0 5.9261e-10
18490.0 5.9026e-10
18510.0 5.8781e-10
18530.0 5.8538e-10
18550.0 5.8304e-10
18570.0 5.8062e-10
18590.0 5.7813e-10
18610.0 5.7574e-10
18630.0 5.7336e-10
18650.0 5.7091e-10
18670.0 5.6845e-10
18690.0 5.6611e-10
18710.0 5.637e-10
18730.0 5.6124e-10
18750.0 5.5886e-10
18770.0 5.5651e-10
18790.0 5.54e-10
18810.0 5.5156e-10
18830.0 5.4921e-10
18850.0 5.4679e-10
18870.0 5.4432e-10
18890.0 5.4195e-10
18910.0 5.3959e-10
18930.0 5.3712e-10
18950.0 5.347e-10
18970.0 5.3234e-10
18990.0 5.2992e-10
19010.0 5.274e-10
19030.0 5.2504e-10
19050.0 5.2267e-10
19070.0 5.2021e-10
19090.0 5.1779e-10
19110.0 5.1546e-10
19130.0 5.1301e-10
19150.0 5.1054e-10
19170.0 5.0817e-10
19190.0 5.0578e-10
19210.0 5.033e-10
19230.0 5.0087e-10
19250.0 4.9853e-10
19270.0 4.961e-10
19290.0 4.9365e-10
19310.0 4.9129e-10
19330.0 4.8891e-10
19350.0 4.864e-10
19370.0 4.8399e-10
19390.0 4.8163e-10
19410.0 4.7919e-10
19430.0 4.7673e-10
19450.0 4.7438e-10
19470.0 4.7199e-10
19490.0 4.6952e-10
19510.0 4.6712e-10
19530.0 4.6477e-10
19550.0 4.623e-10
19570.0 4.5982e-10
19590.0 4.5747e-10
19610.0 4.5507e-10
19630.0 4.5261e-10
19650.0 4.5022e-10
19670.0 4.4787e-10
19690.0 4.454e-10
19710.0 4.4296e-10
19730.0 4.406e-10
19750.0 4.3819e-10
19770.0 4.3569e-10
19790.0 4.333e-10
19810.0 4.3094e-10
19830.0 4.285e-10
19850.0 4.2608e-10
19870.0 4.2376e-10
19890.0 4.2138e-10
19910.0 4.1899e-10
19930.0 4.1677e-10
19950.0 4.1467e-10
19970.0 4.1267e-10
19990.0 4.1089e-10
20010.0 4.0942e-10
20030.0 4.0814e-10
20050.0 4.0708e-10
20070.0 4.0624e-10
20090.0 4.0557e-10
20110.0 4.0498e-10
20130.0 4.0448e-10
20150.0 4.0403e-10
20170.0 4.0358e-10
20190.0 4.0312e-10
20210.0 4.0268e-10
20230.0 4.0221e-10
20250.0 4.017e-10
20270.0 4.0117e-10
20290.0 4.0063e-10
20310.0 4.0004e-10
20330.0 3.994e-10
20350.0 3.9877e-10
20370.0 3.9809e-10
20390.0 3.9737e-10
20410.0 3.9663e-10
20430.0 3.9589e-10
20450.0 3.9509e-10
20470.0 3.9427e-10
20490.0 3.9347e-10
20510.0 3.9267e-10
20530.0 3.9183e-10
20550.0 3.9103e-10
20570.0 3.9027e-10
20590.0 3.8949e-10
20610.0 3.8873e-10
20630.0 3.8802e-10
20650.0 3.8731e-10
20670.0 3.8658e-10
20690.0 3.8588e-10
20710.0 3.8519e-10
20730.0 3.8446e-10
20750.0 3.8371e-10
20770.0 3.8296e-10
20790.0 3.8215e-10
20810.0 3.8127e-10
20830.0 3.8035e-10
20850.0 3.7938e-10
20870.0 3.783e-10
20890.0 3.7714e-10
20910.0 3.7597e-10
20930.0 3.7472e-10
20950.0 3.7337e-10
20970.0 3.7202e-10
20990.0 3.7065e-10
21010.0 3.6917e-10
21030.0 3.677e-10
21050.0 3.6626e-10
21070.0 3.6479e-10
21090.0 3.6327e-10
21110.0 3.6184e-10
21130.0 3.6043e-10
21150.0 3.5899e-10
21170.0 3.5758e-10
21190.0 3.5623e-10
21210.0 3.5484e-10
21230.0 3.5342e-10
21250.0 3.5206e-10
21270.0 3.5069e-10
21290.0 3.4926e-10
21310.0 3.4782e-10
21330.0 3.4642e-10
21350.0 3.4493e-10
21370.0 3.4339e-10
21390.0 3.4186e-10
21410.0 3.403e-10
21430.0 3.3861e-10
21450.0 3.3693e-10
21470.0 3.3526e-10
21490.0 3.3351e-10
21510.0 3.3169e-10
21530.0 3.2993e-10
21550.0 3.2813e-10
21570.0 3.2623e-10
21590.0 3.2436e-10
21610.0 3.2252e-10
21630.0 3.2062e-10
21650.0 3.1866e-10
21670.0 3.1682e-10
21690.0 3.1496e-10
21710.0 3.1305e-10
21730.0 3.1118e-10
21750.0 3.0938e-10
21770.0 3.0747e-10
21790.0 3.0558e-10
21810.0 3.0376e-10
21830.0 3.0193e-10
21850.0 3.0003e-10
21870.0 2.9819e-10
21890.0 2.964e-10
21910.0 2.9455e-10
21930.0 2.927e-10
21950.0 2.9093e-10
21970.0 2.8914e-10
21990.0 2.873e-10
22010.0 2.8557e-10
22030.0 2.839e-10
22050.0 2.8221e-10
22070.0 2.8057e-10
22090.0 2.7906e-10
22110.0 2.7757e-10
22130.0 2.7611e-10
22150.0 2.7475e-10
22170.0 2.7348e-10
22190.0 2.7222e-10
22210.0 2.7103e-10
22230.0 2.6995e-10
22250.0 2.6891e-10
22270.0 2.6789e-10
22290.0 2.6694e-10
22310.0 2.6604e-10
22330.0 2.6513e-10
22350.0 2.6425e-10
22370.0 2.6342e-10
22390.0 2.6257e-10
22410.0 2.617e-10
22430.0 2.6087e-10
22450.0 2.6004e-10
22470.0 2.5918e-10
22490.0 2.5831e-10
22510.0 2.5746e-10
22530.0 2.5657e-10
22550.0 2.5566e-10
22570.0 2.5478e-10
22590.0 2.539e-10
