#lamb flux
1010.0 1.0944e-07
1030.0 1.1987e-07
1050.0 1.3186e-07
1070.0 1.4536e-07
1090.0 1.607e-07
1110.0 1.7643e-07
1130.0 1.9226e-07
1150.0 2.0885e-07
1170.0 2.2596e-07
1190.0 2.4219e-07
1210.0 2.5864e-07
1230.0 2.7565e-07
1250.0 2.9231e-07
1270.0 3.085e-07
1290.0 3.256e-07
1310.0 3.427e-07
1330.0 3.591e-07
1350.0 3.7569e-07
1370.0 3.9282e-07
1390.0 4.0952e-07
1410.0 4.2574e-07
1430.0 4.4269e-07
1450.0 4.5965e-07
1470.0 4.7604e-07
1490.0 4.9261e-07
1510.0 5.1012e-07
1530.0 5.2671e-07
1550.0 5.4307e-07
1570.0 5.6e-07
1590.0 5.7694e-07
1610.0 5.9313e-07
1630.0 6.0981e-07
1650.0 6.2692e-07
1670.0 6.4346e-07
1690.0 6.5977e-07
1710.0 6.767e-07
1730.0 6.9369e-07
1750.0 7.0965e-07
1770.0 7.2604e-07
1790.0 7.4273e-07
1810.0 7.5884e-07
1830.0 7.7461e-07
1850.0 7.913e-07
1870.0 8.0749e-07
1890.0 8.2304e-07
1910.0 8.3882e-07
1930.0 8.549e-07
1950.0 8.701e-07
1970.0 8.8498e-07
1990.0 9.0033e-07
2010.0 9.1525e-07
2030.0 9.294e-07
2050.0 9.4386e-07
2070.0 9.5851e-07
2090.0 9.7198e-07
2110.0 9.8517e-07
2130.0 9.9855e-07
2150.0 1.0113e-06
2170.0 1.0231e-06
2190.0 1.0352e-06
2210.0 1.0469e-06
2230.0 1.0577e-06
2250.0 1.068e-06
2270.0 1.0785e-06
2290.0 1.0881e-06
2310.0 1.0967e-06
2330.0 1.1052e-06
2350.0 1.1133e-06
2370.0 1.1204e-06
2390.0 1.1271e-06
2410.0 1.1342e-06
2430.0 1.1407e-06
2450.0 1.147e-06
2470.0 1.1543e-06
2490.0 1.1637e-06
2510.0 1.1754e-06
2530.0 1.1944e-06
2550.0 1.2289e-06
2570.0 1.2862e-06
2590.0 1.3751e-06
2610.0 1.5195e-06
2630.0 1.7231e-06
2650.0 1.9723e-06
2670.0 2.2681e-06
2690.0 2.5969e-06
2710.0 2.9107e-06
2730.0 3.1877e-06
2750.0 3.4329e-06
2770.0 3.6227e-06
2790.0 3.7568e-06
2810.0 3.8558e-06
2830.0 3.9344e-06
2850.0 3.9898e-06
2870.0 4.0369e-06
2890.0 4.0842e-06
2910.0 4.13e-06
2930.0 4.1706e-06
2950.0 4.2144e-06
2970.0 4.2599e-06
2990.0 4.3012e-06
3010.0 3.9506e-05
3030.0 3.9891e-05
3050.0 4.0255e-05
3070.0 4.0531e-05
3090.0 4.0754e-05
3110.0 4.0847e-05
3130.0 4.0711e-05
3150.0 4.0296e-05
3170.0 3.9511e-05
3190.0 3.8362e-05
3210.0 3.6954e-05
3230.0 3.5451e-05
3250.0 3.5311e-05
3270.0 3.4181e-05
3290.0 3.5527e-05
3310.0 3.4243e-05
3330.0 3.4901e-05
3350.0 3.6077e-05
3370.0 3.7618e-05
3390.0 3.9443e-05
3410.0 4.1333e-05
3430.0 4.3355e-05
3450.0 4.5528e-05
3470.0 4.7717e-05
3490.0 4.982e-05
3510.0 5.2478e-05
3530.0 5.5658e-05
3550.0 5.7667e-05
3570.0 5.9149e-05
3590.0 6.3041e-05
3610.0 6.4011e-05
3630.0 6.8816e-05
3650.0 7.2357e-05
3670.0 7.6111e-05
3690.0 7.6705e-05
3710.0 7.4571e-05
3730.0 7.5666e-05
3750.0 7.5674e-05
3770.0 7.8792e-05
3790.0 8.344e-05
3810.0 9.2819e-05
3830.0 0.00011231
3850.0 0.00013377
3870.0 0.00015401
3890.0 0.00016733
3910.0 0.00017355
3930.0 0.00018052
3950.0 0.00018765
3970.0 0.00016455
3990.0 0.00011177
4010.0 9.665e-05
4030.0 0.00013205
4050.0 0.00016648
4070.0 0.00014797
4090.0 9.122e-05
4110.0 8.8753e-05
4130.0 0.00012621
4150.0 0.00014307
4170.0 0.00012045
4190.0 0.00010277
4210.0 0.00013483
4230.0 0.0001416
4250.0 0.00013449
4270.0 0.00013549
4290.0 0.00012354
4310.0 0.00013869
4330.0 0.00016164
4350.0 0.00018566
4370.0 0.00018487
4390.0 0.00018021
4410.0 0.00015905
4430.0 0.00012546
4450.0 9.5499e-05
4470.0 0.0001036
4490.0 0.00011213
4510.0 0.0001536
4530.0 0.00016017
4550.0 0.00015767
4570.0 0.0001832
4590.0 0.00023362
4610.0 0.00031962
4630.0 0.00039205
4650.0 0.00039581
4670.0 0.00040862
4690.0 0.0004404
4710.0 0.00043127
4730.0 0.00034761
4750.0 0.00024783
4770.0 0.00020694
4790.0 0.00018246
4810.0 0.00017293
4830.0 0.00018896
4850.0 0.00021222
4870.0 0.00024914
4890.0 0.00027355
4910.0 0.00024354
4930.0 0.00025345
4950.0 0.00031511
4970.0 0.00039033
4990.0 0.00044855
5010.0 0.00044837
5030.0 0.00037972
5050.0 0.00027491
5070.0 0.00020143
5090.0 0.00017424
5110.0 0.00017884
5130.0 0.00019479
5150.0 0.0001834
5170.0 0.00018269
5190.0 0.0001819
5210.0 0.00018526
5230.0 0.00020058
5250.0 0.00020716
5270.0 0.00022329
5290.0 0.00026808
5310.0 0.00030402
5330.0 0.00032125
5350.0 0.00032785
5370.0 0.0003503
5390.0 0.00036446
5410.0 0.00033514
5430.0 0.00030542
5450.0 0.00031219
5470.0 0.00037
5490.0 0.00047463
5510.0 0.00057055
5530.0 0.00060089
5550.0 0.00058358
5570.0 0.00055179
5590.0 0.00051676
5610.0 0.00049446
5630.0 0.00050315
5650.0 0.00051981
5670.0 0.00050329
5690.0 0.00047394
5710.0 0.0004625
5730.0 0.00040919
5750.0 0.00032672
5770.0 0.00029762
5790.0 0.00033536
5810.0 0.00037338
5830.0 0.00041697
5850.0 0.00042859
5870.0 0.00041741
5890.0 0.00039563
5910.0 0.00036875
5930.0 0.00036792
5950.0 0.00038857
5970.0 0.00039695
5990.0 0.00035073
6010.0 0.00028568
6030.0 0.00023138
6050.0 0.00020937
6070.0 0.00022197
6090.0 0.00024928
6110.0 0.00025542
6130.0 0.00023924
6150.0 0.00023712
6170.0 0.00026213
6190.0 0.00030592
6210.0 0.00036642
6230.0 0.00041366
6250.0 0.00039245
6270.0 0.00034264
6290.0 0.00028616
6310.0 0.00022693
6330.0 0.00019224
6350.0 0.0001898
6370.0 0.00020832
6390.0 0.00022982
6410.0 0.00026887
6430.0 0.0003309
6450.0 0.00040742
6470.0 0.00047801
6490.0 0.00054033
6510.0 0.00057267
6530.0 0.00055254
6550.0 0.0005308
6570.0 0.00053333
6590.0 0.0005302
6610.0 0.00050462
6630.0 0.0004753
6650.0 0.00044219
6670.0 0.00043802
6690.0 0.00042697
6710.0 0.0003948
6730.0 0.00034349
6750.0 0.00030612
6770.0 0.00031575
6790.0 0.0003371
6810.0 0.00036627
6830.0 0.00037339
6850.0 0.00035093
6870.0 0.00034061
6890.0 0.00033374
6910.0 0.00031536
6930.0 0.00030455
6950.0 0.00030685
6970.0 0.00031342
6990.0 0.00033145
7010.0 0.00035682
7030.0 0.00034979
7050.0 0.00031701
7070.0 0.00028481
7090.0 0.00024337
7110.0 0.00021677
7130.0 0.00022779
7150.0 0.00024678
7170.0 0.00025145
7190.0 0.00024571
7210.0 0.00024314
7230.0 0.00027301
7250.0 0.00031093
7270.0 0.00033466
7290.0 0.00033774
7310.0 0.00032119
7330.0 0.00029499
7350.0 0.00027283
7370.0 0.00025913
7390.0 0.00025627
7410.0 0.00027394
7430.0 0.00031557
7450.0 0.00035231
7470.0 0.0003966
7490.0 0.00045342
7510.0 0.00043354
7530.0 0.00036522
7550.0 0.000308
7570.0 0.00025617
7590.0 0.00021203
7610.0 0.00020532
7630.0 0.0002157
7650.0 0.00023811
7670.0 0.00027287
7690.0 0.0003005
7710.0 0.00033904
7730.0 0.00035451
7750.0 0.00036686
7770.0 0.00038817
7790.0 0.00039199
7810.0 0.00038624
7830.0 0.0003659
7850.0 0.00035769
7870.0 0.0003462
7890.0 0.00031826
7910.0 0.00029012
7930.0 0.00026385
7950.0 0.00022663
7970.0 0.00021553
7990.0 0.00022269
8010.0 0.00025814
8030.0 0.00025972
8050.0 0.00026974
8070.0 0.00026529
8090.0 0.00026531
8110.0 0.0002588
8130.0 0.0002444
8150.0 0.0002272
8170.0 0.00022527
8190.0 0.0002283
8210.0 0.00023073
8230.0 0.00021612
8250.0 0.00020311
8270.0 0.00017883
8290.0 0.00014695
8310.0 0.00011635
8330.0 8.3339e-05
8350.0 6.2653e-05
8370.0 5.8885e-05
8390.0 6.496e-05
8410.0 7.6683e-05
8430.0 9.6224e-05
8450.0 0.00010628
8470.0 0.00011391
8490.0 0.00012524
8510.0 0.00013432
8530.0 0.00014902
8550.0 0.00017605
8570.0 0.00020092
8590.0 0.00022028
8610.0 0.00025344
8630.0 0.00029317
8650.0 0.00030886
8670.0 0.00031344
8690.0 0.00031197
8710.0 0.00030121
8730.0 0.00028878
8750.0 0.00027079
8770.0 0.00026616
8790.0 0.00025741
8810.0 0.00023805
8830.0 0.00022496
8850.0 0.00019604
8870.0 0.00017962
8890.0 0.00016537
8910.0 0.00018139
8930.0 0.0001716
8950.0 0.00017471
8970.0 0.00017799
8990.0 0.00017682
9010.0 0.00017911
9030.0 0.00017283
9050.0 0.00017239
9070.0 0.00017256
9090.0 0.00017274
9110.0 0.00017298
9130.0 0.00017317
9150.0 0.00017333
9170.0 0.00017325
9190.0 0.00017284
9210.0 0.00017464
9230.0 0.00017447
9250.0 0.00017452
9270.0 0.00017462
9290.0 0.00017477
9310.0 0.00017495
9330.0 0.00017515
9350.0 0.00017538
9370.0 0.00017561
9390.0 0.00017585
9410.0 0.0001761
9430.0 0.00017636
9450.0 0.00017663
9470.0 0.0001769
9490.0 0.00017718
9510.0 0.00017747
9530.0 0.00017776
9550.0 0.00017807
9570.0 0.00017838
9590.0 0.0001787
9610.0 0.00017903
9630.0 0.00017938
9650.0 0.00017973
9670.0 0.00018008
9690.0 0.00018045
9710.0 0.00018083
9730.0 0.00018121
9750.0 0.0001816
9770.0 0.00018201
9790.0 0.00018242
9810.0 0.00018284
9830.0 0.00018327
9850.0 0.0001837
9870.0 0.00018414
9890.0 0.00018459
9910.0 0.00018505
9930.0 0.00018552
9950.0 0.00018587
9970.0 0.00018638
9990.0 0.0001869
10010.0 0.00018737
10030.0 0.00018788
10050.0 0.00018832
10070.0 0.0001884
10090.0 0.00018905
10110.0 0.00018969
10130.0 0.00019029
10150.0 0.00019087
10170.0 0.00019141
10190.0 0.00019193
10210.0 0.00019246
10230.0 0.00019299
10250.0 0.0001935
10270.0 0.000194
10290.0 0.00019452
10310.0 0.00019502
10330.0 0.00019551
10350.0 0.00019601
10370.0 0.00019651
10390.0 0.00019699
10410.0 0.00019746
10430.0 0.00019795
10450.0 0.00019841
10470.0 0.00019886
10490.0 0.00019932
10510.0 0.00019976
10530.0 0.00020018
10550.0 0.00020059
10570.0 0.00020101
10590.0 0.0002014
10610.0 0.00020178
10630.0 0.00020216
10650.0 0.00020252
10670.0 0.00020286
10690.0 0.00020319
10710.0 0.00020351
10730.0 0.00020381
10750.0 0.00020408
10770.0 0.00020436
10790.0 0.00020462
10810.0 0.00020485
10830.0 0.00020506
10850.0 0.00020524
10870.0 0.00020534
10890.0 0.00020534
10910.0 0.00020517
10930.0 0.00020472
10950.0 0.0002038
10970.0 0.00020231
10990.0 0.00020023
11010.0 0.00020169
11030.0 0.0001975
11050.0 0.0001927
11070.0 0.0001872
11090.0 0.00018086
11110.0 0.00017457
11130.0 0.0001683
11150.0 0.00016188
11170.0 0.00015567
11190.0 0.00015005
11210.0 0.00014469
11230.0 0.00013967
11250.0 0.00013532
11270.0 0.00013153
11290.0 0.00012809
11310.0 0.00012514
11330.0 0.00012275
11350.0 0.0001206
11370.0 0.00011865
11390.0 0.00011689
11410.0 0.00011521
11430.0 0.0001134
11450.0 0.00011151
11470.0 0.00010953
11490.0 0.00010732
11510.0 0.00010483
11530.0 0.00010225
11550.0 9.9529e-05
11570.0 9.6575e-05
11590.0 9.3561e-05
11610.0 9.0606e-05
11630.0 8.7559e-05
11650.0 8.45e-05
11670.0 8.1675e-05
11690.0 7.8977e-05
11710.0 7.6345e-05
11730.0 7.391e-05
11750.0 7.1722e-05
11770.0 6.9614e-05
11790.0 6.7632e-05
11810.0 6.5838e-05
11830.0 6.4151e-05
11850.0 6.247e-05
11870.0 6.0896e-05
11890.0 5.9403e-05
11910.0 5.7882e-05
11930.0 5.6344e-05
11950.0 5.4846e-05
11970.0 5.3316e-05
11990.0 5.1704e-05
12010.0 5.0111e-05
12030.0 4.8543e-05
12050.0 4.6939e-05
12070.0 4.5334e-05
12090.0 4.3871e-05
12110.0 4.2469e-05
12130.0 4.1143e-05
12150.0 3.9986e-05
12170.0 3.9017e-05
12190.0 3.8197e-05
12210.0 3.7611e-05
12230.0 3.727e-05
12250.0 3.7165e-05
12270.0 3.7319e-05
12290.0 3.7714e-05
12310.0 3.831e-05
12330.0 3.9152e-05
12350.0 4.0183e-05
12370.0 4.1319e-05
12390.0 4.258e-05
12410.0 4.3994e-05
12430.0 4.5346e-05
12450.0 4.6662e-05
12470.0 4.7971e-05
12490.0 4.9181e-05
12510.0 5.0211e-05
12530.0 5.1136e-05
12550.0 5.192e-05
12570.0 5.2498e-05
12590.0 5.2896e-05
12610.0 5.3139e-05
12630.0 5.3199e-05
12650.0 5.3086e-05
12670.0 5.2832e-05
12690.0 5.2437e-05
12710.0 5.1927e-05
12730.0 5.1321e-05
12750.0 5.0601e-05
12770.0 4.9813e-05
12790.0 4.8982e-05
12810.0 4.8086e-05
12830.0 4.7123e-05
12850.0 4.6157e-05
12870.0 4.5158e-05
12890.0 4.409e-05
12910.0 4.2994e-05
12930.0 4.1887e-05
12950.0 4.0699e-05
12970.0 3.9442e-05
12990.0 3.8196e-05
13010.0 3.6913e-05
13030.0 3.5566e-05
13050.0 3.4224e-05
13070.0 3.2931e-05
13090.0 3.1614e-05
13110.0 3.0331e-05
13130.0 2.9151e-05
13150.0 2.8051e-05
13170.0 2.701e-05
13190.0 2.6124e-05
13210.0 2.5387e-05
13230.0 2.4764e-05
13250.0 2.4281e-05
13270.0 2.3947e-05
13290.0 2.3733e-05
13310.0 2.3639e-05
13330.0 2.365e-05
13350.0 2.3742e-05
13370.0 2.3908e-05
13390.0 2.4127e-05
13410.0 2.4355e-05
13430.0 2.4597e-05
13450.0 2.4842e-05
13470.0 2.5059e-05
13490.0 2.5241e-05
13510.0 2.5405e-05
13530.0 2.5527e-05
13550.0 2.5607e-05
13570.0 2.5658e-05
13590.0 2.5687e-05
13610.0 2.5693e-05
13630.0 2.5685e-05
13650.0 2.5672e-05
13670.0 2.5657e-05
13690.0 2.564e-05
13710.0 2.5627e-05
13730.0 2.5619e-05
13750.0 2.5608e-05
13770.0 2.5595e-05
13790.0 2.5576e-05
13810.0 2.5545e-05
13830.0 2.5496e-05
13850.0 2.5427e-05
13870.0 2.5331e-05
13890.0 2.5206e-05
13910.0 2.5054e-05
13930.0 2.4867e-05
13950.0 2.4653e-05
13970.0 2.4426e-05
13990.0 2.4178e-05
14010.0 2.3918e-05
14030.0 2.3665e-05
14050.0 2.3419e-05
14070.0 2.3175e-05
14090.0 2.2956e-05
14110.0 2.2763e-05
14130.0 2.259e-05
14150.0 2.2442e-05
14170.0 2.2324e-05
14190.0 2.2229e-05
14210.0 2.2158e-05
14230.0 2.2112e-05
14250.0 2.2089e-05
14270.0 2.2093e-05
14290.0 2.2126e-05
14310.0 2.2183e-05
14330.0 2.2268e-05
14350.0 2.2387e-05
14370.0 2.2532e-05
14390.0 2.2696e-05
14410.0 2.2893e-05
14430.0 2.3114e-05
14450.0 2.3345e-05
14470.0 2.3593e-05
14490.0 2.3872e-05
14510.0 2.4156e-05
14530.0 2.4449e-05
14550.0 2.4775e-05
14570.0 2.5132e-05
14590.0 2.5508e-05
14610.0 2.5933e-05
14630.0 2.6427e-05
14650.0 2.6964e-05
14670.0 2.7551e-05
14690.0 2.8225e-05
14710.0 2.8978e-05
14730.0 2.9746e-05
14750.0 3.0584e-05
14770.0 3.149e-05
14790.0 3.2403e-05
14810.0 3.3308e-05
14830.0 3.4269e-05
14850.0 3.5191e-05
14870.0 3.6038e-05
14890.0 3.684e-05
14910.0 3.7583e-05
14930.0 3.8206e-05
14950.0 3.8716e-05
14970.0 3.9137e-05
14990.0 3.9439e-05
15010.0 3.9631e-05
15030.0 3.9738e-05
15050.0 3.9771e-05
15070.0 3.9746e-05
15090.0 3.9687e-05
15110.0 3.9602e-05
15130.0 3.9504e-05
15150.0 3.9405e-05
15170.0 3.9298e-05
15190.0 3.9189e-05
15210.0 3.9084e-05
15230.0 3.898e-05
15250.0 3.8872e-05
15270.0 3.8765e-05
15290.0 3.8665e-05
15310.0 3.8562e-05
15330.0 3.8458e-05
15350.0 3.8359e-05
15370.0 3.8261e-05
15390.0 3.8156e-05
15410.0 3.8056e-05
15430.0 3.796e-05
15450.0 3.7861e-05
15470.0 3.7759e-05
15490.0 3.7664e-05
15510.0 3.7569e-05
15530.0 3.7471e-05
15550.0 3.7374e-05
15570.0 3.7282e-05
15590.0 3.7184e-05
15610.0 3.7086e-05
15630.0 3.6993e-05
15650.0 3.69e-05
15670.0 3.6803e-05
15690.0 3.6709e-05
15710.0 3.6619e-05
15730.0 3.6524e-05
15750.0 3.6428e-05
15770.0 3.6337e-05
15790.0 3.6245e-05
15810.0 3.6147e-05
15830.0 3.6055e-05
15850.0 3.5965e-05
15870.0 3.5871e-05
15890.0 3.5776e-05
15910.0 3.5686e-05
15930.0 3.5594e-05
15950.0 3.5497e-05
15970.0 3.5405e-05
15990.0 3.5314e-05
16010.0 3.5219e-05
16030.0 3.5122e-05
16050.0 3.5032e-05
16070.0 3.494e-05
16090.0 3.4843e-05
16110.0 3.475e-05
16130.0 3.466e-05
16150.0 3.4561e-05
16170.0 3.4465e-05
16190.0 3.4372e-05
16210.0 3.4277e-05
16230.0 3.4179e-05
16250.0 3.4084e-05
16270.0 3.3992e-05
16290.0 3.3893e-05
16310.0 3.3795e-05
16330.0 3.3701e-05
16350.0 3.3604e-05
16370.0 3.35e-05
16390.0 3.3404e-05
16410.0 3.3308e-05
16430.0 3.3207e-05
16450.0 3.3107e-05
16470.0 3.3011e-05
16490.0 3.291e-05
16510.0 3.2807e-05
16530.0 3.2707e-05
16550.0 3.2607e-05
16570.0 3.2502e-05
16590.0 3.2398e-05
16610.0 3.2299e-05
16630.0 3.2195e-05
16650.0 3.209e-05
16670.0 3.1988e-05
16690.0 3.1885e-05
16710.0 3.1775e-05
16730.0 3.1669e-05
16750.0 3.1565e-05
16770.0 3.1458e-05
16790.0 3.1347e-05
16810.0 3.1242e-05
16830.0 3.1136e-05
16850.0 3.1024e-05
16870.0 3.0915e-05
16890.0 3.0808e-05
16910.0 3.0696e-05
16930.0 3.0581e-05
16950.0 3.0472e-05
16970.0 3.0361e-05
16990.0 3.0246e-05
17010.0 3.0133e-05
17030.0 3.0024e-05
17050.0 2.9907e-05
17070.0 2.9791e-05
17090.0 2.9678e-05
17110.0 2.9563e-05
17130.0 2.9442e-05
17150.0 2.9326e-05
17170.0 2.9212e-05
17190.0 2.9093e-05
17210.0 2.8973e-05
17230.0 2.8858e-05
17250.0 2.8739e-05
17270.0 2.8615e-05
17290.0 2.8495e-05
17310.0 2.8377e-05
17330.0 2.8253e-05
17350.0 2.8129e-05
17370.0 2.801e-05
17390.0 2.7888e-05
17410.0 2.7763e-05
17430.0 2.764e-05
17450.0 2.752e-05
17470.0 2.739e-05
17490.0 2.7264e-05
17510.0 2.7141e-05
17530.0 2.7015e-05
17550.0 2.6886e-05
17570.0 2.6761e-05
17590.0 2.6637e-05
17610.0 2.6507e-05
17630.0 2.6378e-05
17650.0 2.6253e-05
17670.0 2.6124e-05
17690.0 2.5989e-05
17710.0 2.5862e-05
17730.0 2.5734e-05
17750.0 2.5602e-05
17770.0 2.5471e-05
17790.0 2.5345e-05
17810.0 2.5212e-05
17830.0 2.5077e-05
17850.0 2.4947e-05
17870.0 2.4817e-05
17890.0 2.4681e-05
17910.0 2.4547e-05
17930.0 2.4418e-05
17950.0 2.4284e-05
17970.0 2.4149e-05
17990.0 2.4017e-05
18010.0 2.3885e-05
18030.0 2.3746e-05
18050.0 2.3612e-05
18070.0 2.348e-05
18090.0 2.3344e-05
18110.0 2.3206e-05
18130.0 2.3073e-05
18150.0 2.294e-05
18170.0 2.2801e-05
18190.0 2.2666e-05
18210.0 2.2533e-05
18230.0 2.2394e-05
18250.0 2.2255e-05
18270.0 2.2121e-05
18290.0 2.1986e-05
18310.0 2.1846e-05
18330.0 2.171e-05
18350.0 2.1577e-05
18370.0 2.1438e-05
18390.0 2.1299e-05
18410.0 2.1165e-05
18430.0 2.1028e-05
18450.0 2.0886e-05
18470.0 2.075e-05
18490.0 2.0616e-05
18510.0 2.0477e-05
18530.0 2.0338e-05
18550.0 2.0205e-05
18570.0 2.0067e-05
18590.0 1.9926e-05
18610.0 1.979e-05
18630.0 1.9654e-05
18650.0 1.9515e-05
18670.0 1.9375e-05
18690.0 1.9242e-05
18710.0 1.9105e-05
18730.0 1.8966e-05
18750.0 1.883e-05
18770.0 1.8696e-05
18790.0 1.8555e-05
18810.0 1.8417e-05
18830.0 1.8283e-05
18850.0 1.8146e-05
18870.0 1.8007e-05
18890.0 1.7872e-05
18910.0 1.7739e-05
18930.0 1.76e-05
18950.0 1.7463e-05
18970.0 1.733e-05
18990.0 1.7194e-05
19010.0 1.7053e-05
19030.0 1.692e-05
19050.0 1.6787e-05
19070.0 1.6649e-05
19090.0 1.6514e-05
19110.0 1.6383e-05
19130.0 1.6247e-05
19150.0 1.611e-05
19170.0 1.5977e-05
19190.0 1.5844e-05
19210.0 1.5707e-05
19230.0 1.5573e-05
19250.0 1.5443e-05
19270.0 1.5309e-05
19290.0 1.5174e-05
19310.0 1.5044e-05
19330.0 1.4913e-05
19350.0 1.4776e-05
19370.0 1.4644e-05
19390.0 1.4514e-05
19410.0 1.4381e-05
19430.0 1.4247e-05
19450.0 1.4119e-05
19470.0 1.3989e-05
19490.0 1.3856e-05
19510.0 1.3726e-05
19530.0 1.3599e-05
19550.0 1.3466e-05
19570.0 1.3333e-05
19590.0 1.3207e-05
19610.0 1.3078e-05
19630.0 1.2947e-05
19650.0 1.282e-05
19670.0 1.2694e-05
19690.0 1.2564e-05
19710.0 1.2435e-05
19730.0 1.2309e-05
19750.0 1.2182e-05
19770.0 1.2051e-05
19790.0 1.1926e-05
19810.0 1.1802e-05
19830.0 1.1674e-05
19850.0 1.1546e-05
19870.0 1.1421e-05
19890.0 1.1289e-05
19910.0 1.1148e-05
19930.0 1.1002e-05
19950.0 1.0844e-05
19970.0 1.0661e-05
19990.0 1.0454e-05
20010.0 1.0232e-05
20030.0 9.9811e-06
20050.0 9.7063e-06
20070.0 9.4285e-06
20090.0 9.1504e-06
20110.0 8.8609e-06
20130.0 8.593e-06
20150.0 8.3506e-06
20170.0 8.1225e-06
20190.0 7.9143e-06
20210.0 7.7375e-06
20230.0 7.5829e-06
20250.0 7.4454e-06
20270.0 7.3332e-06
20290.0 7.2437e-06
20310.0 7.1712e-06
20330.0 7.1163e-06
20350.0 7.0816e-06
20370.0 7.0619e-06
20390.0 7.0575e-06
20410.0 7.0682e-06
20430.0 7.0919e-06
20450.0 7.1318e-06
20470.0 7.1866e-06
20490.0 7.2532e-06
20510.0 7.3339e-06
20530.0 7.4321e-06
20550.0 7.5413e-06
20570.0 7.6578e-06
20590.0 7.7901e-06
20610.0 7.9322e-06
20630.0 8.076e-06
20650.0 8.2261e-06
20670.0 8.3869e-06
20690.0 8.5403e-06
20710.0 8.6887e-06
20730.0 8.838e-06
20750.0 8.9823e-06
20770.0 9.1133e-06
20790.0 9.2407e-06
20810.0 9.3657e-06
20830.0 9.4818e-06
20850.0 9.5924e-06
20870.0 9.7069e-06
20890.0 9.8216e-06
20910.0 9.9321e-06
20930.0 1.0049e-05
20950.0 1.0172e-05
20970.0 1.0296e-05
20990.0 1.042e-05
21010.0 1.0554e-05
21030.0 1.0684e-05
21050.0 1.0807e-05
21070.0 1.0927e-05
21090.0 1.1042e-05
21110.0 1.1139e-05
21130.0 1.1222e-05
21150.0 1.1293e-05
21170.0 1.1344e-05
21190.0 1.1377e-05
21210.0 1.1393e-05
21230.0 1.1389e-05
21250.0 1.1368e-05
21270.0 1.133e-05
21290.0 1.1274e-05
21310.0 1.1203e-05
21330.0 1.1122e-05
21350.0 1.1026e-05
21370.0 1.0918e-05
21390.0 1.0803e-05
21410.0 1.0682e-05
21430.0 1.0547e-05
21450.0 1.0412e-05
21470.0 1.0278e-05
21490.0 1.0139e-05
21510.0 1e-05
21530.0 9.869e-06
21550.0 9.7413e-06
21570.0 9.6151e-06
21590.0 9.4999e-06
21610.0 9.3964e-06
21630.0 9.301e-06
21650.0 9.2164e-06
21670.0 9.1506e-06
21690.0 9.0978e-06
21710.0 9.0595e-06
21730.0 9.0383e-06
21750.0 9.033e-06
21770.0 9.0448e-06
21790.0 9.074e-06
21810.0 9.1181e-06
21830.0 9.178e-06
21850.0 9.2561e-06
21870.0 9.3466e-06
21890.0 9.4465e-06
21910.0 9.5628e-06
21930.0 9.6904e-06
21950.0 9.8224e-06
21970.0 9.9643e-06
21990.0 1.012e-05
22010.0 1.0274e-05
22030.0 1.0428e-05
22050.0 1.0589e-05
22070.0 1.075e-05
22090.0 1.0902e-05
22110.0 1.1054e-05
22130.0 1.1205e-05
22150.0 1.1343e-05
22170.0 1.147e-05
22190.0 1.1592e-05
22210.0 1.17e-05
22230.0 1.1787e-05
22250.0 1.1861e-05
22270.0 1.1917e-05
22290.0 1.1953e-05
22310.0 1.1968e-05
22330.0 1.1962e-05
22350.0 1.1933e-05
22370.0 1.1882e-05
22390.0 1.1808e-05
22410.0 1.1708e-05
22430.0 1.1589e-05
22450.0 1.1452e-05
22470.0 1.1288e-05
22490.0 1.1108e-05
22510.0 1.0917e-05
22530.0 1.0702e-05
22550.0 1.0469e-05
22570.0 1.0234e-05
22590.0 9.9904e-06
22610.0 9.7307e-06
22630.0 9.469e-06
