#lamb flux
1010.0 4.8097e-07
1030.0 5.0276e-07
1050.0 5.2804e-07
1070.0 5.5656e-07
1090.0 5.89e-07
1110.0 6.2243e-07
1130.0 6.5626e-07
1150.0 6.9186e-07
1170.0 7.2881e-07
1190.0 7.6414e-07
1210.0 8.002e-07
1230.0 8.3771e-07
1250.0 8.7481e-07
1270.0 9.1122e-07
1290.0 9.4993e-07
1310.0 9.8899e-07
1330.0 1.0269e-06
1350.0 1.0657e-06
1370.0 1.1061e-06
1390.0 1.1459e-06
1410.0 1.1852e-06
1430.0 1.2265e-06
1450.0 1.2684e-06
1470.0 1.3094e-06
1490.0 1.3513e-06
1510.0 1.3957e-06
1530.0 1.4384e-06
1550.0 1.4811e-06
1570.0 1.5253e-06
1590.0 1.5699e-06
1610.0 1.613e-06
1630.0 1.6573e-06
1650.0 1.7027e-06
1670.0 1.7468e-06
1690.0 1.7903e-06
1710.0 1.8351e-06
1730.0 1.8797e-06
1750.0 1.9215e-06
1770.0 1.9638e-06
1790.0 2.0063e-06
1810.0 2.0467e-06
1830.0 2.0855e-06
1850.0 2.1257e-06
1870.0 2.1637e-06
1890.0 2.1992e-06
1910.0 2.2343e-06
1930.0 2.269e-06
1950.0 2.3006e-06
1970.0 2.3305e-06
1990.0 2.3604e-06
2010.0 2.3885e-06
2030.0 2.4139e-06
2050.0 2.4394e-06
2070.0 2.4648e-06
2090.0 2.4871e-06
2110.0 2.5087e-06
2130.0 2.5308e-06
2150.0 2.5518e-06
2170.0 2.5713e-06
2190.0 2.5922e-06
2210.0 2.6137e-06
2230.0 2.6345e-06
2250.0 2.6561e-06
2270.0 2.6805e-06
2290.0 2.7053e-06
2310.0 2.7306e-06
2330.0 2.7591e-06
2350.0 2.7902e-06
2370.0 2.8227e-06
2390.0 2.8586e-06
2410.0 2.8993e-06
2430.0 2.9425e-06
2450.0 2.9886e-06
2470.0 3.0396e-06
2490.0 3.0953e-06
2510.0 3.1552e-06
2530.0 3.2268e-06
2550.0 3.3223e-06
2570.0 3.4574e-06
2590.0 3.6526e-06
2610.0 3.9566e-06
2630.0 4.3928e-06
2650.0 4.9535e-06
2670.0 5.6552e-06
2690.0 6.4904e-06
2710.0 7.3713e-06
2730.0 8.2511e-06
2750.0 9.1452e-06
2770.0 9.9912e-06
2790.0 1.077e-05
2810.0 1.1525e-05
2830.0 1.2293e-05
2850.0 1.3038e-05
2870.0 1.3803e-05
2890.0 1.462e-05
2910.0 1.5476e-05
2930.0 1.635e-05
2950.0 1.7284e-05
2970.0 1.8274e-05
2990.0 1.9284e-05
3010.0 3.8303e-05
3030.0 4.0359e-05
3050.0 4.2422e-05
3070.0 4.4331e-05
3090.0 4.5997e-05
3110.0 4.7032e-05
3130.0 4.6968e-05
3150.0 4.5276e-05
3170.0 4.0895e-05
3190.0 3.3685e-05
3210.0 2.3724e-05
3230.0 1.2447e-05
3250.0 2.4421e-05
3270.0 1.0122e-05
3290.0 3.8005e-05
3310.0 7.0122e-06
3330.0 6.9213e-06
3350.0 1.0855e-05
3370.0 1.5396e-05
3390.0 2.0247e-05
3410.0 2.5081e-05
3430.0 3.0145e-05
3450.0 3.5203e-05
3470.0 3.9828e-05
3490.0 4.2862e-05
3510.0 5.3927e-05
3530.0 7.4416e-05
3550.0 7.3243e-05
3570.0 5.962e-05
3590.0 8.6596e-05
3610.0 5.2073e-05
3630.0 9.0058e-05
3650.0 0.00010449
3670.0 0.00013645
3690.0 0.00012813
3710.0 8.5692e-05
3730.0 0.00011661
3750.0 0.00012096
3770.0 0.0001258
3790.0 0.00011435
3810.0 0.00010345
3830.0 0.00015394
3850.0 0.00017329
3870.0 0.00021671
3890.0 0.00020334
3910.0 0.00017977
3930.0 0.00019017
3950.0 0.00021286
3970.0 0.000272
3990.0 0.00020491
4010.0 0.00012323
4030.0 0.00018209
4050.0 0.00021093
4070.0 0.00024118
4090.0 0.00020153
4110.0 0.00013015
4130.0 0.00018319
4150.0 0.00017066
4170.0 0.00017784
4190.0 0.00017454
4210.0 0.00022539
4230.0 0.00015301
4250.0 0.00018216
4270.0 0.00018177
4290.0 0.00018192
4310.0 0.0002272
4330.0 0.00023408
4350.0 0.00017736
4370.0 0.00014946
4390.0 0.00018865
4410.0 0.00019594
4430.0 0.00014861
4450.0 0.00014858
4470.0 0.00017644
4490.0 0.00012756
4510.0 0.00016089
4530.0 0.00017209
4550.0 0.00022871
4570.0 0.00033741
4590.0 0.00032007
4610.0 0.00020279
4630.0 0.00034294
4650.0 0.00050205
4670.0 0.00046239
4690.0 0.00026571
4710.0 0.00029363
4730.0 0.00038924
4750.0 0.00034614
4770.0 0.00025951
4790.0 0.00017242
4810.0 0.00025628
4830.0 0.00029814
4850.0 0.00025814
4870.0 7.3839e-05
4890.0 0.0002786
4910.0 0.00039681
4930.0 0.00042615
4950.0 0.00041516
4970.0 0.00024384
4990.0 0.00028536
5010.0 0.00034552
5030.0 0.00038852
5050.0 0.00038751
5070.0 0.00027664
5090.0 0.00022424
5110.0 0.00020974
5130.0 0.00018679
5150.0 0.00021222
5170.0 0.00018315
5190.0 0.0002302
5210.0 0.00023055
5230.0 0.00025428
5250.0 0.00032285
5270.0 0.00026526
5290.0 0.00025974
5310.0 0.00039555
5330.0 0.00046294
5350.0 0.00038281
5370.0 0.00032997
5390.0 0.00038507
5410.0 0.00049388
5430.0 0.00054762
5450.0 0.00058515
5470.0 0.00058151
5490.0 0.00056496
5510.0 0.00066852
5530.0 0.00069653
5550.0 0.00075383
5570.0 0.00080917
5590.0 0.00080575
5610.0 0.00076128
5630.0 0.00073582
5650.0 0.00075569
5670.0 0.00074929
5690.0 0.00063611
5710.0 0.00061963
5730.0 0.0006374
5750.0 0.00070355
5770.0 0.00060775
5790.0 0.00055621
5810.0 0.00056425
5830.0 0.00059854
5850.0 0.00054721
5870.0 0.00055646
5890.0 0.00067575
5910.0 0.00064381
5930.0 0.00052133
5950.0 0.00045097
5970.0 0.00049262
5990.0 0.00045755
6010.0 0.00043451
6030.0 0.00044741
6050.0 0.00041684
6070.0 0.00030672
6090.0 0.00027399
6110.0 0.00036411
6130.0 0.00042417
6150.0 0.00044484
6170.0 0.00042747
6190.0 0.00039482
6210.0 0.00038671
6230.0 0.00045952
6250.0 0.00042475
6270.0 0.00038899
6290.0 0.00035991
6310.0 0.00034116
6330.0 0.00032447
6350.0 0.00028208
6370.0 0.00027925
6390.0 0.00033212
6410.0 0.0004152
6430.0 0.00047719
6450.0 0.00044421
6470.0 0.00043087
6490.0 0.00054603
6510.0 0.00063389
6530.0 0.00059765
6550.0 0.00057067
6570.0 0.00057978
6590.0 0.00056227
6610.0 0.00061403
6630.0 0.00057424
6650.0 0.00050082
6670.0 0.00045016
6690.0 0.00044136
6710.0 0.00055273
6730.0 0.00050393
6750.0 0.00042264
6770.0 0.000374
6790.0 0.00039361
6810.0 0.00044365
6830.0 0.00043421
6850.0 0.00039111
6870.0 0.00040797
6890.0 0.00040306
6910.0 0.00037974
6930.0 0.00043893
6950.0 0.00040298
6970.0 0.00037203
6990.0 0.00036908
7010.0 0.00035453
7030.0 0.00033593
7050.0 0.00032726
7070.0 0.00036242
7090.0 0.00034508
7110.0 0.00029577
7130.0 0.00023668
7150.0 0.0002159
7170.0 0.00029283
7190.0 0.00031985
7210.0 0.00030527
7230.0 0.00031574
7250.0 0.00029075
7270.0 0.00027489
7290.0 0.00030778
7310.0 0.00034906
7330.0 0.0003441
7350.0 0.00032137
7370.0 0.00030342
7390.0 0.00031515
7410.0 0.00036896
7430.0 0.00040468
7450.0 0.00042775
7470.0 0.00041715
7490.0 0.00043449
7510.0 0.00041943
7530.0 0.00041533
7550.0 0.00041214
7570.0 0.00036262
7590.0 0.00035882
7610.0 0.00034649
7630.0 0.0003164
7650.0 0.00034382
7670.0 0.00037446
7690.0 0.00040558
7710.0 0.00045505
7730.0 0.00048298
7750.0 0.0005033
7770.0 0.00050479
7790.0 0.00055318
7810.0 0.00056824
7830.0 0.00051718
7850.0 0.0005201
7870.0 0.00049474
7890.0 0.00051892
7910.0 0.00049111
7930.0 0.00049483
7950.0 0.00043059
7970.0 0.00044038
7990.0 0.00042036
8010.0 0.00042651
8030.0 0.00042366
8050.0 0.00044546
8070.0 0.00042726
8090.0 0.00042792
8110.0 0.00041789
8130.0 0.00041706
8150.0 0.00039693
8170.0 0.00038585
8190.0 0.00038099
8210.0 0.00038339
8230.0 0.00033754
8250.0 0.00030788
8270.0 0.00027046
8290.0 0.00022635
8310.0 0.00019619
8330.0 0.00015687
8350.0 0.00013059
8370.0 0.00013206
8390.0 0.00013186
8410.0 0.00013824
8430.0 0.00017136
8450.0 0.00018376
8470.0 0.00019475
8490.0 0.00022466
8510.0 0.00024416
8530.0 0.00028014
8550.0 0.00033069
8570.0 0.00036578
8590.0 0.00038901
8610.0 0.0004252
8630.0 0.00047119
8650.0 0.00047895
8670.0 0.0004845
8690.0 0.00050327
8710.0 0.00049549
8730.0 0.00048672
8750.0 0.00045609
8770.0 0.00045586
8790.0 0.00044922
8810.0 0.00041328
8830.0 0.00041359
8850.0 0.00038605
8870.0 0.00037006
8890.0 0.00033539
8910.0 0.00036262
8930.0 0.00032963
8950.0 0.000325
8970.0 0.00032686
8990.0 0.00031551
9010.0 0.00032215
9030.0 0.00030811
9050.0 0.00030644
9070.0 0.0003062
9090.0 0.00030589
9110.0 0.00030571
9130.0 0.0003053
9150.0 0.00030476
9170.0 0.00030345
9190.0 0.00030091
9210.0 0.00030482
9230.0 0.00030321
9250.0 0.00030211
9270.0 0.00030108
9290.0 0.0003001
9310.0 0.00029915
9330.0 0.0002982
9350.0 0.00029724
9370.0 0.00029625
9390.0 0.00029524
9410.0 0.0002942
9430.0 0.00029312
9450.0 0.00029202
9470.0 0.00029089
9490.0 0.00028975
9510.0 0.00028859
9530.0 0.00028741
9550.0 0.0002862
9570.0 0.00028498
9590.0 0.00028375
9610.0 0.00028251
9630.0 0.00028125
9650.0 0.00027999
9670.0 0.00027872
9690.0 0.00027744
9710.0 0.00027616
9730.0 0.00027488
9750.0 0.0002736
9770.0 0.00027232
9790.0 0.00027104
9810.0 0.00026976
9830.0 0.00026849
9850.0 0.00026723
9870.0 0.00026597
9890.0 0.00026472
9910.0 0.00026349
9930.0 0.00026225
9950.0 0.00026038
9970.0 0.00025937
9990.0 0.00025834
10010.0 0.0002573
10030.0 0.00025622
10050.0 0.00025505
10070.0 0.00025358
10090.0 0.00025262
10110.0 0.00025163
10130.0 0.00025064
10150.0 0.00024965
10170.0 0.00024864
10190.0 0.00024761
10210.0 0.00024663
10230.0 0.00024567
10250.0 0.0002447
10270.0 0.00024376
10290.0 0.00024287
10310.0 0.00024197
10330.0 0.00024108
10350.0 0.00024024
10370.0 0.00023942
10390.0 0.0002386
10410.0 0.00023781
10430.0 0.00023707
10450.0 0.00023633
10470.0 0.0002356
10490.0 0.00023491
10510.0 0.00023425
10530.0 0.00023357
10550.0 0.00023294
10570.0 0.00023235
10590.0 0.00023176
10610.0 0.00023118
10630.0 0.00023065
10650.0 0.00023014
10670.0 0.00022963
10690.0 0.00022914
10710.0 0.0002287
10730.0 0.00022825
10750.0 0.00022781
10770.0 0.00022743
10790.0 0.00022706
10810.0 0.00022669
10830.0 0.00022634
10850.0 0.00022601
10870.0 0.00022563
10890.0 0.0002252
10910.0 0.00022467
10930.0 0.00022394
10950.0 0.00022284
10970.0 0.00022132
10990.0 0.00021934
11010.0 0.00021812
11030.0 0.00021489
11050.0 0.00021111
11070.0 0.00020674
11090.0 0.00020167
11110.0 0.0001966
11130.0 0.00019151
11150.0 0.00018626
11170.0 0.00018109
11190.0 0.00017633
11210.0 0.00017164
11230.0 0.00016707
11250.0 0.00016291
11270.0 0.00015909
11290.0 0.00015539
11310.0 0.000152
11330.0 0.00014906
11350.0 0.0001463
11370.0 0.0001437
11390.0 0.00014138
11410.0 0.00013925
11430.0 0.0001371
11450.0 0.00013506
11470.0 0.00013312
11490.0 0.00013112
11510.0 0.000129
11530.0 0.00012692
11550.0 0.00012477
11570.0 0.00012242
11590.0 0.00011999
11610.0 0.00011755
11630.0 0.00011491
11650.0 0.00011209
11670.0 0.00010936
11690.0 0.00010658
11710.0 0.00010367
11730.0 0.00010082
11750.0 9.8123e-05
11770.0 9.5374e-05
11790.0 9.2674e-05
11810.0 9.0179e-05
11830.0 8.7804e-05
11850.0 8.542e-05
11870.0 8.3255e-05
11890.0 8.1299e-05
11910.0 7.9395e-05
11930.0 7.7584e-05
11950.0 7.5961e-05
11970.0 7.4411e-05
11990.0 7.2866e-05
12010.0 7.1445e-05
12030.0 7.0123e-05
12050.0 6.8808e-05
12070.0 6.7514e-05
12090.0 6.6373e-05
12110.0 6.5269e-05
12130.0 6.4194e-05
12150.0 6.3232e-05
12170.0 6.2401e-05
12190.0 6.1617e-05
12210.0 6.0987e-05
12230.0 6.055e-05
12250.0 6.0281e-05
12270.0 6.0205e-05
12290.0 6.0364e-05
12310.0 6.0748e-05
12330.0 6.1372e-05
12350.0 6.224e-05
12370.0 6.3308e-05
12390.0 6.4584e-05
12410.0 6.6104e-05
12430.0 6.7707e-05
12450.0 6.9395e-05
12470.0 7.1192e-05
12490.0 7.3011e-05
12510.0 7.4752e-05
12530.0 7.6485e-05
12550.0 7.8168e-05
12570.0 7.9705e-05
12590.0 8.1112e-05
12610.0 8.2424e-05
12630.0 8.3584e-05
12650.0 8.4567e-05
12670.0 8.543e-05
12690.0 8.616e-05
12710.0 8.6751e-05
12730.0 8.7223e-05
12750.0 8.7576e-05
12770.0 8.7815e-05
12790.0 8.7958e-05
12810.0 8.7995e-05
12830.0 8.7917e-05
12850.0 8.7766e-05
12870.0 8.7528e-05
12890.0 8.7168e-05
12910.0 8.672e-05
12930.0 8.6208e-05
12950.0 8.5564e-05
12970.0 8.4796e-05
12990.0 8.3987e-05
13010.0 8.3087e-05
13030.0 8.2055e-05
13050.0 8.0964e-05
13070.0 7.986e-05
13090.0 7.8642e-05
13110.0 7.737e-05
13130.0 7.6133e-05
13150.0 7.4899e-05
13170.0 7.3617e-05
13190.0 7.2448e-05
13210.0 7.1403e-05
13230.0 7.0423e-05
13250.0 6.9567e-05
13270.0 6.8899e-05
13290.0 6.8369e-05
13310.0 6.7978e-05
13330.0 6.7763e-05
13350.0 6.7692e-05
13370.0 6.7732e-05
13390.0 6.7865e-05
13410.0 6.8054e-05
13430.0 6.8259e-05
13450.0 6.8445e-05
13470.0 6.8574e-05
13490.0 6.8625e-05
13510.0 6.8555e-05
13530.0 6.8356e-05
13550.0 6.804e-05
13570.0 6.7591e-05
13590.0 6.7001e-05
13610.0 6.633e-05
13630.0 6.5604e-05
13650.0 6.4784e-05
13670.0 6.3937e-05
13690.0 6.3113e-05
13710.0 6.2284e-05
13730.0 6.1441e-05
13750.0 6.0687e-05
13770.0 5.9981e-05
13790.0 5.9295e-05
13810.0 5.8656e-05
13830.0 5.808e-05
13850.0 5.7513e-05
13870.0 5.6957e-05
13890.0 5.6435e-05
13910.0 5.5924e-05
13930.0 5.5394e-05
13950.0 5.4869e-05
13970.0 5.437e-05
13990.0 5.3859e-05
14010.0 5.3348e-05
14030.0 5.2867e-05
14050.0 5.2408e-05
14070.0 5.1956e-05
14090.0 5.1549e-05
14110.0 5.1191e-05
14130.0 5.0869e-05
14150.0 5.0591e-05
14170.0 5.0372e-05
14190.0 5.02e-05
14210.0 5.0076e-05
14230.0 5.0003e-05
14250.0 4.9977e-05
14270.0 5.0001e-05
14290.0 5.0079e-05
14310.0 5.0192e-05
14330.0 5.0345e-05
14350.0 5.0545e-05
14370.0 5.077e-05
14390.0 5.1005e-05
14410.0 5.1271e-05
14430.0 5.1545e-05
14450.0 5.1803e-05
14470.0 5.2053e-05
14490.0 5.2306e-05
14510.0 5.2522e-05
14530.0 5.2707e-05
14550.0 5.2884e-05
14570.0 5.3047e-05
14590.0 5.3188e-05
14610.0 5.3337e-05
14630.0 5.3513e-05
14650.0 5.3704e-05
14670.0 5.3925e-05
14690.0 5.4213e-05
14710.0 5.4576e-05
14730.0 5.4976e-05
14750.0 5.5465e-05
14770.0 5.6058e-05
14790.0 5.6715e-05
14810.0 5.7426e-05
14830.0 5.8275e-05
14850.0 5.9173e-05
14870.0 6.0074e-05
14890.0 6.1014e-05
14910.0 6.1977e-05
14930.0 6.2849e-05
14950.0 6.361e-05
14970.0 6.4284e-05
14990.0 6.4779e-05
15010.0 6.5074e-05
15030.0 6.5203e-05
15050.0 6.5177e-05
15070.0 6.5005e-05
15090.0 6.4741e-05
15110.0 6.4414e-05
15130.0 6.4047e-05
15150.0 6.3662e-05
15170.0 6.3264e-05
15190.0 6.2859e-05
15210.0 6.2455e-05
15230.0 6.2051e-05
15250.0 6.1643e-05
15270.0 6.1236e-05
15290.0 6.0835e-05
15310.0 6.0431e-05
15330.0 6.0026e-05
15350.0 5.9625e-05
15370.0 5.9226e-05
15390.0 5.8821e-05
15410.0 5.8421e-05
15430.0 5.8025e-05
15450.0 5.7627e-05
15470.0 5.7228e-05
15490.0 5.6835e-05
15510.0 5.6443e-05
15530.0 5.6049e-05
15550.0 5.5659e-05
15570.0 5.5273e-05
15590.0 5.4884e-05
15610.0 5.4496e-05
15630.0 5.4114e-05
15650.0 5.3733e-05
15670.0 5.3351e-05
15690.0 5.2973e-05
15710.0 5.2601e-05
15730.0 5.2225e-05
15750.0 5.1852e-05
15770.0 5.1484e-05
15790.0 5.1118e-05
15810.0 5.0749e-05
15830.0 5.0386e-05
15850.0 5.0028e-05
15870.0 4.9668e-05
15890.0 4.9311e-05
15910.0 4.896e-05
15930.0 4.8609e-05
15950.0 4.8258e-05
15970.0 4.7912e-05
15990.0 4.757e-05
16010.0 4.7227e-05
16030.0 4.6886e-05
16050.0 4.6553e-05
16070.0 4.622e-05
16090.0 4.5887e-05
16110.0 4.5559e-05
16130.0 4.5236e-05
16150.0 4.491e-05
16170.0 4.4588e-05
16190.0 4.4272e-05
16210.0 4.3957e-05
16230.0 4.3642e-05
16250.0 4.3333e-05
16270.0 4.3028e-05
16290.0 4.2722e-05
16310.0 4.2419e-05
16330.0 4.2122e-05
16350.0 4.1826e-05
16370.0 4.1528e-05
16390.0 4.1238e-05
16410.0 4.0951e-05
16430.0 4.0664e-05
16450.0 4.038e-05
16470.0 4.0103e-05
16490.0 3.9824e-05
16510.0 3.9546e-05
16530.0 3.9275e-05
16550.0 3.9006e-05
16570.0 3.8736e-05
16590.0 3.847e-05
16610.0 3.8211e-05
16630.0 3.7951e-05
16650.0 3.7692e-05
16670.0 3.7439e-05
16690.0 3.7188e-05
16710.0 3.6936e-05
16730.0 3.6688e-05
16750.0 3.6446e-05
16770.0 3.6203e-05
16790.0 3.5961e-05
16810.0 3.5726e-05
16830.0 3.5492e-05
16850.0 3.5258e-05
16870.0 3.5028e-05
16890.0 3.4803e-05
16910.0 3.4576e-05
16930.0 3.4351e-05
16950.0 3.4132e-05
16970.0 3.3915e-05
16990.0 3.3697e-05
17010.0 3.3484e-05
17030.0 3.3274e-05
17050.0 3.3064e-05
17070.0 3.2856e-05
17090.0 3.2652e-05
17110.0 3.245e-05
17130.0 3.2247e-05
17150.0 3.2048e-05
17170.0 3.1854e-05
17190.0 3.1659e-05
17210.0 3.1466e-05
17230.0 3.1278e-05
17250.0 3.109e-05
17270.0 3.0902e-05
17290.0 3.0718e-05
17310.0 3.0537e-05
17330.0 3.0356e-05
17350.0 3.0176e-05
17370.0 3.0002e-05
17390.0 2.9828e-05
17410.0 2.9654e-05
17430.0 2.9484e-05
17450.0 2.9317e-05
17470.0 2.9147e-05
17490.0 2.8981e-05
17510.0 2.8819e-05
17530.0 2.8657e-05
17550.0 2.8495e-05
17570.0 2.8338e-05
17590.0 2.8183e-05
17610.0 2.8026e-05
17630.0 2.7873e-05
17650.0 2.7723e-05
17670.0 2.7572e-05
17690.0 2.7421e-05
17710.0 2.7275e-05
17730.0 2.7131e-05
17750.0 2.6986e-05
17770.0 2.6843e-05
17790.0 2.6705e-05
17810.0 2.6565e-05
17830.0 2.6425e-05
17850.0 2.629e-05
17870.0 2.6156e-05
17890.0 2.602e-05
17910.0 2.5887e-05
17930.0 2.5759e-05
17950.0 2.5629e-05
17970.0 2.55e-05
17990.0 2.5375e-05
18010.0 2.525e-05
18030.0 2.5123e-05
18050.0 2.5e-05
18070.0 2.488e-05
18090.0 2.4759e-05
18110.0 2.4639e-05
18130.0 2.4523e-05
18150.0 2.4407e-05
18170.0 2.429e-05
18190.0 2.4176e-05
18210.0 2.4064e-05
18230.0 2.3951e-05
18250.0 2.3838e-05
18270.0 2.373e-05
18290.0 2.3622e-05
18310.0 2.3513e-05
18330.0 2.3407e-05
18350.0 2.3303e-05
18370.0 2.3198e-05
18390.0 2.3093e-05
18410.0 2.2992e-05
18430.0 2.2891e-05
18450.0 2.2788e-05
18470.0 2.2689e-05
18490.0 2.2593e-05
18510.0 2.2494e-05
18530.0 2.2397e-05
18550.0 2.2303e-05
18570.0 2.2209e-05
18590.0 2.2113e-05
18610.0 2.202e-05
18630.0 2.1929e-05
18650.0 2.1837e-05
18670.0 2.1745e-05
18690.0 2.1658e-05
18710.0 2.1569e-05
18730.0 2.148e-05
18750.0 2.1394e-05
18770.0 2.131e-05
18790.0 2.1221e-05
18810.0 2.1136e-05
18830.0 2.1054e-05
18850.0 2.097e-05
18870.0 2.0886e-05
18890.0 2.0806e-05
18910.0 2.0726e-05
18930.0 2.0644e-05
18950.0 2.0565e-05
18970.0 2.0487e-05
18990.0 2.0409e-05
19010.0 2.0328e-05
19030.0 2.0253e-05
19050.0 2.0178e-05
19070.0 2.0101e-05
19090.0 2.0026e-05
19110.0 1.9954e-05
19130.0 1.9879e-05
19150.0 1.9804e-05
19170.0 1.9732e-05
19190.0 1.9661e-05
19210.0 1.9588e-05
19230.0 1.9516e-05
19250.0 1.9448e-05
19270.0 1.9378e-05
19290.0 1.9308e-05
19310.0 1.924e-05
19330.0 1.9173e-05
19350.0 1.9103e-05
19370.0 1.9036e-05
19390.0 1.897e-05
19410.0 1.8903e-05
19430.0 1.8836e-05
19450.0 1.8773e-05
19470.0 1.8709e-05
19490.0 1.8643e-05
19510.0 1.8579e-05
19530.0 1.8517e-05
19550.0 1.8453e-05
19570.0 1.8388e-05
19590.0 1.8328e-05
19610.0 1.8266e-05
19630.0 1.8204e-05
19650.0 1.8143e-05
19670.0 1.8084e-05
19690.0 1.8023e-05
19710.0 1.7962e-05
19730.0 1.7904e-05
19750.0 1.7845e-05
19770.0 1.7783e-05
19790.0 1.7726e-05
19810.0 1.7669e-05
19830.0 1.761e-05
19850.0 1.755e-05
19870.0 1.7492e-05
19890.0 1.7429e-05
19910.0 1.7357e-05
19930.0 1.7279e-05
19950.0 1.7186e-05
19970.0 1.7068e-05
19990.0 1.6921e-05
20010.0 1.6752e-05
20030.0 1.6545e-05
20050.0 1.6302e-05
20070.0 1.604e-05
20090.0 1.5761e-05
20110.0 1.545e-05
20130.0 1.514e-05
20150.0 1.4838e-05
20170.0 1.4529e-05
20190.0 1.4221e-05
20210.0 1.3935e-05
20230.0 1.366e-05
20250.0 1.3388e-05
20270.0 1.3139e-05
20290.0 1.2915e-05
20310.0 1.2707e-05
20330.0 1.2516e-05
20350.0 1.2365e-05
20370.0 1.2238e-05
20390.0 1.2135e-05
20410.0 1.2064e-05
20430.0 1.2024e-05
20450.0 1.2011e-05
20470.0 1.2029e-05
20490.0 1.2076e-05
20510.0 1.2149e-05
20530.0 1.2252e-05
20550.0 1.2377e-05
20570.0 1.2517e-05
20590.0 1.2681e-05
20610.0 1.286e-05
20630.0 1.3044e-05
20650.0 1.3236e-05
20670.0 1.3442e-05
20690.0 1.3638e-05
20710.0 1.3826e-05
20730.0 1.4013e-05
20750.0 1.4188e-05
20770.0 1.4343e-05
20790.0 1.4485e-05
20810.0 1.4613e-05
20830.0 1.472e-05
20850.0 1.4807e-05
20870.0 1.4879e-05
20890.0 1.4932e-05
20910.0 1.4968e-05
20930.0 1.4988e-05
20950.0 1.4995e-05
20970.0 1.4989e-05
20990.0 1.4973e-05
21010.0 1.4945e-05
21030.0 1.4907e-05
21050.0 1.4862e-05
21070.0 1.4809e-05
21090.0 1.4745e-05
21110.0 1.4679e-05
21130.0 1.4608e-05
21150.0 1.453e-05
21170.0 1.4449e-05
21190.0 1.437e-05
21210.0 1.4287e-05
21230.0 1.4203e-05
21250.0 1.4126e-05
21270.0 1.4053e-05
21290.0 1.3983e-05
21310.0 1.3921e-05
21330.0 1.3871e-05
21350.0 1.3828e-05
21370.0 1.3794e-05
21390.0 1.3774e-05
21410.0 1.3764e-05
21430.0 1.3767e-05
21450.0 1.3781e-05
21470.0 1.3807e-05
21490.0 1.3844e-05
21510.0 1.3893e-05
21530.0 1.395e-05
21550.0 1.4015e-05
21570.0 1.4092e-05
21590.0 1.4175e-05
21610.0 1.4262e-05
21630.0 1.4359e-05
21650.0 1.4463e-05
21670.0 1.4567e-05
21690.0 1.4677e-05
21710.0 1.4795e-05
21730.0 1.4914e-05
21750.0 1.5034e-05
21770.0 1.5166e-05
21790.0 1.5301e-05
21810.0 1.5436e-05
21830.0 1.5576e-05
21850.0 1.5725e-05
21870.0 1.5874e-05
21890.0 1.6021e-05
21910.0 1.6178e-05
21930.0 1.6337e-05
21950.0 1.6493e-05
21970.0 1.6651e-05
21990.0 1.6815e-05
22010.0 1.697e-05
22030.0 1.7119e-05
22050.0 1.7268e-05
22070.0 1.7409e-05
22090.0 1.7536e-05
22110.0 1.7655e-05
22130.0 1.7763e-05
22150.0 1.7853e-05
22170.0 1.7927e-05
22190.0 1.7984e-05
22210.0 1.802e-05
22230.0 1.8033e-05
22250.0 1.8025e-05
22270.0 1.7993e-05
22290.0 1.7939e-05
22310.0 1.7862e-05
22330.0 1.7757e-05
22350.0 1.763e-05
22370.0 1.7485e-05
22390.0 1.7316e-05
22410.0 1.712e-05
22430.0 1.6917e-05
22450.0 1.6699e-05
22470.0 1.6458e-05
22490.0 1.6209e-05
22510.0 1.596e-05
22530.0 1.5694e-05
22550.0 1.5418e-05
22570.0 1.5152e-05
22590.0 1.4887e-05
22610.0 1.4615e-05
