#lamb flux
1010.0 0.00024768
1030.0 0.00027559
1050.0 0.00031339
1070.0 0.00036992
1090.0 0.00044408
1110.0 0.00052364
1130.0 0.00060682
1150.0 0.00069585
1170.0 0.00078813
1190.0 0.00087439
1210.0 0.00095765
1230.0 0.0010368
1250.0 0.0011101
1270.0 0.0011697
1290.0 0.0012197
1310.0 0.0012545
1330.0 0.0012708
1350.0 0.001273
1370.0 0.001263
1390.0 0.0012388
1410.0 0.0012027
1430.0 0.0011607
1450.0 0.0011125
1470.0 0.0010591
1490.0 0.0010044
1510.0 0.00095148
1530.0 0.00089793
1550.0 0.00084662
1570.0 0.00079952
1590.0 0.00075631
1610.0 0.00071854
1630.0 0.00069473
1650.0 0.00067759
1670.0 0.00066661
1690.0 0.00066261
1710.0 0.0006668
1730.0 0.00067891
1750.0 0.00069818
1770.0 0.00072663
1790.0 0.00076459
1810.0 0.00081158
1830.0 0.0008683
1850.0 0.00093675
1870.0 0.0010156
1890.0 0.0011048
1910.0 0.0012057
1930.0 0.0013184
1950.0 0.0014408
1970.0 0.001573
1990.0 0.0017158
2010.0 0.0018666
2030.0 0.0020232
2050.0 0.0021864
2070.0 0.0023548
2090.0 0.0025229
2110.0 0.002691
2130.0 0.002859
2150.0 0.0030228
2170.0 0.0031794
2190.0 0.0033316
2210.0 0.0034768
2230.0 0.0036117
2250.0 0.0037375
2270.0 0.0038572
2290.0 0.0039665
2310.0 0.0040653
2330.0 0.0041589
2350.0 0.0042472
2370.0 0.0043291
2390.0 0.0044101
2410.0 0.0044966
2430.0 0.004588
2450.0 0.004689
2470.0 0.0048099
2490.0 0.0049561
2510.0 0.005121
2530.0 0.0053203
2550.0 0.0055708
2570.0 0.0058786
2590.0 0.0062609
2610.0 0.0067841
2630.0 0.007456
2650.0 0.0082525
2670.0 0.0091973
2690.0 0.010278
2710.0 0.011385
2730.0 0.01247
2750.0 0.013573
2770.0 0.014632
2790.0 0.015639
2810.0 0.016667
2830.0 0.017784
2850.0 0.018919
2870.0 0.02012
2890.0 0.021432
2910.0 0.022815
2930.0 0.024212
2950.0 0.025706
2970.0 0.02728
2990.0 0.028868
3010.0 0.030497
3030.0 0.032223
3050.0 0.033994
3070.0 0.03572
3090.0 0.037477
3110.0 0.039193
3130.0 0.040749
3150.0 0.042108
3170.0 0.043225
3190.0 0.044033
3210.0 0.044619
3230.0 0.045031
3250.0 0.045263
3270.0 0.045431
3290.0 0.045635
3310.0 0.045948
3330.0 0.046378
3350.0 0.04689
3370.0 0.047446
3390.0 0.047629
3410.0 0.04793
3430.0 0.049377
3450.0 0.0504
3470.0 0.050598
3490.0 0.052523
3510.0 0.060245
3530.0 0.074173
3550.0 0.084014
3570.0 0.091871
3590.0 0.10341
3610.0 0.10306
3630.0 0.094974
3650.0 0.09974
3670.0 0.11769
3690.0 0.13205
3710.0 0.13687
3730.0 0.13799
3750.0 0.14738
3770.0 0.14819
3790.0 0.14119
3810.0 0.1331
3830.0 0.12617
3850.0 0.12701
3870.0 0.13264
3890.0 0.13669
3910.0 0.13871
3930.0 0.13879
3950.0 0.14853
3970.0 0.16002
3990.0 0.15558
4010.0 0.1388
4030.0 0.12506
4050.0 0.12401
4070.0 0.12962
4090.0 0.12848
4110.0 0.12364
4130.0 0.12295
4150.0 0.12869
4170.0 0.14222
4190.0 0.14942
4210.0 0.14076
4230.0 0.1295
4250.0 0.12256
4270.0 0.11821
4290.0 0.11899
4310.0 0.12217
4330.0 0.11625
4350.0 0.10303
4370.0 0.091903
4390.0 0.084164
4410.0 0.079913
4430.0 0.082199
4450.0 0.09045
4470.0 0.09934
4490.0 0.10623
4510.0 0.11754
4530.0 0.13815
4550.0 0.15977
4570.0 0.17298
4590.0 0.18433
4610.0 0.19427
4630.0 0.19593
4650.0 0.18183
4670.0 0.15829
4690.0 0.13989
4710.0 0.13376
4730.0 0.1278
4750.0 0.11247
4770.0 0.10059
4790.0 0.10365
4810.0 0.11236
4830.0 0.10985
4850.0 0.097619
4870.0 0.09987
4890.0 0.10243
4910.0 0.1039
4930.0 0.10221
4950.0 0.10029
4970.0 0.095852
4990.0 0.088536
5010.0 0.083345
5030.0 0.0819
5050.0 0.081459
5070.0 0.081325
5090.0 0.081204
5110.0 0.081104
5130.0 0.082757
5150.0 0.08685
5170.0 0.094551
5190.0 0.1047
5210.0 0.11288
5230.0 0.11778
5250.0 0.12053
5270.0 0.12444
5290.0 0.12751
5310.0 0.12685
5330.0 0.12246
5350.0 0.11815
5370.0 0.11831
5390.0 0.1214
5410.0 0.12367
5430.0 0.12267
5450.0 0.1209
5470.0 0.11823
5490.0 0.11551
5510.0 0.11451
5530.0 0.11508
5550.0 0.11629
5570.0 0.11673
5590.0 0.11363
5610.0 0.10794
5630.0 0.10263
5650.0 0.097863
5670.0 0.094539
5690.0 0.090748
5710.0 0.088542
5730.0 0.088951
5750.0 0.088035
5770.0 0.086469
5790.0 0.087277
5810.0 0.08982
5830.0 0.09177
5850.0 0.092322
5870.0 0.090034
5890.0 0.086432
5910.0 0.083231
5930.0 0.079048
5950.0 0.075513
5970.0 0.075929
5990.0 0.077774
6010.0 0.077737
6030.0 0.075071
6050.0 0.074586
6070.0 0.077182
6090.0 0.079824
6110.0 0.079609
6130.0 0.075636
6150.0 0.07043
6170.0 0.067548
6190.0 0.065984
6210.0 0.064604
6230.0 0.063312
6250.0 0.063269
6270.0 0.065068
6290.0 0.067673
6310.0 0.070611
6330.0 0.073707
6350.0 0.075591
6370.0 0.075817
6390.0 0.07539
6410.0 0.075994
6430.0 0.076949
6450.0 0.076912
6470.0 0.077069
6490.0 0.077519
6510.0 0.077495
6530.0 0.076556
6550.0 0.074611
6570.0 0.072235
6590.0 0.070156
6610.0 0.06853
6630.0 0.067192
6650.0 0.065008
6670.0 0.062593
6690.0 0.060726
6710.0 0.059656
6730.0 0.059058
6750.0 0.058485
6770.0 0.057709
6790.0 0.056664
6810.0 0.05565
6830.0 0.055326
6850.0 0.055041
6870.0 0.05457
6890.0 0.05449
6910.0 0.053755
6930.0 0.052856
6950.0 0.052732
6970.0 0.052266
6990.0 0.05118
7010.0 0.050344
7030.0 0.049446
7050.0 0.048503
7070.0 0.047351
7090.0 0.046342
7110.0 0.047013
7130.0 0.048349
7150.0 0.049401
7170.0 0.050039
7190.0 0.049957
7210.0 0.049317
7230.0 0.048514
7250.0 0.048012
7270.0 0.047166
7290.0 0.046466
7310.0 0.046079
7330.0 0.046558
7350.0 0.046692
7370.0 0.046543
7390.0 0.046114
7410.0 0.0454
7430.0 0.044937
7450.0 0.044467
7470.0 0.043119
7490.0 0.041676
7510.0 0.03993
7530.0 0.038526
7550.0 0.037779
7570.0 0.038288
7590.0 0.038042
7610.0 0.037622
7630.0 0.037241
7650.0 0.037428
7670.0 0.038206
7690.0 0.039761
7710.0 0.040828
7730.0 0.04235
7750.0 0.043309
7770.0 0.044089
7790.0 0.044165
7810.0 0.043319
7830.0 0.04345
7850.0 0.043047
7870.0 0.041967
7890.0 0.040551
7910.0 0.039344
7930.0 0.038437
7950.0 0.037884
7970.0 0.0379
7990.0 0.038204
8010.0 0.038097
8030.0 0.037695
8050.0 0.037001
8070.0 0.036326
8090.0 0.035583
8110.0 0.035716
8130.0 0.036031
8150.0 0.036092
8170.0 0.03579
8190.0 0.035313
8210.0 0.033927
8230.0 0.031739
8250.0 0.030392
8270.0 0.029612
8290.0 0.029235
8310.0 0.029366
8330.0 0.030029
8350.0 0.0295
8370.0 0.028859
8390.0 0.029256
8410.0 0.030176
8430.0 0.031731
8450.0 0.033156
8470.0 0.033533
8490.0 0.033842
8510.0 0.033662
8530.0 0.033462
8550.0 0.033716
8570.0 0.033755
8590.0 0.033651
8610.0 0.034574
8630.0 0.034833
8650.0 0.034075
8670.0 0.034007
8690.0 0.034133
8710.0 0.033663
8730.0 0.033374
8750.0 0.032353
8770.0 0.031922
8790.0 0.031577
8810.0 0.031262
8830.0 0.029897
8850.0 0.027746
8870.0 0.026082
8890.0 0.025166
8910.0 0.023625
8930.0 0.021995
8950.0 0.021413
8970.0 0.021256
8990.0 0.021278
9010.0 0.021116
9030.0 0.020965
9050.0 0.020826
9070.0 0.020691
9090.0 0.020556
9110.0 0.020422
9130.0 0.020288
9150.0 0.020154
9170.0 0.02002
9190.0 0.019886
9210.0 0.019752
9230.0 0.019619
9250.0 0.019487
9270.0 0.019355
9290.0 0.019223
9310.0 0.019091
9330.0 0.01896
9350.0 0.018829
9370.0 0.018699
9390.0 0.01857
9410.0 0.01844
9430.0 0.018311
9450.0 0.018181
9470.0 0.018054
9490.0 0.01793
9510.0 0.017803
9530.0 0.017677
9550.0 0.017552
9570.0 0.017427
9590.0 0.017303
9610.0 0.01718
9630.0 0.017057
9650.0 0.016935
9670.0 0.016814
9690.0 0.016694
9710.0 0.016574
9730.0 0.016455
9750.0 0.016337
9770.0 0.016219
9790.0 0.016102
9810.0 0.015986
9830.0 0.015867
9850.0 0.015732
9870.0 0.015622
9890.0 0.015516
9910.0 0.015409
9930.0 0.015294
9950.0 0.015186
9970.0 0.015078
9990.0 0.014968
10010.0 0.014845
10030.0 0.014732
10050.0 0.014632
10070.0 0.014531
10090.0 0.01443
10110.0 0.014323
10130.0 0.014204
10150.0 0.014104
10170.0 0.014006
10190.0 0.013903
10210.0 0.013804
10230.0 0.013705
10250.0 0.013603
10270.0 0.013502
10290.0 0.013404
10310.0 0.013304
10330.0 0.013202
10350.0 0.013104
10370.0 0.013007
10390.0 0.012908
10410.0 0.012809
10430.0 0.012715
10450.0 0.012619
10470.0 0.012521
10490.0 0.012427
10510.0 0.012334
10530.0 0.012236
10550.0 0.012141
10570.0 0.012049
10590.0 0.011955
10610.0 0.01186
10630.0 0.011769
10650.0 0.011678
10670.0 0.011584
10690.0 0.011491
10710.0 0.011402
10730.0 0.01131
10750.0 0.011215
10770.0 0.011127
10790.0 0.011038
10810.0 0.010946
10830.0 0.010856
10850.0 0.010769
10870.0 0.010678
10890.0 0.010587
10910.0 0.010501
10930.0 0.010415
10950.0 0.010328
10970.0 0.010246
10990.0 0.010169
11010.0 0.010083
11030.0 0.010015
11050.0 0.0099517
11070.0 0.0098889
11090.0 0.0098232
11110.0 0.0097601
11130.0 0.0096971
11150.0 0.009631
11170.0 0.0095637
11190.0 0.0094985
11210.0 0.0094314
11230.0 0.0093626
11250.0 0.0092963
11270.0 0.009232
11290.0 0.0091666
11310.0 0.0091029
11330.0 0.0090446
11350.0 0.0089871
11370.0 0.0089305
11390.0 0.0088778
11410.0 0.0088277
11430.0 0.0087764
11450.0 0.0087272
11470.0 0.0086801
11490.0 0.0086322
11510.0 0.0085823
11530.0 0.0085336
11550.0 0.0084841
11570.0 0.008431
11590.0 0.0083765
11610.0 0.0083217
11630.0 0.008263
11650.0 0.0082006
11670.0 0.0081395
11690.0 0.0080772
11710.0 0.0080118
11730.0 0.0079467
11750.0 0.0078844
11770.0 0.0078202
11790.0 0.0077561
11810.0 0.0076956
11830.0 0.0076367
11850.0 0.0075766
11870.0 0.0075204
11890.0 0.0074682
11910.0 0.0074165
11930.0 0.0073665
11950.0 0.0073209
11970.0 0.0072774
11990.0 0.0072347
12010.0 0.0071961
12030.0 0.0071613
12050.0 0.0071287
12070.0 0.0070991
12090.0 0.0070749
12110.0 0.0070541
12130.0 0.0070367
12150.0 0.0070239
12170.0 0.0070156
12190.0 0.0070109
12210.0 0.0070107
12230.0 0.0070146
12250.0 0.0070223
12270.0 0.0070339
12290.0 0.0070486
12310.0 0.0070656
12330.0 0.0070856
12350.0 0.0071073
12370.0 0.0071295
12390.0 0.0071524
12410.0 0.007176
12430.0 0.0071974
12450.0 0.0072169
12470.0 0.0072343
12490.0 0.0072483
12510.0 0.0072579
12530.0 0.0072632
12550.0 0.0072631
12570.0 0.0072573
12590.0 0.0072457
12610.0 0.0072269
12630.0 0.0072014
12650.0 0.0071712
12670.0 0.0071342
12690.0 0.0070904
12710.0 0.007043
12730.0 0.0069919
12750.0 0.0069337
12770.0 0.0068735
12790.0 0.0068128
12810.0 0.0067491
12830.0 0.0066824
12850.0 0.0066185
12870.0 0.0065551
12890.0 0.0064896
12910.0 0.0064259
12930.0 0.0063653
12950.0 0.0063033
12970.0 0.0062412
12990.0 0.0061835
13010.0 0.0061269
13030.0 0.0060697
13050.0 0.0060149
13070.0 0.0059637
13090.0 0.0059121
13110.0 0.0058618
13130.0 0.0058154
13150.0 0.0057712
13170.0 0.005727
13190.0 0.0056871
13210.0 0.0056509
13230.0 0.0056158
13250.0 0.0055828
13270.0 0.0055533
13290.0 0.0055252
13310.0 0.0054973
13330.0 0.0054714
13350.0 0.0054468
13370.0 0.0054217
13390.0 0.005396
13410.0 0.0053716
13430.0 0.0053462
13450.0 0.0053193
13470.0 0.0052921
13490.0 0.0052648
13510.0 0.0052345
13530.0 0.0052036
13550.0 0.0051731
13570.0 0.0051411
13590.0 0.0051073
13610.0 0.0050739
13630.0 0.0050408
13650.0 0.0050055
13670.0 0.00497
13690.0 0.0049354
13710.0 0.0048999
13730.0 0.0048621
13750.0 0.0048262
13770.0 0.0047904
13790.0 0.0047528
13810.0 0.0047151
13830.0 0.0046786
13850.0 0.0046402
13870.0 0.0046004
13890.0 0.0045613
13910.0 0.0045218
13930.0 0.0044798
13950.0 0.0044371
13970.0 0.0043958
13990.0 0.0043523
14010.0 0.0043073
14030.0 0.0042631
14050.0 0.0042189
14070.0 0.0041716
14090.0 0.0041256
14110.0 0.0040812
14130.0 0.004036
14150.0 0.0039907
14170.0 0.0039486
14190.0 0.0039077
14210.0 0.0038668
14230.0 0.0038282
14250.0 0.0037923
14270.0 0.0037565
14290.0 0.0037216
14310.0 0.0036897
14330.0 0.0036588
14350.0 0.0036277
14370.0 0.0035981
14390.0 0.0035702
14410.0 0.0035416
14430.0 0.0035135
14450.0 0.0034869
14470.0 0.0034609
14490.0 0.0034343
14510.0 0.0034095
14530.0 0.0033862
14550.0 0.0033631
14570.0 0.0033408
14590.0 0.0033203
14610.0 0.0033003
14630.0 0.0032805
14650.0 0.0032621
14670.0 0.0032448
14690.0 0.0032277
14710.0 0.0032113
14730.0 0.0031965
14750.0 0.0031823
14770.0 0.0031687
14790.0 0.0031565
14810.0 0.0031458
14830.0 0.0031359
14850.0 0.0031278
14870.0 0.0031215
14890.0 0.0031168
14910.0 0.0031135
14930.0 0.0031116
14950.0 0.0031106
14970.0 0.00311
14990.0 0.0031094
15010.0 0.0031083
15030.0 0.0031064
15050.0 0.0031036
15070.0 0.0031
15090.0 0.0030958
15110.0 0.003091
15130.0 0.0030859
15150.0 0.0030808
15170.0 0.0030754
15190.0 0.0030699
15210.0 0.0030645
15230.0 0.0030591
15250.0 0.0030535
15270.0 0.003048
15290.0 0.0030427
15310.0 0.0030372
15330.0 0.0030316
15350.0 0.0030262
15370.0 0.0030208
15390.0 0.0030152
15410.0 0.0030097
15430.0 0.0030043
15450.0 0.0029988
15470.0 0.0029932
15490.0 0.0029878
15510.0 0.0029824
15530.0 0.0029769
15550.0 0.0029715
15570.0 0.0029661
15590.0 0.0029606
15610.0 0.0029551
15630.0 0.0029498
15650.0 0.0029444
15670.0 0.0029389
15690.0 0.0029336
15710.0 0.0029283
15730.0 0.0029229
15750.0 0.0029175
15770.0 0.0029123
15790.0 0.0029071
15810.0 0.0029016
15830.0 0.0028964
15850.0 0.0028913
15870.0 0.002886
15890.0 0.0028808
15910.0 0.0028757
15930.0 0.0028706
15950.0 0.0028653
15970.0 0.0028602
15990.0 0.0028552
16010.0 0.0028501
16030.0 0.0028449
16050.0 0.0028401
16070.0 0.0028351
16090.0 0.0028301
16110.0 0.0028252
16130.0 0.0028204
16150.0 0.0028154
16170.0 0.0028104
16190.0 0.0028057
16210.0 0.0028009
16230.0 0.002796
16250.0 0.0027913
16270.0 0.0027867
16290.0 0.0027819
16310.0 0.0027772
16330.0 0.0027727
16350.0 0.002768
16370.0 0.0027633
16390.0 0.0027588
16410.0 0.0027543
16430.0 0.0027497
16450.0 0.0027452
16470.0 0.0027409
16490.0 0.0027364
16510.0 0.0027319
16530.0 0.0027276
16550.0 0.0027233
16570.0 0.0027188
16590.0 0.0027144
16610.0 0.0027103
16630.0 0.002706
16650.0 0.0027017
16670.0 0.0026975
16690.0 0.0026934
16710.0 0.002689
16730.0 0.0026849
16750.0 0.0026808
16770.0 0.0026767
16790.0 0.0026724
16810.0 0.0026685
16830.0 0.0026644
16850.0 0.0026603
16870.0 0.0026563
16890.0 0.0026523
16910.0 0.0026483
16930.0 0.0026441
16950.0 0.0026402
16970.0 0.0026363
16990.0 0.0026322
17010.0 0.0026283
17030.0 0.0026245
17050.0 0.0026205
17070.0 0.0026165
17090.0 0.0026126
17110.0 0.0026088
17130.0 0.0026047
17150.0 0.0026008
17170.0 0.002597
17190.0 0.002593
17210.0 0.0025891
17230.0 0.0025853
17250.0 0.0025814
17270.0 0.0025774
17290.0 0.0025735
17310.0 0.0025697
17330.0 0.0025657
17350.0 0.0025617
17370.0 0.0025579
17390.0 0.0025539
17410.0 0.0025499
17430.0 0.002546
17450.0 0.0025422
17470.0 0.002538
17490.0 0.002534
17510.0 0.0025301
17530.0 0.0025261
17550.0 0.0025219
17570.0 0.002518
17590.0 0.002514
17610.0 0.0025098
17630.0 0.0025057
17650.0 0.0025017
17670.0 0.0024975
17690.0 0.0024932
17710.0 0.0024891
17730.0 0.0024849
17750.0 0.0024806
17770.0 0.0024763
17790.0 0.0024722
17810.0 0.0024678
17830.0 0.0024634
17850.0 0.0024591
17870.0 0.0024547
17890.0 0.0024502
17910.0 0.0024457
17930.0 0.0024413
17950.0 0.0024368
17970.0 0.0024322
17990.0 0.0024277
18010.0 0.0024231
18030.0 0.0024183
18050.0 0.0024136
18070.0 0.0024089
18090.0 0.0024041
18110.0 0.0023992
18130.0 0.0023945
18150.0 0.0023897
18170.0 0.0023846
18190.0 0.0023797
18210.0 0.0023748
18230.0 0.0023697
18250.0 0.0023645
18270.0 0.0023594
18290.0 0.0023543
18310.0 0.002349
18330.0 0.0023438
18350.0 0.0023386
18370.0 0.0023332
18390.0 0.0023277
18410.0 0.0023224
18430.0 0.0023169
18450.0 0.0023113
18470.0 0.0023057
18490.0 0.0023002
18510.0 0.0022945
18530.0 0.0022888
18550.0 0.0022832
18570.0 0.0022774
18590.0 0.0022714
18610.0 0.0022656
18630.0 0.0022598
18650.0 0.0022537
18670.0 0.0022476
18690.0 0.0022417
18710.0 0.0022356
18730.0 0.0022294
18750.0 0.0022233
18770.0 0.0022172
18790.0 0.0022107
18810.0 0.0022044
18830.0 0.0021981
18850.0 0.0021917
18870.0 0.0021852
18890.0 0.0021788
18910.0 0.0021723
18930.0 0.0021656
18950.0 0.002159
18970.0 0.0021525
18990.0 0.0021457
19010.0 0.0021388
19030.0 0.0021322
19050.0 0.0021254
19070.0 0.0021185
19090.0 0.0021116
19110.0 0.0021048
19130.0 0.0020978
19150.0 0.0020907
19170.0 0.0020837
19190.0 0.0020767
19210.0 0.0020695
19230.0 0.0020623
19250.0 0.0020553
19270.0 0.0020481
19290.0 0.0020408
19310.0 0.0020336
19330.0 0.0020263
19350.0 0.0020189
19370.0 0.0020115
19390.0 0.0020042
19410.0 0.0019968
19430.0 0.0019893
19450.0 0.0019819
19470.0 0.0019745
19490.0 0.0019669
19510.0 0.0019594
19530.0 0.0019519
19550.0 0.0019443
19570.0 0.0019366
19590.0 0.0019291
19610.0 0.0019215
19630.0 0.0019137
19650.0 0.0019061
19670.0 0.0018985
19690.0 0.0018908
19710.0 0.001883
19730.0 0.0018754
19750.0 0.0018677
19770.0 0.0018598
19790.0 0.0018521
19810.0 0.0018444
19830.0 0.0018366
19850.0 0.0018287
19870.0 0.0018209
19890.0 0.0018128
19910.0 0.0018041
19930.0 0.0017951
19950.0 0.0017853
19970.0 0.001774
19990.0 0.0017611
20010.0 0.001747
20030.0 0.0017307
20050.0 0.0017124
20070.0 0.001693
20090.0 0.0016727
20110.0 0.0016504
20130.0 0.0016281
20150.0 0.0016063
20170.0 0.001584
20190.0 0.0015617
20210.0 0.0015405
20230.0 0.0015198
20250.0 0.001499
20270.0 0.0014793
20290.0 0.0014608
20310.0 0.0014427
20330.0 0.001425
20350.0 0.0014092
20370.0 0.001394
20390.0 0.0013794
20410.0 0.0013659
20430.0 0.0013536
20450.0 0.0013416
20470.0 0.0013304
20490.0 0.0013204
20510.0 0.001311
20530.0 0.0013021
20550.0 0.0012941
20570.0 0.0012869
20590.0 0.00128
20610.0 0.0012738
20630.0 0.0012681
20650.0 0.0012628
20670.0 0.0012578
20690.0 0.0012533
20710.0 0.001249
20730.0 0.0012448
20750.0 0.0012407
20770.0 0.0012367
20790.0 0.0012325
20810.0 0.0012282
20830.0 0.0012237
20850.0 0.0012189
20870.0 0.0012136
20890.0 0.0012078
20910.0 0.0012018
20930.0 0.0011951
20950.0 0.0011879
20970.0 0.0011802
20990.0 0.0011722
21010.0 0.0011633
21030.0 0.0011541
21050.0 0.0011448
21070.0 0.0011349
21090.0 0.0011245
21110.0 0.0011142
21130.0 0.0011039
21150.0 0.0010932
21170.0 0.0010825
21190.0 0.0010721
21210.0 0.0010615
21230.0 0.0010508
21250.0 0.0010406
21270.0 0.0010307
21290.0 0.0010206
21310.0 0.0010109
21330.0 0.0010018
21350.0 0.00099273
21370.0 0.00098381
21390.0 0.00097541
21410.0 0.00096731
21430.0 0.00095908
21450.0 0.00095133
21470.0 0.00094398
21490.0 0.00093666
21510.0 0.00092944
21530.0 0.00092262
21550.0 0.0009159
21570.0 0.00090907
21590.0 0.00090247
21610.0 0.00089607
21630.0 0.00088958
21650.0 0.00088298
21670.0 0.00087678
21690.0 0.00087054
21710.0 0.00086415
21730.0 0.0008579
21750.0 0.00085183
21770.0 0.00084544
21790.0 0.00083909
21810.0 0.00083293
21830.0 0.00082671
21850.0 0.00082027
21870.0 0.00081397
21890.0 0.00080783
21910.0 0.00080143
21930.0 0.000795
21950.0 0.00078877
21970.0 0.00078244
21990.0 0.0007758
22010.0 0.00076945
22030.0 0.0007632
22050.0 0.00075677
22070.0 0.00075037
22090.0 0.00074431
22110.0 0.00073817
22130.0 0.00073198
22150.0 0.00072608
22170.0 0.00072041
22190.0 0.00071463
22210.0 0.00070906
22230.0 0.00070397
22250.0 0.00069894
22270.0 0.00069401
22290.0 0.00068948
22310.0 0.00068522
22330.0 0.00068093
22350.0 0.00067695
22370.0 0.00067329
22390.0 0.00066973
22410.0 0.00066622
22430.0 0.00066306
22450.0 0.00066005
22470.0 0.00065704
22490.0 0.00065418
22510.0 0.00065154
22530.0 0.00064885
22550.0 0.00064619
22570.0 0.00064374
22590.0 0.00064137
22610.0 0.00063897
22630.0 0.00063669
22650.0 0.00063463
22670.0 0.00063255
22690.0 0.00063054
22710.0 0.00062874
22730.0 0.00062707
22750.0 0.00062539
22770.0 0.00062397
22790.0 0.00062279
22810.0 0.00062171
22830.0 0.00062082
22850.0 0.00062023
22870.0 0.00061985
22890.0 0.00061966
22910.0 0.00061981
22930.0 0.00062027
22950.0 0.00062104
22970.0 0.00062215
22990.0 0.00062365
23010.0 0.0006255
23030.0 0.00062776
23050.0 0.00063038
23070.0 0.00063333
23090.0 0.00063673
23110.0 0.00064047
23130.0 0.00064446
23150.0 0.00064877
23170.0 0.00065343
23190.0 0.00065825
23210.0 0.00066319
23230.0 0.00066844
23250.0 0.00067385
23270.0 0.00067928
23290.0 0.00068488
23310.0 0.00069073
23330.0 0.00069648
23350.0 0.00070225
23370.0 0.00070818
23390.0 0.00071412
23410.0 0.00071994
23430.0 0.00072587
23450.0 0.00073211
23470.0 0.00073831
23490.0 0.0007445
23510.0 0.00075085
23530.0 0.0007572
23550.0 0.00076344
23570.0 0.00076978
23590.0 0.00077622
23610.0 0.00078261
23630.0 0.00078902
23650.0 0.00079566
23670.0 0.00080232
23690.0 0.00080902
23710.0 0.00081593
23730.0 0.0008231
23750.0 0.0008303
23770.0 0.0008377
23790.0 0.00084546
23810.0 0.0008534
23830.0 0.00086143
23850.0 0.00086987
23870.0 0.0008786
23890.0 0.00088732
23910.0 0.00089622
23930.0 0.00090543
23950.0 0.00091467
23970.0 0.00092379
23990.0 0.00093314
24010.0 0.00094251
24030.0 0.00095166
24050.0 0.00096071
24070.0 0.00096983
24090.0 0.00097857
24110.0 0.00098697
24130.0 0.00099522
24150.0 0.0010032
24170.0 0.0010108
24190.0 0.0010182
