#lamb flux
1010.0 9.7128e-09
1030.0 1.0742e-08
1050.0 1.1927e-08
1070.0 1.326e-08
1090.0 1.4774e-08
1110.0 1.6327e-08
1130.0 1.789e-08
1150.0 1.9528e-08
1170.0 2.1217e-08
1190.0 2.2818e-08
1210.0 2.4442e-08
1230.0 2.6119e-08
1250.0 2.7762e-08
1270.0 2.9358e-08
1290.0 3.1045e-08
1310.0 3.273e-08
1330.0 3.4346e-08
1350.0 3.5981e-08
1370.0 3.7668e-08
1390.0 3.9313e-08
1410.0 4.0909e-08
1430.0 4.2578e-08
1450.0 4.4247e-08
1470.0 4.586e-08
1490.0 4.749e-08
1510.0 4.9213e-08
1530.0 5.0845e-08
1550.0 5.2455e-08
1570.0 5.4122e-08
1590.0 5.579e-08
1610.0 5.7385e-08
1630.0 5.9029e-08
1650.0 6.0717e-08
1670.0 6.2351e-08
1690.0 6.3966e-08
1710.0 6.5643e-08
1730.0 6.7331e-08
1750.0 6.8921e-08
1770.0 7.0558e-08
1790.0 7.223e-08
1810.0 7.3851e-08
1830.0 7.5446e-08
1850.0 7.7142e-08
1870.0 7.8796e-08
1890.0 8.0397e-08
1910.0 8.2034e-08
1930.0 8.3713e-08
1950.0 8.532e-08
1970.0 8.6911e-08
1990.0 8.8565e-08
2010.0 9.0196e-08
2030.0 9.1772e-08
2050.0 9.3401e-08
2070.0 9.5074e-08
2090.0 9.6655e-08
2110.0 9.8236e-08
2130.0 9.9867e-08
2150.0 1.0147e-07
2170.0 1.0301e-07
2190.0 1.0461e-07
2210.0 1.0622e-07
2230.0 1.0776e-07
2250.0 1.0931e-07
2270.0 1.1092e-07
2290.0 1.1249e-07
2310.0 1.14e-07
2330.0 1.1556e-07
2350.0 1.1717e-07
2370.0 1.1878e-07
2390.0 1.2051e-07
2410.0 1.2257e-07
2430.0 1.2493e-07
2450.0 1.2776e-07
2470.0 1.3138e-07
2490.0 1.3595e-07
2510.0 1.4114e-07
2530.0 1.4739e-07
2550.0 1.552e-07
2570.0 1.6493e-07
2590.0 1.7759e-07
2610.0 1.9653e-07
2630.0 2.2358e-07
2650.0 2.5895e-07
2670.0 3.0468e-07
2690.0 3.6087e-07
2710.0 4.2086e-07
2730.0 4.8013e-07
2750.0 5.3851e-07
2770.0 5.8929e-07
2790.0 6.2961e-07
2810.0 6.6161e-07
2830.0 6.8661e-07
2850.0 7.0368e-07
2870.0 7.1621e-07
2890.0 7.2612e-07
2910.0 7.3404e-07
2930.0 7.4051e-07
2950.0 7.4668e-07
2970.0 7.5272e-07
2990.0 7.5838e-07
3010.0 2.1436e-05
3030.0 2.1596e-05
3050.0 2.1751e-05
3070.0 2.1884e-05
3090.0 2.1998e-05
3110.0 2.2069e-05
3130.0 2.2066e-05
3150.0 2.1968e-05
3170.0 2.1732e-05
3190.0 2.1363e-05
3210.0 2.0894e-05
3230.0 2.0358e-05
3250.0 1.9829e-05
3270.0 1.9442e-05
3290.0 1.9227e-05
3310.0 1.9262e-05
3330.0 1.9541e-05
3350.0 2.0026e-05
3370.0 2.0719e-05
3390.0 2.1593e-05
3410.0 2.2543e-05
3430.0 2.3611e-05
3450.0 2.4839e-05
3470.0 2.6181e-05
3490.0 2.7603e-05
3510.0 2.921e-05
3530.0 3.0931e-05
3550.0 3.2674e-05
3570.0 3.4492e-05
3590.0 3.6469e-05
3610.0 3.8505e-05
3630.0 4.0536e-05
3650.0 4.2643e-05
3670.0 4.4566e-05
3690.0 4.6004e-05
3710.0 4.6828e-05
3730.0 4.6856e-05
3750.0 4.6204e-05
3770.0 4.5947e-05
3790.0 4.5674e-05
3810.0 4.4552e-05
3830.0 4.5931e-05
3850.0 5.1356e-05
3870.0 5.4334e-05
3890.0 5.4086e-05
3910.0 5.4317e-05
3930.0 5.5747e-05
3950.0 5.6627e-05
3970.0 5.1592e-05
3990.0 4.4393e-05
4010.0 0.00013305
4030.0 0.00016121
4050.0 0.00018482
4070.0 0.00016036
4090.0 0.00014524
4110.0 0.00012816
4130.0 0.00011796
4150.0 0.00012547
4170.0 0.00012359
4190.0 0.00013174
4210.0 0.00013054
4230.0 0.00013807
4250.0 0.00016334
4270.0 0.00016526
4290.0 0.00015229
4310.0 0.00015824
4330.0 0.00016832
4350.0 0.00018873
4370.0 0.00021477
4390.0 0.00020154
4410.0 0.00014891
4430.0 0.00012606
4450.0 0.00011583
4470.0 8.8906e-05
4490.0 9.5941e-05
4510.0 0.00014492
4530.0 0.00016714
4550.0 0.00016859
4570.0 0.0001897
4590.0 0.00021609
4610.0 0.00029145
4630.0 0.00037854
4650.0 0.00041052
4670.0 0.00038018
4690.0 0.00036276
4710.0 0.00038346
4730.0 0.00036188
4750.0 0.00027055
4770.0 0.00019846
4790.0 0.00018532
4810.0 0.00017664
4830.0 0.00016171
4850.0 0.00017745
4870.0 0.00023443
4890.0 0.00027646
4910.0 0.00024256
4930.0 0.00021463
4950.0 0.0002358
4970.0 0.0003024
4990.0 0.00040983
5010.0 0.00047146
5030.0 0.00041571
5050.0 0.00028126
5070.0 0.00018536
5090.0 0.00014947
5110.0 0.00015371
5130.0 0.00017741
5150.0 0.00019221
5170.0 0.00018932
5190.0 0.00017691
5210.0 0.00018491
5230.0 0.00019438
5250.0 0.00020949
5270.0 0.00022603
5290.0 0.00025049
5310.0 0.00029156
5330.0 0.00032265
5350.0 0.00032059
5370.0 0.00033675
5390.0 0.00038643
5410.0 0.00038608
5430.0 0.00034144
5450.0 0.0003137
5470.0 0.0003331
5490.0 0.00040695
5510.0 0.00050883
5530.0 0.00058361
5550.0 0.00056407
5570.0 0.00051278
5590.0 0.00044587
5610.0 0.00041119
5630.0 0.00039873
5650.0 0.00037975
5670.0 0.00035985
5690.0 0.0003217
5710.0 0.00031367
5730.0 0.00028894
5750.0 0.00020372
5770.0 0.00015893
5790.0 0.00018011
5810.0 0.00020337
5830.0 0.00024957
5850.0 0.00029708
5870.0 0.00032962
5890.0 0.0003352
5910.0 0.00032886
5930.0 0.00031304
5950.0 0.00031898
5970.0 0.0003636
5990.0 0.00034188
6010.0 0.0002866
6030.0 0.00024213
6050.0 0.00021087
6070.0 0.00020972
6090.0 0.0002274
6110.0 0.00025427
6130.0 0.00025817
6150.0 0.00022213
6170.0 0.00019541
6190.0 0.0002199
6210.0 0.00029071
6230.0 0.00038149
6250.0 0.00041321
6270.0 0.00036109
6290.0 0.0003038
6310.0 0.00023717
6330.0 0.00018172
6350.0 0.00016209
6370.0 0.00017045
6390.0 0.00019705
6410.0 0.00024297
6430.0 0.00028373
6450.0 0.00032466
6470.0 0.00037174
6490.0 0.00044904
6510.0 0.00050208
6530.0 0.00049257
6550.0 0.00044542
6570.0 0.00037812
6590.0 0.00034096
6610.0 0.000294
6630.0 0.00026635
6650.0 0.00025178
6670.0 0.00024459
6690.0 0.000221
6710.0 0.0002009
6730.0 0.0001447
6750.0 0.00014346
6770.0 0.00015593
6790.0 0.00017923
6810.0 0.000164
6830.0 0.00016887
6850.0 0.00015795
6870.0 0.00014429
6890.0 0.00013854
6910.0 0.00014763
6930.0 0.00013828
6950.0 0.00014226
6970.0 0.00014963
6990.0 0.00016985
7010.0 0.00017129
7030.0 0.00017401
7050.0 0.00016595
7070.0 0.00015812
7090.0 0.00015858
7110.0 0.00016317
7130.0 0.0001756
7150.0 0.0001865
7170.0 0.00020579
7190.0 0.00022622
7210.0 0.00022229
7230.0 0.00022852
7250.0 0.00024558
7270.0 0.00026762
7290.0 0.00031764
7310.0 0.00034467
7330.0 0.00033315
7350.0 0.00030131
7370.0 0.00026217
7390.0 0.00025434
7410.0 0.00027028
7430.0 0.00030039
7450.0 0.00032718
7470.0 0.00032417
7490.0 0.00029558
7510.0 0.00033482
7530.0 0.00033115
7550.0 0.00029765
7570.0 0.00023252
7590.0 0.00015985
7610.0 0.0001372
7630.0 0.00015588
7650.0 0.00018431
7670.0 0.00022939
7690.0 0.00025242
7710.0 0.00026305
7730.0 0.00027644
7750.0 0.00031033
7770.0 0.00031521
7790.0 0.00028954
7810.0 0.00026418
7830.0 0.00027243
7850.0 0.00026483
7870.0 0.0002428
7890.0 0.000204
7910.0 0.00016583
7930.0 0.00015834
7950.0 0.00014425
7970.0 0.00013353
7990.0 0.00013277
8010.0 9.8332e-06
8030.0 9.7053e-06
8050.0 9.5744e-06
8070.0 9.6998e-06
8090.0 1.0422e-05
8110.0 1.0245e-05
8130.0 8.4505e-06
8150.0 8.2298e-06
8170.0 7.0888e-06
8190.0 6.7182e-06
8210.0 8.7242e-06
8230.0 9.7132e-06
8250.0 8.7544e-06
8270.0 7.6195e-06
8290.0 7.4276e-06
8310.0 5.7166e-06
8330.0 3.853e-06
8350.0 2.7344e-06
8370.0 1.7228e-06
8390.0 3.1492e-06
8410.0 3.6697e-06
8430.0 4.5235e-06
8450.0 5.3118e-06
8470.0 6.6022e-06
8490.0 6.5557e-06
8510.0 6.4485e-06
8530.0 6.7299e-06
8550.0 9.08e-06
8570.0 1.0749e-05
8590.0 1.1598e-05
8610.0 1.4651e-05
8630.0 1.765e-05
8650.0 1.8463e-05
8670.0 1.9621e-05
8690.0 1.9731e-05
8710.0 1.7869e-05
8730.0 1.6621e-05
8750.0 1.4671e-05
8770.0 1.3921e-05
8790.0 1.3676e-05
8810.0 1.3105e-05
8830.0 1.0479e-05
8850.0 7.6717e-06
8870.0 5.8741e-06
8890.0 5.7429e-06
8910.0 6.5814e-06
8930.0 7.4859e-06
8950.0 7.6293e-06
8970.0 7.6653e-06
8990.0 6.8366e-06
9010.0 7.1644e-05
9030.0 6.4918e-05
9050.0 6.5231e-05
9070.0 6.5746e-05
9090.0 6.6198e-05
9110.0 6.6755e-05
9130.0 6.7186e-05
9150.0 6.752e-05
9170.0 6.7877e-05
9190.0 6.8258e-05
9210.0 6.8659e-05
9230.0 6.9082e-05
9250.0 6.9511e-05
9270.0 6.9957e-05
9290.0 7.0417e-05
9310.0 7.0879e-05
9330.0 7.1351e-05
9350.0 7.184e-05
9370.0 7.2335e-05
9390.0 7.2834e-05
9410.0 7.3348e-05
9430.0 7.3878e-05
9450.0 7.4406e-05
9470.0 7.4944e-05
9490.0 7.5498e-05
9510.0 7.6059e-05
9530.0 7.6622e-05
9550.0 7.7206e-05
9570.0 7.7799e-05
9590.0 7.8394e-05
9610.0 7.8999e-05
9630.0 7.962e-05
9650.0 8.0247e-05
9670.0 8.0874e-05
9690.0 8.1519e-05
9710.0 8.2173e-05
9730.0 8.2829e-05
9750.0 8.3495e-05
9770.0 8.4181e-05
9790.0 8.4865e-05
9810.0 8.5553e-05
9830.0 8.6255e-05
9850.0 8.6967e-05
9870.0 8.7676e-05
9890.0 8.8396e-05
9910.0 8.9129e-05
9930.0 8.9863e-05
9950.0 9.0601e-05
9970.0 9.1352e-05
9990.0 9.2111e-05
10010.0 7.9928e-05
10030.0 8.0584e-05
10050.0 8.1254e-05
10070.0 8.1946e-05
10090.0 8.2599e-05
10110.0 8.3268e-05
10130.0 8.394e-05
10150.0 8.4609e-05
10170.0 8.5286e-05
10190.0 8.5975e-05
10210.0 8.6656e-05
10230.0 8.7336e-05
10250.0 8.8026e-05
10270.0 8.8715e-05
10290.0 8.9396e-05
10310.0 9.0085e-05
10330.0 9.0782e-05
10350.0 9.1466e-05
10370.0 9.2149e-05
10390.0 9.2839e-05
10410.0 9.3526e-05
10430.0 9.4199e-05
10450.0 9.4879e-05
10470.0 9.5561e-05
10490.0 9.6232e-05
10510.0 9.6897e-05
10530.0 9.7574e-05
10550.0 9.824e-05
10570.0 9.8892e-05
10590.0 9.9547e-05
10610.0 0.0001002
10630.0 0.00010084
10650.0 0.00010147
10670.0 0.00010211
10690.0 0.00010274
10710.0 0.00010335
10730.0 0.00010397
10750.0 0.00010459
10770.0 0.00010518
10790.0 0.00010576
10810.0 0.00010635
10830.0 0.00010691
10850.0 0.00010745
10870.0 0.00010798
10890.0 0.00010843
10910.0 0.00010879
10930.0 0.00010899
10950.0 0.00010894
10970.0 0.00010857
10990.0 0.00010785
11010.0 0.00010664
11030.0 0.00010494
11050.0 0.00010287
11070.0 0.0001004
11090.0 9.7431e-05
11110.0 9.4358e-05
11130.0 9.1153e-05
11150.0 8.7702e-05
11170.0 8.4145e-05
11190.0 8.0694e-05
11210.0 7.7131e-05
11230.0 7.3477e-05
11250.0 6.9985e-05
11270.0 6.6632e-05
11290.0 6.3273e-05
11310.0 6.0091e-05
11330.0 5.7289e-05
11350.0 5.4641e-05
11370.0 5.2195e-05
11390.0 5.0078e-05
11410.0 4.8227e-05
11430.0 4.6507e-05
11450.0 4.5024e-05
11470.0 4.3742e-05
11490.0 4.255e-05
11510.0 4.14e-05
11530.0 4.0334e-05
11550.0 3.9275e-05
11570.0 3.8144e-05
11590.0 3.6974e-05
11610.0 3.5782e-05
11630.0 3.4486e-05
11650.0 3.3098e-05
11670.0 3.1729e-05
11690.0 3.0342e-05
11710.0 2.8911e-05
11730.0 2.7524e-05
11750.0 2.624e-05
11770.0 2.4981e-05
11790.0 2.3802e-05
11810.0 2.2763e-05
11830.0 2.1834e-05
11850.0 2.0979e-05
11870.0 2.0263e-05
11890.0 1.9668e-05
11910.0 1.9146e-05
11930.0 1.8696e-05
11950.0 1.8322e-05
11970.0 1.7988e-05
11990.0 1.7672e-05
12010.0 1.738e-05
12030.0 1.7098e-05
12050.0 1.6807e-05
12070.0 1.6504e-05
12090.0 1.6212e-05
12110.0 1.5915e-05
12130.0 1.5618e-05
12150.0 1.5344e-05
12170.0 1.5105e-05
12190.0 1.4899e-05
12210.0 1.4754e-05
12230.0 1.4685e-05
12250.0 1.4696e-05
12270.0 1.4807e-05
12290.0 1.5016e-05
12310.0 1.5317e-05
12330.0 1.5737e-05
12350.0 1.6262e-05
12370.0 1.6859e-05
12390.0 1.7548e-05
12410.0 1.8355e-05
12430.0 1.9175e-05
12450.0 2.0025e-05
12470.0 2.0928e-05
12490.0 2.1835e-05
12510.0 2.2686e-05
12530.0 2.3533e-05
12550.0 2.4349e-05
12570.0 2.507e-05
12590.0 2.5703e-05
12610.0 2.6267e-05
12630.0 2.6717e-05
12650.0 2.7027e-05
12670.0 2.7231e-05
12690.0 2.7313e-05
12710.0 2.7268e-05
12730.0 2.711e-05
12750.0 2.6828e-05
12770.0 2.6441e-05
12790.0 2.5972e-05
12810.0 2.5411e-05
12830.0 2.4763e-05
12850.0 2.4085e-05
12870.0 2.3368e-05
12890.0 2.2592e-05
12910.0 2.1803e-05
12930.0 2.1026e-05
12950.0 2.0215e-05
12970.0 1.939e-05
12990.0 1.8609e-05
13010.0 1.7837e-05
13030.0 1.7057e-05
13050.0 1.6308e-05
13070.0 1.5607e-05
13090.0 1.4902e-05
13110.0 1.4221e-05
13130.0 1.3593e-05
13150.0 1.2998e-05
13170.0 1.2416e-05
13190.0 1.1897e-05
13210.0 1.1441e-05
13230.0 1.1024e-05
13250.0 1.0665e-05
13270.0 1.0382e-05
13290.0 1.0162e-05
13310.0 1.001e-05
13330.0 9.9408e-06
13350.0 9.9488e-06
13370.0 1.0038e-05
13390.0 1.0213e-05
13410.0 1.045e-05
13430.0 1.0758e-05
13450.0 1.1139e-05
13470.0 1.1561e-05
13490.0 1.2008e-05
13510.0 1.2513e-05
13530.0 1.3024e-05
13550.0 1.3513e-05
13570.0 1.3996e-05
13590.0 1.4466e-05
13610.0 1.4885e-05
13630.0 1.525e-05
13650.0 1.5583e-05
13670.0 1.586e-05
13690.0 1.6074e-05
13710.0 1.624e-05
13730.0 1.6358e-05
13750.0 1.6417e-05
13770.0 1.6431e-05
13790.0 1.6401e-05
13810.0 1.6328e-05
13830.0 1.6222e-05
13850.0 1.6077e-05
13870.0 1.5894e-05
13890.0 1.5685e-05
13910.0 1.5449e-05
13930.0 1.5176e-05
13950.0 1.4879e-05
13970.0 1.4574e-05
13990.0 1.4243e-05
14010.0 1.389e-05
14030.0 1.3539e-05
14050.0 1.3184e-05
14070.0 1.281e-05
14090.0 1.2452e-05
14110.0 1.2115e-05
14130.0 1.1788e-05
14150.0 1.1481e-05
14170.0 1.1218e-05
14190.0 1.0991e-05
14210.0 1.0799e-05
14230.0 1.0657e-05
14250.0 1.0564e-05
14270.0 1.052e-05
14290.0 1.0529e-05
14310.0 1.0588e-05
14330.0 1.0693e-05
14350.0 1.0848e-05
14370.0 1.1042e-05
14390.0 1.1261e-05
14410.0 1.152e-05
14430.0 1.1803e-05
14450.0 1.2093e-05
14470.0 1.2394e-05
14490.0 1.2714e-05
14510.0 1.302e-05
14530.0 1.331e-05
14550.0 1.36e-05
14570.0 1.3879e-05
14590.0 1.4133e-05
14610.0 1.4378e-05
14630.0 1.4621e-05
14650.0 1.4847e-05
14670.0 1.5066e-05
14690.0 1.5293e-05
14710.0 1.5533e-05
14730.0 1.5772e-05
14750.0 1.6037e-05
14770.0 1.6338e-05
14790.0 1.6665e-05
14810.0 1.7018e-05
14830.0 1.7437e-05
14850.0 1.7892e-05
14870.0 1.8367e-05
14890.0 1.8879e-05
14910.0 1.9423e-05
14930.0 1.9946e-05
14950.0 2.0435e-05
14970.0 2.0898e-05
14990.0 2.1286e-05
15010.0 2.1583e-05
15030.0 2.1803e-05
15050.0 2.1948e-05
15070.0 2.2019e-05
15090.0 2.2044e-05
15110.0 2.2037e-05
15130.0 2.2009e-05
15150.0 2.1972e-05
15170.0 2.1928e-05
15190.0 2.1881e-05
15210.0 2.1834e-05
15230.0 2.1788e-05
15250.0 2.174e-05
15270.0 2.1692e-05
15290.0 2.1647e-05
15310.0 2.1601e-05
15330.0 2.1554e-05
15350.0 2.1509e-05
15370.0 2.1465e-05
15390.0 2.1418e-05
15410.0 2.1373e-05
15430.0 2.1329e-05
15450.0 2.1284e-05
15470.0 2.1238e-05
15490.0 2.1195e-05
15510.0 2.1152e-05
15530.0 2.1107e-05
15550.0 2.1063e-05
15570.0 2.1021e-05
15590.0 2.0977e-05
15610.0 2.0933e-05
15630.0 2.0891e-05
15650.0 2.0848e-05
15670.0 2.0805e-05
15690.0 2.0762e-05
15710.0 2.0721e-05
15730.0 2.0678e-05
15750.0 2.0635e-05
15770.0 2.0594e-05
15790.0 2.0552e-05
15810.0 2.0509e-05
15830.0 2.0467e-05
15850.0 2.0427e-05
15870.0 2.0385e-05
15890.0 2.0342e-05
15910.0 2.0302e-05
15930.0 2.0261e-05
15950.0 2.0218e-05
15970.0 2.0177e-05
15990.0 2.0137e-05
16010.0 2.0095e-05
16030.0 2.0053e-05
16050.0 2.0013e-05
16070.0 1.9972e-05
16090.0 1.993e-05
16110.0 1.989e-05
16130.0 1.985e-05
16150.0 1.9808e-05
16170.0 1.9766e-05
16190.0 1.9726e-05
16210.0 1.9685e-05
16230.0 1.9643e-05
16250.0 1.9603e-05
16270.0 1.9563e-05
16290.0 1.9521e-05
16310.0 1.948e-05
16330.0 1.944e-05
16350.0 1.9399e-05
16370.0 1.9356e-05
16390.0 1.9315e-05
16410.0 1.9275e-05
16430.0 1.9233e-05
16450.0 1.9192e-05
16470.0 1.9152e-05
16490.0 1.911e-05
16510.0 1.9068e-05
16530.0 1.9027e-05
16550.0 1.8986e-05
16570.0 1.8943e-05
16590.0 1.8901e-05
16610.0 1.8861e-05
16630.0 1.8819e-05
16650.0 1.8776e-05
16670.0 1.8735e-05
16690.0 1.8694e-05
16710.0 1.865e-05
16730.0 1.8608e-05
16750.0 1.8567e-05
16770.0 1.8524e-05
16790.0 1.848e-05
16810.0 1.8439e-05
16830.0 1.8397e-05
16850.0 1.8353e-05
16870.0 1.831e-05
16890.0 1.8269e-05
16910.0 1.8225e-05
16930.0 1.818e-05
16950.0 1.8138e-05
16970.0 1.8095e-05
16990.0 1.8051e-05
17010.0 1.8007e-05
17030.0 1.7965e-05
17050.0 1.7921e-05
17070.0 1.7876e-05
17090.0 1.7833e-05
17110.0 1.7789e-05
17130.0 1.7743e-05
17150.0 1.7699e-05
17170.0 1.7656e-05
17190.0 1.7611e-05
17210.0 1.7566e-05
17230.0 1.7522e-05
17250.0 1.7478e-05
17270.0 1.7431e-05
17290.0 1.7386e-05
17310.0 1.7342e-05
17330.0 1.7296e-05
17350.0 1.7249e-05
17370.0 1.7205e-05
17390.0 1.716e-05
17410.0 1.7113e-05
17430.0 1.7068e-05
17450.0 1.7023e-05
17470.0 1.6975e-05
17490.0 1.6928e-05
17510.0 1.6883e-05
17530.0 1.6836e-05
17550.0 1.6789e-05
17570.0 1.6743e-05
17590.0 1.6697e-05
17610.0 1.6649e-05
17630.0 1.6602e-05
17650.0 1.6556e-05
17670.0 1.6508e-05
17690.0 1.6459e-05
17710.0 1.6413e-05
17730.0 1.6366e-05
17750.0 1.6317e-05
17770.0 1.6269e-05
17790.0 1.6223e-05
17810.0 1.6175e-05
17830.0 1.6125e-05
17850.0 1.6078e-05
17870.0 1.603e-05
17890.0 1.5981e-05
17910.0 1.5932e-05
17930.0 1.5885e-05
17950.0 1.5836e-05
17970.0 1.5786e-05
17990.0 1.5738e-05
18010.0 1.569e-05
18030.0 1.5639e-05
18050.0 1.559e-05
18070.0 1.5542e-05
18090.0 1.5493e-05
18110.0 1.5442e-05
18130.0 1.5394e-05
18150.0 1.5345e-05
18170.0 1.5295e-05
18190.0 1.5245e-05
18210.0 1.5197e-05
18230.0 1.5146e-05
18250.0 1.5095e-05
18270.0 1.5046e-05
18290.0 1.4996e-05
18310.0 1.4945e-05
18330.0 1.4896e-05
18350.0 1.4847e-05
18370.0 1.4796e-05
18390.0 1.4745e-05
18410.0 1.4695e-05
18430.0 1.4645e-05
18450.0 1.4593e-05
18470.0 1.4543e-05
18490.0 1.4494e-05
18510.0 1.4442e-05
18530.0 1.4391e-05
18550.0 1.4342e-05
18570.0 1.4291e-05
18590.0 1.4239e-05
18610.0 1.4189e-05
18630.0 1.4139e-05
18650.0 1.4087e-05
18670.0 1.4035e-05
18690.0 1.3986e-05
18710.0 1.3935e-05
18730.0 1.3883e-05
18750.0 1.3832e-05
18770.0 1.3783e-05
18790.0 1.373e-05
18810.0 1.3678e-05
18830.0 1.3628e-05
18850.0 1.3577e-05
18870.0 1.3524e-05
18890.0 1.3474e-05
18910.0 1.3424e-05
18930.0 1.3372e-05
18950.0 1.332e-05
18970.0 1.327e-05
18990.0 1.3218e-05
19010.0 1.3165e-05
19030.0 1.3115e-05
19050.0 1.3064e-05
19070.0 1.3012e-05
19090.0 1.2961e-05
19110.0 1.2911e-05
19130.0 1.2859e-05
19150.0 1.2807e-05
19170.0 1.2756e-05
19190.0 1.2705e-05
19210.0 1.2653e-05
19230.0 1.2601e-05
19250.0 1.2551e-05
19270.0 1.2499e-05
19290.0 1.2447e-05
19310.0 1.2397e-05
19330.0 1.2347e-05
19350.0 1.2293e-05
19370.0 1.2242e-05
19390.0 1.2192e-05
19410.0 1.214e-05
19430.0 1.2088e-05
19450.0 1.2038e-05
19470.0 1.1987e-05
19490.0 1.1935e-05
19510.0 1.1884e-05
19530.0 1.1834e-05
19550.0 1.1782e-05
19570.0 1.1729e-05
19590.0 1.1679e-05
19610.0 1.1629e-05
19630.0 1.1577e-05
19650.0 1.1526e-05
19670.0 1.1476e-05
19690.0 1.1424e-05
19710.0 1.1373e-05
19730.0 1.1323e-05
19750.0 1.1272e-05
19770.0 1.1219e-05
19790.0 1.1169e-05
19810.0 1.1119e-05
19830.0 1.1067e-05
19850.0 1.1015e-05
19870.0 1.0964e-05
19890.0 1.091e-05
19910.0 1.0849e-05
19930.0 1.0785e-05
19950.0 1.0711e-05
19970.0 1.0621e-05
19990.0 1.0512e-05
20010.0 9.3521e-06
20030.0 9.2168e-06
20050.0 9.0583e-06
20070.0 8.8867e-06
20090.0 8.702e-06
20110.0 8.4932e-06
20130.0 8.2818e-06
20150.0 8.0722e-06
20170.0 7.855e-06
20190.0 7.6346e-06
20210.0 7.4265e-06
20230.0 7.2235e-06
20250.0 7.0201e-06
20270.0 6.8313e-06
20290.0 6.6589e-06
20310.0 6.4951e-06
20330.0 6.342e-06
20350.0 6.2149e-06
20370.0 6.1021e-06
20390.0 6.0032e-06
20410.0 5.9234e-06
20430.0 5.8618e-06
20450.0 5.813e-06
20470.0 5.7803e-06
20490.0 5.7627e-06
20510.0 5.7577e-06
20530.0 5.7648e-06
20550.0 5.7826e-06
20570.0 5.8085e-06
20590.0 5.8435e-06
20610.0 5.886e-06
20630.0 5.9327e-06
20650.0 5.9851e-06
20670.0 6.0448e-06
20690.0 6.1058e-06
20710.0 6.1688e-06
20730.0 6.2368e-06
20750.0 6.3078e-06
20770.0 6.3776e-06
20790.0 6.4509e-06
20810.0 6.5284e-06
20830.0 6.6056e-06
20850.0 6.6831e-06
20870.0 6.766e-06
20890.0 6.8507e-06
20910.0 6.9323e-06
20930.0 7.0169e-06
20950.0 7.1047e-06
20970.0 7.1902e-06
20990.0 7.2747e-06
21010.0 7.3634e-06
21030.0 7.4502e-06
21050.0 7.533e-06
21070.0 7.6156e-06
21090.0 7.6986e-06
21110.0 7.7742e-06
21130.0 7.8452e-06
21150.0 7.9141e-06
21170.0 7.9764e-06
21190.0 8.03e-06
21210.0 8.0783e-06
21230.0 8.1184e-06
21250.0 8.147e-06
21270.0 8.1651e-06
21290.0 8.1719e-06
21310.0 8.1654e-06
21330.0 8.1461e-06
21350.0 8.1123e-06
21370.0 8.0626e-06
21390.0 7.9995e-06
21410.0 7.9222e-06
21430.0 7.8243e-06
21450.0 7.7144e-06
21470.0 7.5947e-06
21490.0 7.4593e-06
21510.0 7.3108e-06
21530.0 7.1599e-06
21550.0 7.0019e-06
21570.0 6.8333e-06
21590.0 6.6675e-06
21610.0 6.5074e-06
21630.0 6.347e-06
21650.0 6.1903e-06
21670.0 6.0545e-06
21690.0 5.9293e-06
21710.0 5.8165e-06
21730.0 5.7241e-06
21750.0 5.6528e-06
21770.0 5.5985e-06
21790.0 5.5673e-06
21810.0 5.5586e-06
21830.0 5.571e-06
21850.0 5.6058e-06
21870.0 5.6601e-06
21890.0 5.7302e-06
21910.0 5.8202e-06
21930.0 5.9258e-06
21950.0 6.0401e-06
21970.0 6.1667e-06
21990.0 6.3089e-06
22010.0 6.451e-06
22030.0 6.5953e-06
22050.0 6.7468e-06
22070.0 6.8992e-06
22090.0 7.0434e-06
22110.0 7.1889e-06
22130.0 7.3341e-06
22150.0 7.4697e-06
22170.0 7.5976e-06
22190.0 7.7243e-06
22210.0 7.8422e-06
22230.0 7.946e-06
22250.0 8.0437e-06
22270.0 8.1336e-06
22290.0 8.2106e-06
22310.0 8.2765e-06
22330.0 8.3347e-06
22350.0 8.3796e-06
22370.0 8.4113e-06
22390.0 8.4311e-06
22410.0 8.4374e-06
22430.0 8.4293e-06
22450.0 8.4076e-06
22470.0 8.3701e-06
22490.0 8.3174e-06
22510.0 8.2517e-06
22530.0 8.1676e-06
22550.0 8.0654e-06
22570.0 7.952e-06
22590.0 7.8241e-06
22610.0 7.677e-06
