#lamb flux
1010.0 3.3851e-06
1030.0 3.7004e-06
1050.0 4.0649e-06
1070.0 4.4766e-06
1090.0 4.9458e-06
1110.0 5.4301e-06
1130.0 5.9212e-06
1150.0 6.4394e-06
1170.0 6.9784e-06
1190.0 7.496e-06
1210.0 8.0261e-06
1230.0 8.5796e-06
1250.0 9.1296e-06
1270.0 9.6723e-06
1290.0 1.0251e-05
1310.0 1.0839e-05
1330.0 1.1413e-05
1350.0 1.2003e-05
1370.0 1.2619e-05
1390.0 1.3231e-05
1410.0 1.3838e-05
1430.0 1.4478e-05
1450.0 1.5127e-05
1470.0 1.5768e-05
1490.0 1.6423e-05
1510.0 1.7118e-05
1530.0 1.779e-05
1550.0 1.8461e-05
1570.0 1.9156e-05
1590.0 1.9855e-05
1610.0 2.0532e-05
1630.0 2.1226e-05
1650.0 2.1934e-05
1670.0 2.2619e-05
1690.0 2.3291e-05
1710.0 2.3976e-05
1730.0 2.4655e-05
1750.0 2.5284e-05
1770.0 2.5913e-05
1790.0 2.6536e-05
1810.0 2.7117e-05
1830.0 2.7664e-05
1850.0 2.822e-05
1870.0 2.873e-05
1890.0 2.9188e-05
1910.0 2.9625e-05
1930.0 3.0039e-05
1950.0 3.039e-05
1970.0 3.0695e-05
1990.0 3.0982e-05
2010.0 3.1219e-05
2030.0 3.1396e-05
2050.0 3.155e-05
2070.0 3.1676e-05
2090.0 3.1732e-05
2110.0 3.1748e-05
2130.0 3.1743e-05
2150.0 3.1692e-05
2170.0 3.1588e-05
2190.0 3.147e-05
2210.0 3.1326e-05
2230.0 3.1137e-05
2250.0 3.0923e-05
2270.0 3.0706e-05
2290.0 3.0457e-05
2310.0 3.0175e-05
2330.0 2.9892e-05
2350.0 2.9601e-05
2370.0 2.9284e-05
2390.0 2.8963e-05
2410.0 2.865e-05
2430.0 2.8313e-05
2450.0 2.7951e-05
2470.0 2.7573e-05
2490.0 2.7163e-05
2510.0 2.6712e-05
2530.0 2.6263e-05
2550.0 2.5889e-05
2570.0 2.5693e-05
2590.0 2.5802e-05
2610.0 2.647e-05
2630.0 2.7825e-05
2650.0 2.9802e-05
2670.0 3.2457e-05
2690.0 3.5722e-05
2710.0 3.9125e-05
2730.0 4.2417e-05
2750.0 4.5687e-05
2770.0 4.8614e-05
2790.0 5.1102e-05
2810.0 5.3382e-05
2830.0 5.5645e-05
2850.0 5.7681e-05
2870.0 5.9697e-05
2890.0 6.1851e-05
2910.0 6.4052e-05
2930.0 6.6185e-05
2950.0 6.8465e-05
2970.0 7.0853e-05
2990.0 7.3191e-05
3010.0 0.00016735
3030.0 0.00017293
3050.0 0.00017862
3070.0 0.00018407
3090.0 0.00018976
3110.0 0.00019555
3130.0 0.00020104
3150.0 0.00020625
3170.0 0.00021141
3190.0 0.00021587
3210.0 0.00021928
3230.0 0.00022239
3250.0 0.00021876
3270.0 0.00022117
3290.0 0.00021909
3310.0 0.00023814
3330.0 0.00025563
3350.0 0.00027472
3370.0 0.00029672
3390.0 0.0003215
3410.0 0.00034728
3430.0 0.00037498
3450.0 0.00040557
3470.0 0.00043802
3490.0 0.00047191
3510.0 0.00050774
3530.0 0.00054601
3550.0 0.00059525
3570.0 0.00065209
3590.0 0.00069926
3610.0 0.00075216
3630.0 0.00077208
3650.0 0.00078783
3670.0 0.00079759
3690.0 0.00081998
3710.0 0.00084535
3730.0 0.00083139
3750.0 0.00080681
3770.0 0.00077307
3790.0 0.00073373
3810.0 0.00068393
3830.0 0.00060493
3850.0 0.00037793
3870.0 0.00052509
3890.0 0.00071591
3910.0 0.00088333
3930.0 0.0010186
3950.0 0.0010814
3970.0 0.0011275
3990.0 0.0013545
4010.0 0.0012806
4030.0 0.0011215
4050.0 0.00099486
4070.0 0.00089564
4090.0 0.0010493
4110.0 0.0011187
4130.0 0.0011281
4150.0 0.0011139
4170.0 0.0010478
4190.0 0.00098995
4210.0 0.0011687
4230.0 0.0013241
4250.0 0.0013485
4270.0 0.0013007
4290.0 0.0013252
4310.0 0.0014066
4330.0 0.0015965
4350.0 0.001714
4370.0 0.0016898
4390.0 0.001425
4410.0 0.0012199
4430.0 0.0010343
4450.0 0.00089901
4470.0 0.00093515
4490.0 0.0011665
4510.0 0.0012642
4530.0 0.0013891
4550.0 0.0014948
4570.0 0.0018502
4590.0 0.0026896
4610.0 0.0035134
4630.0 0.0035228
4650.0 0.0032993
4670.0 0.0035512
4690.0 0.004005
4710.0 0.0033855
4730.0 0.0024565
4750.0 0.0019098
4770.0 0.0017852
4790.0 0.0018214
4810.0 0.001693
4830.0 0.0018407
4850.0 0.002246
4870.0 0.0027525
4890.0 0.0025102
4910.0 0.0021446
4930.0 0.002311
4950.0 0.0030409
4970.0 0.0040101
4990.0 0.0041503
5010.0 0.0036283
5030.0 0.0027875
5050.0 0.0019923
5070.0 0.0016465
5090.0 0.0015361
5110.0 0.0015378
5130.0 0.0016067
5150.0 0.0015801
5170.0 0.001618
5190.0 0.0015468
5210.0 0.0015772
5230.0 0.0017057
5250.0 0.0018476
5270.0 0.0022959
5290.0 0.0026858
5310.0 0.0026762
5330.0 0.0027659
5350.0 0.0031642
5370.0 0.0034573
5390.0 0.0031995
5410.0 0.002734
5430.0 0.0025831
5450.0 0.0029938
5470.0 0.0039087
5490.0 0.004885
5510.0 0.0053492
5530.0 0.0054215
5550.0 0.0051534
5570.0 0.0048635
5590.0 0.0047371
5610.0 0.0048244
5630.0 0.0049211
5650.0 0.004932
5670.0 0.0049419
5690.0 0.0048374
5710.0 0.0042576
5730.0 0.0035968
5750.0 0.0030714
5770.0 0.0031538
5790.0 0.0034703
5810.0 0.0037592
5830.0 0.0039083
5850.0 0.0038892
5870.0 0.0036009
5890.0 0.0031611
5910.0 0.0031648
5930.0 0.0035144
5950.0 0.0035876
5970.0 0.0032731
5990.0 0.0028357
6010.0 0.0023197
6030.0 0.0019466
6050.0 0.0019611
6070.0 0.0022629
6090.0 0.0023853
6110.0 0.002121
6130.0 0.0019698
6150.0 0.0021428
6170.0 0.0025859
6190.0 0.0030792
6210.0 0.0032762
6230.0 0.0031354
6250.0 0.0028791
6270.0 0.0024818
6290.0 0.0020578
6310.0 0.0017206
6330.0 0.0015869
6350.0 0.0016772
6370.0 0.0017687
6390.0 0.0018735
6410.0 0.0021544
6430.0 0.0027143
6450.0 0.0034211
6470.0 0.0038165
6490.0 0.003741
6510.0 0.0036825
6530.0 0.0038169
6550.0 0.0038595
6570.0 0.0039244
6590.0 0.0039395
6610.0 0.0038695
6630.0 0.0039127
6650.0 0.0038937
6670.0 0.0036973
6690.0 0.0032785
6710.0 0.0027856
6730.0 0.0027377
6750.0 0.0029694
6770.0 0.0031981
6790.0 0.0032782
6810.0 0.0032493
6830.0 0.0031965
6850.0 0.0031309
6870.0 0.0029405
6890.0 0.0028012
6910.0 0.002659
6930.0 0.0025907
6950.0 0.002794
6970.0 0.0030013
6990.0 0.0031463
7010.0 0.0031629
7030.0 0.0029749
7050.0 0.0025835
7070.0 0.0020966
7090.0 0.001787
7110.0 0.0017463
7130.0 0.0018703
7150.0 0.0018611
7170.0 0.0016877
7190.0 0.0016719
7210.0 0.0018519
7230.0 0.0021479
7250.0 0.0024421
7270.0 0.0025507
7290.0 0.0023619
7310.0 0.0020865
7330.0 0.0019149
7350.0 0.0018909
7370.0 0.0019479
7390.0 0.0020243
7410.0 0.0021614
7430.0 0.002484
7450.0 0.0028944
7470.0 0.0032771
7490.0 0.0034299
7510.0 0.0033044
7530.0 0.0027571
7550.0 0.0022598
7570.0 0.0018859
7590.0 0.0016671
7610.0 0.0017332
7630.0 0.0020039
7650.0 0.002286
7670.0 0.0025557
7690.0 0.0027541
7710.0 0.0029161
7730.0 0.0030714
7750.0 0.0032165
7770.0 0.0032837
7790.0 0.0032626
7810.0 0.0033033
7830.0 0.0034155
7850.0 0.0033744
7870.0 0.0032537
7890.0 0.0030345
7910.0 0.0028325
7930.0 0.0027136
7950.0 0.0026717
7970.0 0.0026303
7990.0 0.0026296
8010.0 0.0026763
8030.0 0.0026823
8050.0 0.0027313
8070.0 0.0026908
8090.0 0.0026793
8110.0 0.0025618
8130.0 0.0025376
8150.0 0.0024686
8170.0 0.0023924
8190.0 0.0023506
8210.0 0.0023595
8230.0 0.0022338
8250.0 0.0021064
8270.0 0.0018413
8290.0 0.0014764
8310.0 0.0011196
8330.0 0.00085029
8350.0 0.00075844
8370.0 0.00087072
8390.0 0.001028
8410.0 0.0011342
8430.0 0.0012287
8450.0 0.0012887
8470.0 0.0013491
8490.0 0.0014948
8510.0 0.0016754
8530.0 0.0019444
8550.0 0.0022622
8570.0 0.0025496
8590.0 0.0027785
8610.0 0.0029556
8630.0 0.0030575
8650.0 0.0030642
8670.0 0.0030614
8690.0 0.003161
8710.0 0.0032448
8730.0 0.0033245
8750.0 0.0032693
8770.0 0.0032798
8790.0 0.0032319
8810.0 0.0030074
8830.0 0.0029005
8850.0 0.002722
8870.0 0.0025827
8890.0 0.0024807
8910.0 0.0025208
8930.0 0.002376
8950.0 0.00227
8970.0 0.0022254
8990.0 0.0021765
9010.0 0.002118
9030.0 0.0020662
9050.0 0.002053
9070.0 0.0020468
9090.0 0.0020409
9110.0 0.0020353
9130.0 0.0020293
9150.0 0.0020231
9170.0 0.0020148
9190.0 0.0020049
9210.0 0.0020128
9230.0 0.0020025
9250.0 0.0019941
9270.0 0.0019864
9290.0 0.0019791
9310.0 0.0019719
9330.0 0.0019649
9350.0 0.001958
9370.0 0.0019512
9390.0 0.0019442
9410.0 0.0019372
9430.0 0.0019301
9450.0 0.0019219
9470.0 0.001914
9490.0 0.0019079
9510.0 0.0019012
9530.0 0.0018943
9550.0 0.0018873
9570.0 0.0018801
9590.0 0.0018729
9610.0 0.0018657
9630.0 0.0018584
9650.0 0.0018511
9670.0 0.0018437
9690.0 0.0018364
9710.0 0.0018291
9730.0 0.0018217
9750.0 0.0018143
9770.0 0.001807
9790.0 0.0017996
9810.0 0.0017922
9830.0 0.0017848
9850.0 0.0017774
9870.0 0.00177
9890.0 0.0017625
9910.0 0.0017551
9930.0 0.0017475
9950.0 0.0017276
9970.0 0.0017238
9990.0 0.0017194
10010.0 0.0017146
10030.0 0.0017087
10050.0 0.0017019
10070.0 0.0016947
10090.0 0.001688
10110.0 0.0016804
10130.0 0.0016734
10150.0 0.0016662
10170.0 0.0016585
10190.0 0.0016505
10210.0 0.001643
10230.0 0.0016357
10250.0 0.0016279
10270.0 0.0016201
10290.0 0.0016128
10310.0 0.0016051
10330.0 0.001597
10350.0 0.0015894
10370.0 0.0015818
10390.0 0.0015738
10410.0 0.0015658
10430.0 0.0015583
10450.0 0.0015503
10470.0 0.0015421
10490.0 0.0015343
10510.0 0.0015265
10530.0 0.0015179
10550.0 0.0015096
10570.0 0.0015017
10590.0 0.0014933
10610.0 0.0014847
10630.0 0.0014766
10650.0 0.0014684
10670.0 0.0014595
10690.0 0.0014508
10710.0 0.0014424
10730.0 0.0014335
10750.0 0.0014242
10770.0 0.0014156
10790.0 0.0014068
10810.0 0.0013975
10830.0 0.0013884
10850.0 0.0013795
10870.0 0.0013697
10890.0 0.0013597
10910.0 0.0013499
10930.0 0.0013394
10950.0 0.0013275
10970.0 0.0013149
10990.0 0.0013018
11010.0 0.0012072
11030.0 0.0011911
11050.0 0.0011757
11070.0 0.0011601
11090.0 0.0011437
11110.0 0.0011287
11130.0 0.0011144
11150.0 0.0010998
11170.0 0.0010855
11190.0 0.0010723
11210.0 0.0010589
11230.0 0.001045
11250.0 0.0010319
11270.0 0.0010191
11290.0 0.0010058
11310.0 0.00099252
11330.0 0.00098047
11350.0 0.0009682
11370.0 0.00095577
11390.0 0.00094408
11410.0 0.00093277
11430.0 0.00092066
11450.0 0.00090884
11470.0 0.00089741
11490.0 0.00088542
11510.0 0.00087259
11530.0 0.00086007
11550.0 0.00084722
11570.0 0.00083314
11590.0 0.00081865
11610.0 0.00080422
11630.0 0.00078856
11650.0 0.0007719
11670.0 0.00075576
11690.0 0.00073935
11710.0 0.0007221
11730.0 0.00070507
11750.0 0.00068897
11770.0 0.0006724
11790.0 0.000656
11810.0 0.00064075
11830.0 0.00062612
11850.0 0.00061129
11870.0 0.00059773
11890.0 0.0005854
11910.0 0.00057332
11930.0 0.00056178
11950.0 0.00055144
11970.0 0.00054156
11990.0 0.00053177
12010.0 0.00052284
12030.0 0.00051462
12050.0 0.00050656
12070.0 0.00049878
12090.0 0.00049205
12110.0 0.00048565
12130.0 0.00047954
12150.0 0.00047418
12170.0 0.00046959
12190.0 0.00046531
12210.0 0.00046186
12230.0 0.00045938
12250.0 0.00045771
12270.0 0.00045693
12290.0 0.00045724
12310.0 0.00045861
12330.0 0.00046108
12350.0 0.00046474
12370.0 0.00046943
12390.0 0.00047523
12410.0 0.00048242
12430.0 0.00049027
12450.0 0.00049885
12470.0 0.00050838
12490.0 0.00051843
12510.0 0.00052842
12530.0 0.0005388
12550.0 0.00054933
12570.0 0.00055928
12590.0 0.00056867
12610.0 0.00057771
12630.0 0.00058586
12650.0 0.00059271
12670.0 0.00059866
12690.0 0.0006035
12710.0 0.00060703
12730.0 0.00060937
12750.0 0.00061051
12770.0 0.00061042
12790.0 0.00060929
12810.0 0.0006071
12830.0 0.00060385
12850.0 0.00060001
12870.0 0.00059556
12890.0 0.00059035
12910.0 0.0005848
12930.0 0.00057914
12950.0 0.000573
12970.0 0.00056654
12990.0 0.00056032
13010.0 0.00055401
13030.0 0.0005474
13050.0 0.00054083
13070.0 0.00053448
13090.0 0.00052777
13110.0 0.00052094
13130.0 0.00051433
13150.0 0.00050771
13170.0 0.00050079
13190.0 0.00049428
13210.0 0.00048823
13230.0 0.00048234
13250.0 0.00047691
13270.0 0.00047234
13290.0 0.00046842
13310.0 0.00046523
13330.0 0.0004631
13350.0 0.00046193
13370.0 0.00046164
13390.0 0.00046226
13410.0 0.00046353
13430.0 0.0004653
13450.0 0.0004674
13470.0 0.00046947
13490.0 0.00047124
13510.0 0.00047259
13530.0 0.00047312
13550.0 0.0004727
13570.0 0.00047124
13590.0 0.00046856
13610.0 0.00046483
13630.0 0.00046021
13650.0 0.00045445
13670.0 0.00044794
13690.0 0.00044109
13710.0 0.00043377
13730.0 0.00042591
13750.0 0.00041851
13770.0 0.00041136
13790.0 0.0004043
13810.0 0.00039772
13830.0 0.0003919
13850.0 0.0003864
13870.0 0.00038138
13890.0 0.00037706
13910.0 0.00037327
13930.0 0.00036982
13950.0 0.00036685
13970.0 0.00036438
13990.0 0.00036215
14010.0 0.00036018
14030.0 0.00035849
14050.0 0.00035697
14070.0 0.00035553
14090.0 0.00035421
14110.0 0.00035295
14130.0 0.00035167
14150.0 0.00035033
14170.0 0.00034898
14190.0 0.00034755
14210.0 0.000346
14230.0 0.0003444
14250.0 0.00034278
14270.0 0.00034109
14290.0 0.00033938
14310.0 0.00033779
14330.0 0.00033628
14350.0 0.00033486
14370.0 0.00033361
14390.0 0.00033253
14410.0 0.00033158
14430.0 0.00033079
14450.0 0.00033014
14470.0 0.00032958
14490.0 0.00032911
14510.0 0.00032869
14530.0 0.00032829
14550.0 0.00032792
14570.0 0.00032758
14590.0 0.00032728
14610.0 0.00032705
14630.0 0.00032696
14650.0 0.00032702
14670.0 0.00032726
14690.0 0.0003278
14710.0 0.00032869
14730.0 0.00032982
14750.0 0.00033137
14770.0 0.00033341
14790.0 0.00033584
14810.0 0.00033864
14830.0 0.0003422
14850.0 0.00034623
14870.0 0.00035058
14890.0 0.00035543
14910.0 0.00036076
14930.0 0.00036599
14950.0 0.00037095
14970.0 0.00037572
14990.0 0.00037971
15010.0 0.00038267
15030.0 0.00038475
15050.0 0.00038596
15070.0 0.00038626
15090.0 0.00038598
15110.0 0.00038531
15130.0 0.00038438
15150.0 0.00038331
15170.0 0.00038215
15190.0 0.00038096
15210.0 0.00037976
15230.0 0.00037855
15250.0 0.00037732
15270.0 0.0003761
15290.0 0.00037488
15310.0 0.00037366
15330.0 0.00037242
15350.0 0.0003712
15370.0 0.00036997
15390.0 0.00036873
15410.0 0.0003675
15430.0 0.00036627
15450.0 0.00036503
15470.0 0.00036378
15490.0 0.00036255
15510.0 0.00036132
15530.0 0.00036007
15550.0 0.00035884
15570.0 0.0003576
15590.0 0.00035636
15610.0 0.00035511
15630.0 0.00035388
15650.0 0.00035264
15670.0 0.00035139
15690.0 0.00035016
15710.0 0.00034893
15730.0 0.00034769
15750.0 0.00034645
15770.0 0.00034521
15790.0 0.00034398
15810.0 0.00034274
15830.0 0.00034151
15850.0 0.00034028
15870.0 0.00033905
15890.0 0.00033782
15910.0 0.0003366
15930.0 0.00033538
15950.0 0.00033415
15970.0 0.00033293
15990.0 0.00033172
16010.0 0.0003305
16030.0 0.00032928
16050.0 0.00032807
16070.0 0.00032687
16090.0 0.00032566
16110.0 0.00032445
16130.0 0.00032326
16150.0 0.00032205
16170.0 0.00032085
16190.0 0.00031967
16210.0 0.00031848
16230.0 0.00031728
16250.0 0.0003161
16270.0 0.00031493
16290.0 0.00031374
16310.0 0.00031257
16330.0 0.0003114
16350.0 0.00031023
16370.0 0.00030906
16390.0 0.0003079
16410.0 0.00030675
16430.0 0.00030559
16450.0 0.00030444
16470.0 0.0003033
16490.0 0.00030216
16510.0 0.00030101
16530.0 0.00029988
16550.0 0.00029875
16570.0 0.00029762
16590.0 0.00029649
16610.0 0.00029538
16630.0 0.00029426
16650.0 0.00029315
16670.0 0.00029205
16690.0 0.00029095
16710.0 0.00028984
16730.0 0.00028874
16750.0 0.00028766
16770.0 0.00028657
16790.0 0.00028548
16810.0 0.00028441
16830.0 0.00028334
16850.0 0.00028227
16870.0 0.0002812
16890.0 0.00028015
16910.0 0.00027909
16930.0 0.00027803
16950.0 0.00027699
16970.0 0.00027595
16990.0 0.00027491
17010.0 0.00027388
17030.0 0.00027286
17050.0 0.00027183
17070.0 0.00027081
17090.0 0.0002698
17110.0 0.00026879
17130.0 0.00026777
17150.0 0.00026677
17170.0 0.00026578
17190.0 0.00026479
17210.0 0.0002638
17230.0 0.00026283
17250.0 0.00026185
17270.0 0.00026087
17290.0 0.0002599
17310.0 0.00025894
17330.0 0.00025798
17350.0 0.00025702
17370.0 0.00025608
17390.0 0.00025514
17410.0 0.00025419
17430.0 0.00025326
17450.0 0.00025234
17470.0 0.0002514
17490.0 0.00025048
17510.0 0.00024957
17530.0 0.00024866
17550.0 0.00024775
17570.0 0.00024685
17590.0 0.00024596
17610.0 0.00024506
17630.0 0.00024417
17650.0 0.00024329
17670.0 0.00024241
17690.0 0.00024153
17710.0 0.00024067
17730.0 0.00023981
17750.0 0.00023894
17770.0 0.00023809
17790.0 0.00023724
17810.0 0.00023639
17830.0 0.00023555
17850.0 0.00023471
17870.0 0.00023389
17890.0 0.00023305
17910.0 0.00023223
17930.0 0.00023142
17950.0 0.0002306
17970.0 0.00022979
17990.0 0.00022899
18010.0 0.00022819
18030.0 0.00022739
18050.0 0.0002266
18070.0 0.00022581
18090.0 0.00022503
18110.0 0.00022425
18130.0 0.00022348
18150.0 0.00022271
18170.0 0.00022194
18190.0 0.00022118
18210.0 0.00022043
18230.0 0.00021968
18250.0 0.00021892
18270.0 0.00021818
18290.0 0.00021745
18310.0 0.00021671
18330.0 0.00021598
18350.0 0.00021526
18370.0 0.00021453
18390.0 0.00021381
18410.0 0.0002131
18430.0 0.00021239
18450.0 0.00021168
18470.0 0.00021098
18490.0 0.00021029
18510.0 0.00020959
18530.0 0.0002089
18550.0 0.00020822
18570.0 0.00020754
18590.0 0.00020686
18610.0 0.00020619
18630.0 0.00020552
18650.0 0.00020485
18670.0 0.00020419
18690.0 0.00020354
18710.0 0.00020289
18730.0 0.00020223
18750.0 0.00020159
18770.0 0.00020095
18790.0 0.00020031
18810.0 0.00019967
18830.0 0.00019904
18850.0 0.00019842
18870.0 0.00019779
18890.0 0.00019717
18910.0 0.00019656
18930.0 0.00019595
18950.0 0.00019534
18970.0 0.00019473
18990.0 0.00019413
19010.0 0.00019353
19030.0 0.00019294
19050.0 0.00019235
19070.0 0.00019176
19090.0 0.00019117
19110.0 0.0001906
19130.0 0.00019002
19150.0 0.00018944
19170.0 0.00018888
19190.0 0.00018831
19210.0 0.00018774
19230.0 0.00018718
19250.0 0.00018663
19270.0 0.00018608
19290.0 0.00018552
19310.0 0.00018498
19330.0 0.00018444
19350.0 0.00018389
19370.0 0.00018336
19390.0 0.00018282
19410.0 0.00018229
19430.0 0.00018176
19450.0 0.00018124
19470.0 0.00018072
19490.0 0.0001802
19510.0 0.00017968
19530.0 0.00017918
19550.0 0.00017866
19570.0 0.00017815
19590.0 0.00017765
19610.0 0.00017715
19630.0 0.00017665
19650.0 0.00017616
19670.0 0.00017567
19690.0 0.00017518
19710.0 0.00017469
19730.0 0.00017421
19750.0 0.00017373
19770.0 0.00017325
19790.0 0.00017277
19810.0 0.0001723
19830.0 0.00017183
19850.0 0.00017135
19870.0 0.00017086
19890.0 0.00017034
19910.0 0.00016976
19930.0 0.00016909
19950.0 0.00016828
19970.0 0.00016724
19990.0 0.00016593
20010.0 0.00016439
20030.0 0.00016252
20050.0 0.00016032
20070.0 0.00015794
20090.0 0.0001554
20110.0 0.00015258
20130.0 0.00014978
20150.0 0.00014705
20170.0 0.00014426
20190.0 0.00014148
20210.0 0.00013888
20230.0 0.00013634
20250.0 0.00013381
20270.0 0.00013143
20290.0 0.00012921
20310.0 0.00012705
20330.0 0.00012495
20350.0 0.00012309
20370.0 0.00012133
20390.0 0.00011964
20410.0 0.00011812
20430.0 0.00011675
20450.0 0.00011545
20470.0 0.00011429
20490.0 0.00011329
20510.0 0.0001124
20530.0 0.00011162
20550.0 0.00011099
20570.0 0.00011048
20590.0 0.00011007
20610.0 0.00010977
20630.0 0.00010957
20650.0 0.00010946
20670.0 0.00010944
20690.0 0.00010949
20710.0 0.00010959
20730.0 0.00010976
20750.0 0.00010996
20770.0 0.00011017
20790.0 0.00011041
20810.0 0.00011065
20830.0 0.00011088
20850.0 0.00011109
20870.0 0.00011128
20890.0 0.00011143
20910.0 0.00011152
20930.0 0.00011156
20950.0 0.00011153
20970.0 0.00011144
20990.0 0.00011128
21010.0 0.00011105
21030.0 0.00011073
21050.0 0.00011036
21070.0 0.00010991
21090.0 0.00010937
21110.0 0.00010879
21130.0 0.00010817
21150.0 0.00010748
21170.0 0.00010675
21190.0 0.00010602
21210.0 0.00010524
21230.0 0.00010443
21250.0 0.00010364
21270.0 0.00010286
21290.0 0.00010206
21310.0 0.00010129
21330.0 0.00010057
21350.0 9.9864e-05
21370.0 9.9186e-05
21390.0 9.8568e-05
21410.0 9.7998e-05
21430.0 9.7456e-05
21450.0 9.6988e-05
21470.0 9.6589e-05
21490.0 9.6245e-05
21510.0 9.5968e-05
21530.0 9.5765e-05
21550.0 9.563e-05
21570.0 9.5568e-05
21590.0 9.558e-05
21610.0 9.5658e-05
21630.0 9.5814e-05
21650.0 9.6053e-05
21670.0 9.6334e-05
21690.0 9.6681e-05
21710.0 9.7099e-05
21730.0 9.7558e-05
21750.0 9.8041e-05
21770.0 9.8596e-05
21790.0 9.9176e-05
21810.0 9.9752e-05
21830.0 0.00010035
21850.0 0.00010096
21870.0 0.00010156
21890.0 0.00010211
21910.0 0.00010268
21930.0 0.00010321
21950.0 0.00010368
21970.0 0.00010412
21990.0 0.00010454
22010.0 0.00010488
22030.0 0.00010516
22050.0 0.00010539
22070.0 0.00010556
22090.0 0.00010566
22110.0 0.00010571
22130.0 0.00010569
22150.0 0.0001056
22170.0 0.00010546
22190.0 0.00010524
22210.0 0.00010495
22230.0 0.00010461
22250.0 0.00010421
22270.0 0.00010373
22290.0 0.0001032
22310.0 0.00010262
22330.0 0.00010195
22350.0 0.00010122
22370.0 0.00010047
22390.0 9.9638e-05
22410.0 9.8727e-05
22430.0 9.7806e-05
22450.0 9.6844e-05
22470.0 9.5802e-05
22490.0 9.473e-05
22510.0 9.3657e-05
22530.0 9.251e-05
22550.0 9.1316e-05
22570.0 9.015e-05
22590.0 8.8973e-05
22610.0 8.7752e-05
22630.0 8.6549e-05
22650.0 8.5403e-05
22670.0 8.4233e-05
22690.0 8.3076e-05
22710.0 8.1987e-05
22730.0 8.0937e-05
22750.0 7.9873e-05
22770.0 7.8895e-05
22790.0 7.7992e-05
22810.0 7.7113e-05
22830.0 7.6279e-05
22850.0 7.553e-05
22870.0 7.4821e-05
22890.0 7.4139e-05
22910.0 7.3521e-05
22930.0 7.2959e-05
22950.0 7.2421e-05
22970.0 7.191e-05
22990.0 7.1463e-05
