#lamb flux
1010.0 0.00016263
1030.0 0.00017399
1050.0 0.00018883
1070.0 0.0002122
1090.0 0.00024585
1110.0 0.00028079
1130.0 0.00031633
1150.0 0.00035376
1170.0 0.00039201
1190.0 0.00042693
1210.0 0.00046032
1230.0 0.00049195
1250.0 0.00052051
1270.0 0.00054328
1290.0 0.00056241
1310.0 0.00057542
1330.0 0.00058092
1350.0 0.0005809
1370.0 0.0005763
1390.0 0.00056616
1410.0 0.00055146
1430.0 0.0005349
1450.0 0.00051627
1470.0 0.00049596
1490.0 0.00047576
1510.0 0.00045706
1530.0 0.00043872
1550.0 0.00042209
1570.0 0.00040824
1590.0 0.00039706
1610.0 0.00038904
1630.0 0.00038758
1650.0 0.00039041
1670.0 0.00039729
1690.0 0.00040881
1710.0 0.0004259
1730.0 0.00044859
1750.0 0.00047648
1770.0 0.00051104
1790.0 0.00055266
1810.0 0.00060104
1830.0 0.00065671
1850.0 0.00072117
1870.0 0.00079342
1890.0 0.00087331
1910.0 0.00096175
1930.0 0.0010588
1950.0 0.0011625
1970.0 0.0012728
1990.0 0.0013903
2010.0 0.0015126
2030.0 0.0016379
2050.0 0.0017668
2070.0 0.0018979
2090.0 0.0020267
2110.0 0.0021536
2130.0 0.0022783
2150.0 0.0023975
2170.0 0.0025091
2190.0 0.0026151
2210.0 0.0027135
2230.0 0.0028018
2250.0 0.002881
2270.0 0.0029533
2290.0 0.0030155
2310.0 0.0030676
2330.0 0.0031134
2350.0 0.0031529
2370.0 0.003185
2390.0 0.0032135
2410.0 0.0032423
2430.0 0.0032701
2450.0 0.0032998
2470.0 0.0033371
2490.0 0.0033848
2510.0 0.00344
2530.0 0.0035128
2550.0 0.003615
2570.0 0.0037536
2590.0 0.0039409
2610.0 0.0042187
2630.0 0.0045927
2650.0 0.0050463
2670.0 0.0055933
2690.0 0.0062267
2710.0 0.0068787
2730.0 0.0075226
2750.0 0.0081866
2770.0 0.0088323
2790.0 0.0094496
2810.0 0.010082
2830.0 0.010767
2850.0 0.01145
2870.0 0.012164
2890.0 0.012938
2910.0 0.013747
2930.0 0.014559
2950.0 0.015428
2970.0 0.016345
2990.0 0.017269
3010.0 0.018218
3030.0 0.019227
3050.0 0.020264
3070.0 0.021274
3090.0 0.022303
3110.0 0.023306
3130.0 0.024212
3150.0 0.024997
3170.0 0.025639
3190.0 0.026107
3210.0 0.026471
3230.0 0.026773
3250.0 0.027015
3270.0 0.027272
3290.0 0.027624
3310.0 0.028142
3330.0 0.028811
3350.0 0.029583
3370.0 0.030432
3390.0 0.031165
3410.0 0.031959
3430.0 0.033935
3450.0 0.035368
3470.0 0.036331
3490.0 0.03716
3510.0 0.0393
3530.0 0.046577
3550.0 0.053943
3570.0 0.059032
3590.0 0.065055
3610.0 0.065141
3630.0 0.060751
3650.0 0.064717
3670.0 0.077102
3690.0 0.086487
3710.0 0.089802
3730.0 0.091103
3750.0 0.096893
3770.0 0.097376
3790.0 0.093004
3810.0 0.087583
3830.0 0.082444
3850.0 0.082733
3870.0 0.086927
3890.0 0.090508
3910.0 0.093006
3930.0 0.093471
3950.0 0.099769
3970.0 0.10705
3990.0 0.1036
4010.0 0.092512
4030.0 0.082814
4050.0 0.08092
4070.0 0.084506
4090.0 0.084456
4110.0 0.081577
4130.0 0.08085
4150.0 0.083936
4170.0 0.092911
4190.0 0.099134
4210.0 0.094624
4230.0 0.087677
4250.0 0.08368
4270.0 0.081191
4290.0 0.082122
4310.0 0.084455
4330.0 0.08032
4350.0 0.070855
4370.0 0.062892
4390.0 0.057384
4410.0 0.053715
4430.0 0.0545
4450.0 0.059675
4470.0 0.065137
4490.0 0.070289
4510.0 0.078703
4530.0 0.094434
4550.0 0.11146
4570.0 0.12174
4590.0 0.13011
4610.0 0.13847
4630.0 0.14124
4650.0 0.13119
4670.0 0.11207
4690.0 0.097235
4710.0 0.092345
4730.0 0.088718
4750.0 0.078579
4770.0 0.070624
4790.0 0.073049
4810.0 0.079357
4830.0 0.078212
4850.0 0.070638
4870.0 0.070994
4890.0 0.073358
4910.0 0.075497
4930.0 0.074818
4950.0 0.073172
4970.0 0.069945
4990.0 0.064508
5010.0 0.059964
5030.0 0.057873
5050.0 0.056921
5070.0 0.056339
5090.0 0.055848
5110.0 0.05575
5130.0 0.056774
5150.0 0.059838
5170.0 0.065655
5190.0 0.073003
5210.0 0.079787
5230.0 0.083873
5250.0 0.086071
5270.0 0.089772
5290.0 0.093073
5310.0 0.093364
5330.0 0.090013
5350.0 0.086461
5370.0 0.086557
5390.0 0.090012
5410.0 0.092968
5430.0 0.09319
5450.0 0.092159
5470.0 0.089684
5490.0 0.086916
5510.0 0.085714
5530.0 0.086211
5550.0 0.087419
5570.0 0.0881
5590.0 0.085501
5610.0 0.080706
5630.0 0.076304
5650.0 0.072825
5670.0 0.07058
5690.0 0.067594
5710.0 0.065492
5730.0 0.066227
5750.0 0.065906
5770.0 0.064622
5790.0 0.065216
5810.0 0.067003
5830.0 0.068484
5850.0 0.068931
5870.0 0.067336
5890.0 0.064509
5910.0 0.061629
5930.0 0.057732
5950.0 0.054806
5970.0 0.055002
5990.0 0.056531
6010.0 0.056787
6030.0 0.054756
6050.0 0.05425
6070.0 0.056302
6090.0 0.058574
6110.0 0.058919
6130.0 0.056439
6150.0 0.052895
6170.0 0.050777
6190.0 0.049076
6210.0 0.04741
6230.0 0.046135
6250.0 0.045896
6270.0 0.047135
6290.0 0.049172
6310.0 0.051606
6330.0 0.054165
6350.0 0.055988
6370.0 0.056555
6390.0 0.056449
6410.0 0.057025
6430.0 0.057784
6450.0 0.057848
6470.0 0.058288
6490.0 0.058924
6510.0 0.058996
6530.0 0.058251
6550.0 0.056582
6570.0 0.054615
6590.0 0.053146
6610.0 0.052017
6630.0 0.050998
6650.0 0.049261
6670.0 0.047291
6690.0 0.045819
6710.0 0.044924
6730.0 0.044578
6750.0 0.044094
6770.0 0.04334
6790.0 0.04262
6810.0 0.042031
6830.0 0.04192
6850.0 0.041767
6870.0 0.041332
6890.0 0.041179
6910.0 0.04045
6930.0 0.039605
6950.0 0.039508
6970.0 0.039062
6990.0 0.03804
7010.0 0.037443
7030.0 0.036862
7050.0 0.036112
7070.0 0.035243
7090.0 0.03451
7110.0 0.034892
7130.0 0.036013
7150.0 0.037151
7170.0 0.037871
7190.0 0.037694
7210.0 0.037163
7230.0 0.036682
7250.0 0.036207
7270.0 0.035717
7290.0 0.035205
7310.0 0.034898
7330.0 0.035371
7350.0 0.035737
7370.0 0.035847
7390.0 0.035484
7410.0 0.034752
7430.0 0.034446
7450.0 0.034181
7470.0 0.032762
7490.0 0.031558
7510.0 0.030176
7530.0 0.029124
7550.0 0.028764
7570.0 0.029148
7590.0 0.028916
7610.0 0.028597
7630.0 0.028402
7650.0 0.028363
7670.0 0.028898
7690.0 0.030049
7710.0 0.031121
7730.0 0.03218
7750.0 0.03299
7770.0 0.033469
7790.0 0.033373
7810.0 0.03272
7830.0 0.033004
7850.0 0.032895
7870.0 0.031974
7890.0 0.03089
7910.0 0.029928
7930.0 0.029025
7950.0 0.028442
7970.0 0.028406
7990.0 0.02873
8010.0 0.02862
8030.0 0.028295
8050.0 0.027783
8070.0 0.02725
8090.0 0.026684
8110.0 0.026746
8130.0 0.02697
8150.0 0.026964
8170.0 0.026754
8190.0 0.026288
8210.0 0.025096
8230.0 0.023429
8250.0 0.022391
8270.0 0.021766
8290.0 0.021436
8310.0 0.021554
8330.0 0.021992
8350.0 0.021558
8370.0 0.021047
8390.0 0.021359
8410.0 0.022179
8430.0 0.023465
8450.0 0.024675
8470.0 0.025072
8490.0 0.025377
8510.0 0.025345
8530.0 0.025328
8550.0 0.025554
8570.0 0.025618
8590.0 0.025643
8610.0 0.026349
8630.0 0.026599
8650.0 0.026026
8670.0 0.025989
8690.0 0.026122
8710.0 0.025906
8730.0 0.025661
8750.0 0.024899
8770.0 0.024561
8790.0 0.024338
8810.0 0.024073
8830.0 0.022856
8850.0 0.02112
8870.0 0.019818
8890.0 0.019076
8910.0 0.017921
8930.0 0.016687
8950.0 0.016149
8970.0 0.016057
8990.0 0.016103
9010.0 0.015996
9030.0 0.015883
9050.0 0.015778
9070.0 0.015679
9090.0 0.015581
9110.0 0.015482
9130.0 0.015384
9150.0 0.015287
9170.0 0.015189
9190.0 0.015092
9210.0 0.014994
9230.0 0.014898
9250.0 0.014802
9270.0 0.014706
9290.0 0.01461
9310.0 0.014515
9330.0 0.01442
9350.0 0.014325
9370.0 0.014231
9390.0 0.014137
9410.0 0.014044
9430.0 0.01395
9450.0 0.013855
9470.0 0.013762
9490.0 0.013674
9510.0 0.013582
9530.0 0.013492
9550.0 0.013402
9570.0 0.013312
9590.0 0.013223
9610.0 0.013134
9630.0 0.013045
9650.0 0.012957
9670.0 0.01287
9690.0 0.012782
9710.0 0.012696
9730.0 0.01261
9750.0 0.012524
9770.0 0.012439
9790.0 0.012354
9810.0 0.01227
9830.0 0.012184
9850.0 0.012088
9870.0 0.012008
9890.0 0.01193
9910.0 0.011851
9930.0 0.011769
9950.0 0.011691
9970.0 0.011611
9990.0 0.01153
10010.0 0.011439
10030.0 0.011356
10050.0 0.011283
10070.0 0.011209
10090.0 0.011135
10110.0 0.011056
10130.0 0.010964
10150.0 0.010891
10170.0 0.01082
10190.0 0.010745
10210.0 0.010672
10230.0 0.010599
10250.0 0.010523
10270.0 0.010448
10290.0 0.010375
10310.0 0.0103
10330.0 0.010224
10350.0 0.01015
10370.0 0.010078
10390.0 0.010003
10410.0 0.0099282
10430.0 0.0098573
10450.0 0.009784
10470.0 0.0097098
10490.0 0.009638
10510.0 0.0095668
10530.0 0.0094918
10550.0 0.0094189
10570.0 0.0093486
10590.0 0.0092764
10610.0 0.0092031
10630.0 0.0091328
10650.0 0.0090623
10670.0 0.0089887
10690.0 0.008917
10710.0 0.008847
10730.0 0.008775
10750.0 0.0087009
10770.0 0.0086314
10790.0 0.0085611
10810.0 0.0084885
10830.0 0.0084174
10850.0 0.0083486
10870.0 0.0082759
10890.0 0.0082036
10910.0 0.0081346
10930.0 0.0080658
10950.0 0.0079957
10970.0 0.007929
10990.0 0.0078663
11010.0 0.0079839
11030.0 0.0079286
11050.0 0.0078759
11070.0 0.007823
11090.0 0.0077667
11110.0 0.0077124
11130.0 0.0076579
11150.0 0.0076009
11170.0 0.007543
11190.0 0.0074875
11210.0 0.0074309
11230.0 0.0073734
11250.0 0.0073188
11270.0 0.0072664
11290.0 0.0072136
11310.0 0.0071627
11330.0 0.0071164
11350.0 0.0070708
11370.0 0.0070261
11390.0 0.0069844
11410.0 0.0069444
11430.0 0.0069033
11450.0 0.0068635
11470.0 0.0068247
11490.0 0.0067848
11510.0 0.0067428
11530.0 0.0067011
11550.0 0.0066582
11570.0 0.0066117
11590.0 0.0065635
11610.0 0.0065146
11630.0 0.0064618
11650.0 0.0064054
11670.0 0.0063496
11690.0 0.0062923
11710.0 0.006232
11730.0 0.0061714
11750.0 0.0061128
11770.0 0.0060522
11790.0 0.0059913
11810.0 0.0059331
11830.0 0.0058761
11850.0 0.0058175
11870.0 0.0057622
11890.0 0.0057101
11910.0 0.0056581
11930.0 0.0056074
11950.0 0.0055604
11970.0 0.0055147
11990.0 0.0054694
12010.0 0.0054273
12030.0 0.0053881
12050.0 0.00535
12070.0 0.0053138
12090.0 0.005282
12110.0 0.0052523
12130.0 0.0052247
12150.0 0.0052006
12170.0 0.00518
12190.0 0.0051616
12210.0 0.0051469
12230.0 0.0051359
12250.0 0.005128
12270.0 0.0051234
12290.0 0.0051221
12310.0 0.0051234
12330.0 0.0051275
12350.0 0.005134
12370.0 0.0051418
12390.0 0.0051511
12410.0 0.005162
12430.0 0.0051721
12450.0 0.0051817
12470.0 0.0051907
12490.0 0.0051979
12510.0 0.0052024
12530.0 0.0052044
12550.0 0.005203
12570.0 0.0051978
12590.0 0.0051885
12610.0 0.0051744
12630.0 0.0051554
12650.0 0.0051326
12670.0 0.005105
12690.0 0.0050724
12710.0 0.0050368
12730.0 0.0049982
12750.0 0.0049545
12770.0 0.004909
12790.0 0.0048628
12810.0 0.0048142
12830.0 0.0047634
12850.0 0.0047142
12870.0 0.0046652
12890.0 0.0046145
12910.0 0.0045649
12930.0 0.0045173
12950.0 0.0044686
12970.0 0.0044197
12990.0 0.0043736
13010.0 0.0043281
13030.0 0.0042821
13050.0 0.0042375
13070.0 0.0041954
13090.0 0.0041527
13110.0 0.0041109
13130.0 0.0040717
13150.0 0.004034
13170.0 0.0039962
13190.0 0.0039614
13210.0 0.0039294
13230.0 0.0038983
13250.0 0.0038688
13270.0 0.0038421
13290.0 0.0038165
13310.0 0.0037914
13330.0 0.003768
13350.0 0.0037459
13370.0 0.0037237
13390.0 0.0037014
13410.0 0.0036803
13430.0 0.0036588
13450.0 0.0036365
13470.0 0.0036143
13490.0 0.0035922
13510.0 0.0035684
13530.0 0.0035443
13550.0 0.0035206
13570.0 0.0034961
13590.0 0.0034707
13610.0 0.0034456
13630.0 0.0034209
13650.0 0.003395
13670.0 0.0033691
13690.0 0.0033439
13710.0 0.0033182
13730.0 0.0032912
13750.0 0.0032655
13770.0 0.00324
13790.0 0.0032134
13810.0 0.0031867
13830.0 0.0031609
13850.0 0.003134
13870.0 0.0031062
13890.0 0.0030788
13910.0 0.0030513
13930.0 0.0030222
13950.0 0.0029927
13970.0 0.0029643
13990.0 0.0029344
14010.0 0.0029036
14030.0 0.0028734
14050.0 0.0028431
14070.0 0.0028108
14090.0 0.0027792
14110.0 0.0027486
14130.0 0.0027174
14150.0 0.0026859
14170.0 0.0026565
14190.0 0.0026279
14210.0 0.0025992
14230.0 0.0025721
14250.0 0.002547
14270.0 0.002522
14290.0 0.002498
14310.0 0.0024763
14330.0 0.0024557
14350.0 0.0024355
14370.0 0.0024166
14390.0 0.0023993
14410.0 0.002382
14430.0 0.0023654
14450.0 0.00235
14470.0 0.0023351
14490.0 0.00232
14510.0 0.0023061
14530.0 0.002293
14550.0 0.00228
14570.0 0.0022674
14590.0 0.0022557
14610.0 0.0022443
14630.0 0.0022329
14650.0 0.0022224
14670.0 0.0022125
14690.0 0.0022028
14710.0 0.0021935
14730.0 0.0021855
14750.0 0.0021781
14770.0 0.0021713
14790.0 0.0021658
14810.0 0.0021615
14830.0 0.0021583
14850.0 0.0021567
14870.0 0.0021567
14890.0 0.0021582
14910.0 0.0021612
14930.0 0.0021652
14950.0 0.0021699
14970.0 0.0021749
14990.0 0.0021795
15010.0 0.0021834
15030.0 0.0021863
15050.0 0.0021881
15070.0 0.0021889
15090.0 0.002189
15110.0 0.0021885
15130.0 0.0021878
15150.0 0.0021869
15170.0 0.0021859
15190.0 0.0021848
15210.0 0.0021838
15230.0 0.0021829
15250.0 0.0021819
15270.0 0.002181
15290.0 0.0021802
15310.0 0.0021794
15330.0 0.0021785
15350.0 0.0021779
15370.0 0.0021772
15390.0 0.0021764
15410.0 0.0021758
15430.0 0.0021753
15450.0 0.0021747
15470.0 0.0021741
15490.0 0.0021737
15510.0 0.0021733
15530.0 0.0021728
15550.0 0.0021725
15570.0 0.0021722
15590.0 0.0021719
15610.0 0.0021715
15630.0 0.0021713
15650.0 0.0021712
15670.0 0.002171
15690.0 0.0021708
15710.0 0.0021709
15730.0 0.0021708
15750.0 0.0021707
15770.0 0.0021708
15790.0 0.0021708
15810.0 0.0021708
15830.0 0.0021709
15850.0 0.0021711
15870.0 0.0021713
15890.0 0.0021714
15910.0 0.0021717
15930.0 0.002172
15950.0 0.0021722
15970.0 0.0021725
15990.0 0.0021729
16010.0 0.0021732
16030.0 0.0021736
16050.0 0.0021741
16070.0 0.0021746
16090.0 0.002175
16110.0 0.0021755
16130.0 0.0021761
16150.0 0.0021765
16170.0 0.002177
16190.0 0.0021777
16210.0 0.0021783
16230.0 0.0021789
16250.0 0.0021795
16270.0 0.0021803
16290.0 0.0021809
16310.0 0.0021816
16330.0 0.0021823
16350.0 0.0021831
16370.0 0.0021837
16390.0 0.0021845
16410.0 0.0021853
16430.0 0.002186
16450.0 0.0021867
16470.0 0.0021876
16490.0 0.0021884
16510.0 0.0021891
16530.0 0.00219
16550.0 0.0021908
16570.0 0.0021916
16590.0 0.0021923
16610.0 0.0021933
16630.0 0.0021941
16650.0 0.0021948
16670.0 0.0021957
16690.0 0.0021966
16710.0 0.0021973
16730.0 0.0021981
16750.0 0.0021989
16770.0 0.0021997
16790.0 0.0022004
16810.0 0.0022012
16830.0 0.002202
16850.0 0.0022027
16870.0 0.0022035
16890.0 0.0022043
16910.0 0.0022049
16930.0 0.0022055
16950.0 0.0022062
16970.0 0.0022069
16990.0 0.0022075
17010.0 0.0022081
17030.0 0.0022088
17050.0 0.0022093
17070.0 0.0022097
17090.0 0.0022103
17110.0 0.0022108
17130.0 0.0022111
17150.0 0.0022115
17170.0 0.002212
17190.0 0.0022123
17210.0 0.0022126
17230.0 0.002213
17250.0 0.0022132
17270.0 0.0022133
17290.0 0.0022135
17310.0 0.0022136
17330.0 0.0022137
17350.0 0.0022136
17370.0 0.0022137
17390.0 0.0022137
17410.0 0.0022135
17430.0 0.0022134
17450.0 0.0022133
17470.0 0.0022129
17490.0 0.0022125
17510.0 0.0022123
17530.0 0.0022119
17550.0 0.0022113
17570.0 0.0022108
17590.0 0.0022103
17610.0 0.0022096
17630.0 0.0022089
17650.0 0.0022082
17670.0 0.0022074
17690.0 0.0022064
17710.0 0.0022055
17730.0 0.0022045
17750.0 0.0022034
17770.0 0.0022022
17790.0 0.0022011
17810.0 0.0021998
17830.0 0.0021984
17850.0 0.002197
17870.0 0.0021956
17890.0 0.0021939
17910.0 0.0021923
17930.0 0.0021907
17950.0 0.0021889
17970.0 0.002187
17990.0 0.0021851
18010.0 0.0021831
18030.0 0.0021809
18050.0 0.0021788
18070.0 0.0021766
18090.0 0.0021743
18110.0 0.0021718
18130.0 0.0021694
18150.0 0.0021669
18170.0 0.0021642
18190.0 0.0021615
18210.0 0.0021588
18230.0 0.0021558
18250.0 0.0021528
18270.0 0.0021498
18290.0 0.0021467
18310.0 0.0021434
18330.0 0.0021402
18350.0 0.0021369
18370.0 0.0021334
18390.0 0.0021298
18410.0 0.0021262
18430.0 0.0021225
18450.0 0.0021186
18470.0 0.0021148
18490.0 0.0021109
18510.0 0.0021068
18530.0 0.0021026
18550.0 0.0020985
18570.0 0.0020942
18590.0 0.0020897
18610.0 0.0020853
18630.0 0.0020808
18650.0 0.0020761
18670.0 0.0020714
18690.0 0.0020667
18710.0 0.0020618
18730.0 0.0020568
18750.0 0.0020518
18770.0 0.0020468
18790.0 0.0020414
18810.0 0.0020361
18830.0 0.0020308
18850.0 0.0020254
18870.0 0.0020198
18890.0 0.0020143
18910.0 0.0020087
18930.0 0.0020028
18950.0 0.001997
18970.0 0.0019912
18990.0 0.0019852
19010.0 0.001979
19030.0 0.0019729
19050.0 0.0019668
19070.0 0.0019605
19090.0 0.0019541
19110.0 0.0019478
19130.0 0.0019413
19150.0 0.0019347
19170.0 0.0019281
19190.0 0.0019214
19210.0 0.0019146
19230.0 0.0019078
19250.0 0.001901
19270.0 0.001894
19290.0 0.001887
19310.0 0.00188
19330.0 0.0018729
19350.0 0.0018656
19370.0 0.0018584
19390.0 0.0018511
19410.0 0.0018437
19430.0 0.0018363
19450.0 0.0018289
19470.0 0.0018214
19490.0 0.0018138
19510.0 0.0018062
19530.0 0.0017986
19550.0 0.0017908
19570.0 0.0017829
19590.0 0.0017752
19610.0 0.0017674
19630.0 0.0017594
19650.0 0.0017515
19670.0 0.0017436
19690.0 0.0017355
19710.0 0.0017275
19730.0 0.0017194
19750.0 0.0017113
19770.0 0.001703
19790.0 0.0016949
19810.0 0.0016867
19830.0 0.0016784
19850.0 0.00167
19870.0 0.0016616
19890.0 0.0016529
19910.0 0.0016437
19930.0 0.001634
19950.0 0.0016235
19970.0 0.0016114
19990.0 0.0015978
20010.0 0.0015827
20030.0 0.0015655
20050.0 0.0015462
20070.0 0.0015258
20090.0 0.0015044
20110.0 0.0014812
20130.0 0.0014579
20150.0 0.0014351
20170.0 0.0014118
20190.0 0.0013885
20210.0 0.0013664
20230.0 0.0013447
20250.0 0.0013229
20270.0 0.0013022
20290.0 0.0012826
20310.0 0.0012635
20330.0 0.0012448
20350.0 0.0012278
20370.0 0.0012116
20390.0 0.001196
20410.0 0.0011815
20430.0 0.0011682
20450.0 0.0011553
20470.0 0.0011432
20490.0 0.0011322
20510.0 0.001122
20530.0 0.0011122
20550.0 0.0011033
20570.0 0.0010952
20590.0 0.0010875
20610.0 0.0010803
20630.0 0.0010736
20650.0 0.0010674
20670.0 0.0010614
20690.0 0.0010558
20710.0 0.0010504
20730.0 0.0010451
20750.0 0.0010398
20770.0 0.0010346
20790.0 0.0010293
20810.0 0.0010238
20830.0 0.0010182
20850.0 0.0010122
20870.0 0.0010059
20890.0 0.00099918
20910.0 0.00099216
20930.0 0.00098466
20950.0 0.00097663
20970.0 0.00096827
20990.0 0.00095957
21010.0 0.00095022
21030.0 0.00094055
21050.0 0.00093071
21070.0 0.00092048
21090.0 0.00090976
21110.0 0.00089916
21130.0 0.00088848
21150.0 0.00087747
21170.0 0.00086647
21190.0 0.00085574
21210.0 0.00084481
21230.0 0.00083383
21250.0 0.00082328
21270.0 0.00081293
21290.0 0.00080257
21310.0 0.00079249
21330.0 0.00078295
21350.0 0.00077345
21370.0 0.00076414
21390.0 0.00075529
21410.0 0.00074673
21430.0 0.00073812
21450.0 0.00072994
21470.0 0.00072212
21490.0 0.00071437
21510.0 0.00070675
21530.0 0.00069948
21550.0 0.00069233
21570.0 0.00068514
21590.0 0.00067817
21610.0 0.00067138
21630.0 0.00066457
21650.0 0.00065772
21670.0 0.00065119
21690.0 0.00064466
21710.0 0.00063808
21730.0 0.00063162
21750.0 0.00062532
21770.0 0.00061884
21790.0 0.00061241
21810.0 0.00060613
21830.0 0.00059984
21850.0 0.00059343
21870.0 0.00058713
21890.0 0.00058094
21910.0 0.0005746
21930.0 0.00056825
21950.0 0.00056203
21970.0 0.00055575
21990.0 0.00054928
22010.0 0.000543
22030.0 0.0005368
22050.0 0.00053048
22070.0 0.0005242
22090.0 0.00051815
22110.0 0.00051207
22130.0 0.00050596
22150.0 0.00050007
22170.0 0.00049435
22190.0 0.00048857
22210.0 0.00048296
22230.0 0.00047767
22250.0 0.00047245
22270.0 0.00046731
22290.0 0.00046244
22310.0 0.00045776
22330.0 0.00045307
22350.0 0.00044858
22370.0 0.00044431
22390.0 0.0004401
22410.0 0.00043592
22430.0 0.00043196
22450.0 0.00042809
22470.0 0.0004242
22490.0 0.00042039
22510.0 0.00041671
22530.0 0.00041298
22550.0 0.00040922
22570.0 0.0004056
22590.0 0.00040201
22610.0 0.00039837
22630.0 0.00039478
22650.0 0.00039135
22670.0 0.00038786
22690.0 0.00038442
22710.0 0.00038112
22730.0 0.00037791
22750.0 0.00037466
22770.0 0.00037162
22790.0 0.00036875
22810.0 0.00036597
22830.0 0.00036331
22850.0 0.00036091
22870.0 0.00035866
22890.0 0.00035657
22910.0 0.00035474
22930.0 0.00035316
22950.0 0.0003518
22970.0 0.00035071
22990.0 0.00034992
23010.0 0.00034939
23030.0 0.00034914
23050.0 0.00034915
23070.0 0.00034937
23090.0 0.00034986
23110.0 0.00035055
23130.0 0.00035136
23150.0 0.00035232
23170.0 0.00035343
23190.0 0.00035458
23210.0 0.00035573
23230.0 0.00035698
23250.0 0.00035823
23270.0 0.00035944
23290.0 0.00036066
23310.0 0.00036192
23330.0 0.00036309
23350.0 0.00036422
23370.0 0.00036537
23390.0 0.00036649
23410.0 0.00036753
23430.0 0.00036858
23450.0 0.00036974
23470.0 0.00037087
23490.0 0.00037199
23510.0 0.00037316
23530.0 0.00037432
23550.0 0.00037545
23570.0 0.00037663
23590.0 0.00037786
23610.0 0.00037911
23630.0 0.00038041
23650.0 0.00038185
23670.0 0.00038339
23690.0 0.00038505
23710.0 0.00038692
23730.0 0.00038907
23750.0 0.00039137
23770.0 0.00039393
23790.0 0.00039684
23810.0 0.0004
23830.0 0.00040333
23850.0 0.00040703
23870.0 0.000411
23890.0 0.00041501
23910.0 0.00041917
23930.0 0.00042356
23950.0 0.00042794
23970.0 0.0004322
23990.0 0.00043659
24010.0 0.00044093
24030.0 0.00044504
24050.0 0.00044902
