#lamb flux
1010.0 7.8797e-07
1030.0 8.7268e-07
1050.0 9.701e-07
1070.0 1.0798e-06
1090.0 1.2044e-06
1110.0 1.3321e-06
1130.0 1.4607e-06
1150.0 1.5954e-06
1170.0 1.7344e-06
1190.0 1.8661e-06
1210.0 1.9997e-06
1230.0 2.1377e-06
1250.0 2.2729e-06
1270.0 2.4042e-06
1290.0 2.5429e-06
1310.0 2.6815e-06
1330.0 2.8144e-06
1350.0 2.9489e-06
1370.0 3.0876e-06
1390.0 3.2229e-06
1410.0 3.3542e-06
1430.0 3.4914e-06
1450.0 3.6286e-06
1470.0 3.7612e-06
1490.0 3.8952e-06
1510.0 4.0367e-06
1530.0 4.1707e-06
1550.0 4.3028e-06
1570.0 4.4395e-06
1590.0 4.5763e-06
1610.0 4.7069e-06
1630.0 4.8414e-06
1650.0 4.9794e-06
1670.0 5.1127e-06
1690.0 5.2441e-06
1710.0 5.3805e-06
1730.0 5.5174e-06
1750.0 5.6458e-06
1770.0 5.7778e-06
1790.0 5.9121e-06
1810.0 6.0416e-06
1830.0 6.1683e-06
1850.0 6.3025e-06
1870.0 6.4325e-06
1890.0 6.5572e-06
1910.0 6.6837e-06
1930.0 6.8124e-06
1950.0 6.9339e-06
1970.0 7.0527e-06
1990.0 7.1749e-06
2010.0 7.2934e-06
2030.0 7.4055e-06
2050.0 7.5197e-06
2070.0 7.635e-06
2090.0 7.7405e-06
2110.0 7.8431e-06
2130.0 7.9467e-06
2150.0 8.045e-06
2170.0 8.1347e-06
2190.0 8.2255e-06
2210.0 8.3136e-06
2230.0 8.3927e-06
2250.0 8.4672e-06
2270.0 8.5429e-06
2290.0 8.6101e-06
2310.0 8.6679e-06
2330.0 8.7252e-06
2350.0 8.7798e-06
2370.0 8.8274e-06
2390.0 8.8769e-06
2410.0 8.9391e-06
2430.0 9.0103e-06
2450.0 9.0987e-06
2470.0 9.2229e-06
2490.0 9.3904e-06
2510.0 9.5849e-06
2530.0 9.8369e-06
2550.0 1.0185e-05
2570.0 1.0659e-05
2590.0 1.132e-05
2610.0 1.2362e-05
2630.0 1.3861e-05
2650.0 1.5779e-05
2670.0 1.8186e-05
2690.0 2.1031e-05
2710.0 2.3914e-05
2730.0 2.6599e-05
2750.0 2.9089e-05
2770.0 3.1071e-05
2790.0 3.2457e-05
2810.0 3.3388e-05
2830.0 3.3956e-05
2850.0 3.4151e-05
2870.0 3.4142e-05
2890.0 3.4021e-05
2910.0 3.382e-05
2930.0 3.3566e-05
2950.0 3.3309e-05
2970.0 3.3054e-05
2990.0 3.2794e-05
3010.0 0.00098482
3030.0 0.00097772
3050.0 0.00097074
3070.0 0.00096327
3090.0 0.00095541
3110.0 0.0009462
3130.0 0.00093451
3150.0 0.00091957
3170.0 0.00089974
3190.0 0.00087543
3210.0 0.00084818
3230.0 0.00081917
3250.0 0.00079041
3270.0 0.00076902
3290.0 0.00075352
3310.0 0.00075036
3330.0 0.00075606
3350.0 0.00077012
3370.0 0.00079251
3390.0 0.00082221
3410.0 0.00085543
3430.0 0.00089347
3450.0 0.00093786
3470.0 0.00098689
3490.0 0.0010396
3510.0 0.0010995
3530.0 0.0011651
3550.0 0.0012351
3570.0 0.0013124
3590.0 0.0013995
3610.0 0.0014966
3630.0 0.001595
3650.0 0.0016995
3670.0 0.0017948
3690.0 0.0018665
3710.0 0.0019037
3730.0 0.0018855
3750.0 0.0018112
3770.0 0.0018138
3790.0 0.0017338
3810.0 0.0013468
3830.0 0.0012422
3850.0 0.0016573
3870.0 0.0014504
3890.0 0.0011873
3910.0 0.0013886
3930.0 0.0018278
3950.0 0.0020861
3970.0 0.0024217
3990.0 0.0019409
4010.0 0.0030045
4030.0 0.0027599
4050.0 0.0025973
4070.0 0.0029551
4090.0 0.0028375
4110.0 0.0028204
4130.0 0.003477
4150.0 0.0044236
4170.0 0.0036264
4190.0 0.0032409
4210.0 0.0035766
4230.0 0.0044251
4250.0 0.0051539
4270.0 0.005561
4290.0 0.0051032
4310.0 0.0047527
4330.0 0.0048231
4350.0 0.00613
4370.0 0.0073681
4390.0 0.0060079
4410.0 0.003665
4430.0 0.0027072
4450.0 0.0024422
4470.0 0.0018464
4490.0 0.0027934
4510.0 0.0050108
4530.0 0.0060085
4550.0 0.0059681
4570.0 0.0056677
4590.0 0.00628
4610.0 0.011349
4630.0 0.015499
4650.0 0.014692
4670.0 0.013091
4690.0 0.013771
4710.0 0.01454
4730.0 0.011752
4750.0 0.0075816
4770.0 0.0054839
4790.0 0.0060073
4810.0 0.0061348
4830.0 0.0060304
4850.0 0.0066404
4870.0 0.0087806
4890.0 0.01021
4910.0 0.0079507
4930.0 0.0075282
4950.0 0.0086343
4970.0 0.01165
4990.0 0.015629
5010.0 0.01773
5030.0 0.014071
5050.0 0.0084801
5070.0 0.0060215
5090.0 0.0047893
5110.0 0.0045925
5130.0 0.0053332
5150.0 0.0051903
5170.0 0.0049455
5190.0 0.0045247
5210.0 0.0048048
5230.0 0.0057952
5250.0 0.006681
5270.0 0.006412
5290.0 0.007072
5310.0 0.0091713
5330.0 0.0096056
5350.0 0.0094742
5370.0 0.010684
5390.0 0.013044
5410.0 0.011292
5430.0 0.0086642
5450.0 0.0085985
5470.0 0.010055
5490.0 0.012795
5510.0 0.015858
5530.0 0.018256
5550.0 0.016583
5570.0 0.014807
5590.0 0.012306
5610.0 0.012349
5630.0 0.013525
5650.0 0.012804
5670.0 0.011935
5690.0 0.0098537
5710.0 0.0099803
5730.0 0.0096559
5750.0 0.0053357
5770.0 0.0040383
5790.0 0.00494
5810.0 0.0054785
5830.0 0.0079789
5850.0 0.01007
5870.0 0.010614
5890.0 0.010032
5910.0 0.009674
5930.0 0.0094571
5950.0 0.0098292
5970.0 0.011926
5990.0 0.009985
6010.0 0.0077479
6030.0 0.0063005
6050.0 0.0055763
6070.0 0.0065118
6090.0 0.0074254
6110.0 0.0076554
6130.0 0.006997
6150.0 0.0056592
6170.0 0.0049196
6190.0 0.006128
6210.0 0.0091117
6230.0 0.012694
6250.0 0.013337
6270.0 0.010443
6290.0 0.0088605
6310.0 0.0068115
6330.0 0.0050499
6350.0 0.0048737
6370.0 0.0051406
6390.0 0.0062149
6410.0 0.007829
6430.0 0.0093825
6450.0 0.011494
6470.0 0.012494
6490.0 0.015157
6510.0 0.017014
6530.0 0.016884
6550.0 0.015536
6570.0 0.013166
6590.0 0.01276
6610.0 0.010701
6630.0 0.010828
6650.0 0.010319
6670.0 0.0094257
6690.0 0.0078357
6710.0 0.0074601
6730.0 0.0042636
6750.0 0.0048707
6770.0 0.0066713
6790.0 0.0086168
6810.0 0.0066641
6830.0 0.0068251
6850.0 0.00597
6870.0 0.0056761
6890.0 0.005011
6910.0 0.0056302
6930.0 0.0052682
6950.0 0.006111
6970.0 0.0062178
6990.0 0.0069003
7010.0 0.0069318
7030.0 0.0074219
7050.0 0.0065167
7070.0 0.0056977
7090.0 0.005842
7110.0 0.0059242
7130.0 0.0066162
7150.0 0.0074615
7170.0 0.0082572
7190.0 0.0085857
7210.0 0.0076891
7230.0 0.0077835
7250.0 0.0085382
7270.0 0.0094755
7290.0 0.011267
7310.0 0.011509
7330.0 0.010452
7350.0 0.0093136
7370.0 0.0072059
7390.0 0.0075144
7410.0 0.0090621
7430.0 0.010216
7450.0 0.010995
7470.0 0.010535
7490.0 0.0095343
7510.0 0.014017
7530.0 0.012594
7550.0 0.011415
7570.0 0.0078696
7590.0 0.0038943
7610.0 0.002951
7630.0 0.0040295
7650.0 0.0052002
7670.0 0.0077442
7690.0 0.0087387
7710.0 0.0081258
7730.0 0.0080281
7750.0 0.010006
7770.0 0.010173
7790.0 0.0094408
7810.0 0.0080497
7830.0 0.0084647
7850.0 0.0088961
7870.0 0.008597
7890.0 0.0069194
7910.0 0.0048455
7930.0 0.0047706
7950.0 0.0042867
7970.0 0.0037322
7990.0 0.0034707
8010.0 0.003225
8030.0 0.003089
8050.0 0.0032407
8070.0 0.0034093
8090.0 0.0038435
8110.0 0.0035999
8130.0 0.0025575
8150.0 0.0024951
8170.0 0.001829
8190.0 0.0015186
8210.0 0.002305
8230.0 0.0026277
8250.0 0.0016866
8270.0 0.0014431
8290.0 0.0016717
8310.0 0.0012968
8330.0 0.00081013
8350.0 0.00063109
8370.0 0.00035621
8390.0 0.00071065
8410.0 0.00086411
8430.0 0.0010735
8450.0 0.0012004
8470.0 0.0016844
8490.0 0.0014693
8510.0 0.0012741
8530.0 0.00095319
8550.0 0.0019175
8570.0 0.0027552
8590.0 0.0023381
8610.0 0.0031923
8630.0 0.0035548
8650.0 0.0026542
8670.0 0.0032095
8690.0 0.0041297
8710.0 0.0036837
8730.0 0.0037992
8750.0 0.0031826
8770.0 0.0029282
8790.0 0.0031162
8810.0 0.0032119
8830.0 0.0021227
8850.0 0.0013267
8870.0 0.0010389
8890.0 0.0015523
8910.0 0.0021185
8930.0 0.0026021
8950.0 0.0029525
8970.0 0.0029014
8990.0 0.0024153
9010.0 0.0018318
9030.0 0.0015865
9050.0 0.0016339
9070.0 0.0016779
9090.0 0.0017126
9110.0 0.001752
9130.0 0.0017811
9150.0 0.0018029
9170.0 0.0018261
9190.0 0.0018509
9210.0 0.0018768
9230.0 0.0019043
9250.0 0.0019325
9270.0 0.0019615
9290.0 0.0019915
9310.0 0.0020217
9330.0 0.0020525
9350.0 0.0020844
9370.0 0.0021166
9390.0 0.0021493
9410.0 0.0021828
9430.0 0.0022172
9450.0 0.0022517
9470.0 0.0022869
9490.0 0.002323
9510.0 0.0023596
9530.0 0.0023965
9550.0 0.0024345
9570.0 0.0024731
9590.0 0.0025119
9610.0 0.0025515
9630.0 0.0025919
9650.0 0.0026328
9670.0 0.0026739
9690.0 0.0027159
9710.0 0.0027585
9730.0 0.0028014
9750.0 0.0028449
9770.0 0.0028895
9790.0 0.0029341
9810.0 0.0029791
9830.0 0.0030248
9850.0 0.0030711
9870.0 0.0031175
9890.0 0.0031644
9910.0 0.0032121
9930.0 0.0032599
9950.0 0.0033079
9970.0 0.0033566
9990.0 0.0034058
10010.0 0.0031493
10030.0 0.0031935
10050.0 0.0032381
10070.0 0.0032823
10090.0 0.0033271
10110.0 0.0033725
10130.0 0.0034179
10150.0 0.0034631
10170.0 0.0035085
10190.0 0.0035542
10210.0 0.0035995
10230.0 0.0036447
10250.0 0.0036902
10270.0 0.0037355
10290.0 0.0037805
10310.0 0.0038255
10330.0 0.0038706
10350.0 0.0039152
10370.0 0.0039595
10390.0 0.0040038
10410.0 0.0040478
10430.0 0.0040911
10450.0 0.0041343
10470.0 0.0041772
10490.0 0.0042194
10510.0 0.0042612
10530.0 0.0043029
10550.0 0.0043438
10570.0 0.004384
10590.0 0.0044238
10610.0 0.0044631
10630.0 0.0045014
10650.0 0.0045391
10670.0 0.0045765
10690.0 0.0046129
10710.0 0.0046484
10730.0 0.0046834
10750.0 0.0047177
10770.0 0.0047508
10790.0 0.0047831
10810.0 0.0048147
10830.0 0.004845
10850.0 0.0048738
10870.0 0.0049009
10890.0 0.0049249
10910.0 0.0049438
10930.0 0.0049555
10950.0 0.0049557
10970.0 0.0049414
10990.0 0.0049111
11010.0 0.0049839
11030.0 0.0049088
11050.0 0.0048159
11070.0 0.0047036
11090.0 0.0045673
11110.0 0.0044259
11130.0 0.0042779
11150.0 0.0041186
11170.0 0.0039546
11190.0 0.0037963
11210.0 0.0036338
11230.0 0.0034685
11250.0 0.003312
11270.0 0.003163
11290.0 0.0030151
11310.0 0.0028763
11330.0 0.0027547
11350.0 0.0026403
11370.0 0.0025348
11390.0 0.0024431
11410.0 0.0023621
11430.0 0.0022858
11450.0 0.0022184
11470.0 0.0021583
11490.0 0.0021007
11510.0 0.0020435
11530.0 0.0019888
11550.0 0.0019336
11570.0 0.0018743
11590.0 0.001813
11610.0 0.0017509
11630.0 0.001684
11650.0 0.0016133
11670.0 0.0015443
11690.0 0.001475
11710.0 0.0014043
11730.0 0.0013363
11750.0 0.0012735
11770.0 0.0012121
11790.0 0.0011547
11810.0 0.0011038
11830.0 0.001058
11850.0 0.0010154
11870.0 0.00097895
11890.0 0.00094779
11910.0 0.0009196
11930.0 0.00089439
11950.0 0.00087234
11970.0 0.00085176
11990.0 0.0008316
12010.0 0.00081229
12030.0 0.00079329
12050.0 0.00077354
12070.0 0.00075299
12090.0 0.00073301
12110.0 0.00071263
12130.0 0.00069197
12150.0 0.00067228
12170.0 0.00065413
12190.0 0.00063689
12210.0 0.00062218
12230.0 0.00061066
12250.0 0.00060226
12270.0 0.00059756
12290.0 0.00059686
12310.0 0.00059983
12330.0 0.0006071
12350.0 0.00061828
12370.0 0.00063233
12390.0 0.00064962
12410.0 0.0006709
12430.0 0.00069281
12450.0 0.00071569
12470.0 0.00074022
12490.0 0.00076476
12510.0 0.00078737
12530.0 0.00080965
12550.0 0.00083078
12570.0 0.00084874
12590.0 0.00086382
12610.0 0.00087666
12630.0 0.00088596
12650.0 0.00089105
12670.0 0.00089301
12690.0 0.00089148
12710.0 0.00088637
12730.0 0.00087814
12750.0 0.00086661
12770.0 0.0008523
12790.0 0.00083587
12810.0 0.00081711
12830.0 0.00079614
12850.0 0.00077448
12870.0 0.00075188
12890.0 0.0007278
12910.0 0.00070343
12930.0 0.00067939
12950.0 0.00065442
12970.0 0.000629
12990.0 0.00060471
13010.0 0.00058058
13030.0 0.00055606
13050.0 0.00053225
13070.0 0.00050966
13090.0 0.00048682
13110.0 0.00046451
13130.0 0.00044364
13150.0 0.00042367
13170.0 0.00040398
13190.0 0.00038618
13210.0 0.00037025
13230.0 0.0003555
13250.0 0.0003425
13270.0 0.00033184
13290.0 0.00032307
13310.0 0.00031631
13330.0 0.00031202
13350.0 0.00030999
13370.0 0.00031025
13390.0 0.00031293
13410.0 0.00031739
13430.0 0.0003238
13450.0 0.00033219
13470.0 0.00034178
13490.0 0.00035212
13510.0 0.00036405
13530.0 0.00037629
13550.0 0.0003881
13570.0 0.00039988
13590.0 0.00041151
13610.0 0.00042191
13630.0 0.00043103
13650.0 0.00043945
13670.0 0.00044646
13690.0 0.00045182
13710.0 0.00045594
13730.0 0.00045882
13750.0 0.00046006
13770.0 0.00046005
13790.0 0.00045887
13810.0 0.00045652
13830.0 0.00045324
13850.0 0.00044897
13870.0 0.00044374
13890.0 0.00043788
13910.0 0.00043141
13930.0 0.00042409
13950.0 0.00041626
13970.0 0.00040837
13990.0 0.00039993
14010.0 0.00039112
14030.0 0.00038245
14050.0 0.00037383
14070.0 0.00036486
14090.0 0.00035636
14110.0 0.00034843
14130.0 0.00034082
14150.0 0.0003337
14170.0 0.00032763
14190.0 0.00032239
14210.0 0.00031794
14230.0 0.00031461
14250.0 0.00031241
14270.0 0.00031128
14290.0 0.00031136
14310.0 0.00031255
14330.0 0.0003148
14350.0 0.00031821
14370.0 0.00032254
14390.0 0.00032754
14410.0 0.00033352
14430.0 0.00034022
14450.0 0.00034721
14470.0 0.00035464
14490.0 0.00036276
14510.0 0.0003708
14530.0 0.00037873
14550.0 0.00038701
14570.0 0.00039537
14590.0 0.00040342
14610.0 0.00041166
14630.0 0.00042033
14650.0 0.00042891
14670.0 0.00043761
14690.0 0.00044701
14710.0 0.00045709
14730.0 0.00046722
14750.0 0.00047829
14770.0 0.00049051
14790.0 0.00050333
14810.0 0.00051673
14830.0 0.00053191
14850.0 0.00054775
14870.0 0.00056366
14890.0 0.00058024
14910.0 0.00059728
14930.0 0.00061327
14950.0 0.00062793
14970.0 0.00064159
14990.0 0.00065296
15010.0 0.0006617
15030.0 0.00066826
15050.0 0.00067276
15070.0 0.00067527
15090.0 0.00067655
15110.0 0.00067698
15130.0 0.00067687
15150.0 0.00067654
15170.0 0.00067603
15190.0 0.00067543
15210.0 0.00067488
15230.0 0.00067434
15250.0 0.00067375
15270.0 0.00067318
15290.0 0.00067271
15310.0 0.0006722
15330.0 0.00067167
15350.0 0.00067121
15370.0 0.00067077
15390.0 0.00067024
15410.0 0.00066977
15430.0 0.00066935
15450.0 0.0006689
15470.0 0.00066842
15490.0 0.00066802
15510.0 0.00066762
15530.0 0.00066717
15550.0 0.00066674
15570.0 0.00066637
15590.0 0.00066593
15610.0 0.00066546
15630.0 0.00066509
15650.0 0.00066469
15670.0 0.00066424
15690.0 0.00066382
15710.0 0.00066346
15730.0 0.00066301
15750.0 0.00066256
15770.0 0.00066216
15790.0 0.00066175
15810.0 0.00066124
15830.0 0.0006608
15850.0 0.00066039
15870.0 0.00065991
15890.0 0.00065942
15910.0 0.000659
15930.0 0.00065852
15950.0 0.00065797
15970.0 0.00065747
15990.0 0.00065699
16010.0 0.00065644
16030.0 0.00065585
16050.0 0.00065536
16070.0 0.00065481
16090.0 0.0006542
16110.0 0.00065362
16130.0 0.00065307
16150.0 0.00065239
16170.0 0.00065173
16190.0 0.00065112
16210.0 0.00065046
16230.0 0.00064973
16250.0 0.00064906
16270.0 0.00064839
16290.0 0.00064762
16310.0 0.00064686
16330.0 0.00064613
16350.0 0.00064535
16370.0 0.00064446
16390.0 0.00064367
16410.0 0.00064286
16430.0 0.00064197
16450.0 0.00064107
16470.0 0.00064023
16490.0 0.00063929
16510.0 0.00063831
16530.0 0.00063737
16550.0 0.00063641
16570.0 0.00063535
16590.0 0.0006343
16610.0 0.00063331
16630.0 0.00063223
16650.0 0.00063111
16670.0 0.00063003
16690.0 0.00062893
16710.0 0.0006277
16730.0 0.00062651
16750.0 0.00062535
16770.0 0.00062411
16790.0 0.00062281
16810.0 0.00062159
16830.0 0.00062032
16850.0 0.00061897
16870.0 0.00061763
16890.0 0.00061632
16910.0 0.0006149
16930.0 0.00061344
16950.0 0.00061205
16970.0 0.00061062
16990.0 0.0006091
17010.0 0.00060761
17030.0 0.00060615
17050.0 0.00060458
17070.0 0.00060299
17090.0 0.00060144
17110.0 0.00059984
17130.0 0.00059814
17150.0 0.0005965
17170.0 0.00059487
17190.0 0.00059316
17210.0 0.00059142
17230.0 0.00058974
17250.0 0.00058798
17270.0 0.00058614
17290.0 0.00058435
17310.0 0.00058257
17330.0 0.00058069
17350.0 0.00057879
17370.0 0.00057697
17390.0 0.00057508
17410.0 0.00057312
17430.0 0.0005712
17450.0 0.00056929
17470.0 0.00056724
17490.0 0.00056522
17510.0 0.00056325
17530.0 0.00056122
17550.0 0.00055912
17570.0 0.00055708
17590.0 0.00055504
17610.0 0.0005529
17630.0 0.00055077
17650.0 0.00054868
17670.0 0.00054652
17690.0 0.00054427
17710.0 0.00054213
17730.0 0.00053996
17750.0 0.00053771
17770.0 0.00053548
17790.0 0.0005333
17810.0 0.00053102
17830.0 0.00052871
17850.0 0.00052645
17870.0 0.00052418
17890.0 0.00052181
17910.0 0.00051947
17930.0 0.0005172
17950.0 0.00051484
17970.0 0.00051246
17990.0 0.00051013
18010.0 0.00050778
18030.0 0.00050531
18050.0 0.00050291
18070.0 0.00050054
18090.0 0.00049811
18110.0 0.00049563
18130.0 0.00049324
18150.0 0.00049082
18170.0 0.00048833
18190.0 0.00048587
18210.0 0.00048345
18230.0 0.00048093
18250.0 0.00047839
18270.0 0.00047595
18290.0 0.00047347
18310.0 0.00047092
18330.0 0.00046842
18350.0 0.00046597
18370.0 0.00046341
18390.0 0.00046086
18410.0 0.00045837
18430.0 0.00045584
18450.0 0.00045324
18470.0 0.00045071
18490.0 0.00044821
18510.0 0.00044564
18530.0 0.00044308
18550.0 0.00044058
18570.0 0.00043802
18590.0 0.00043541
18610.0 0.00043287
18630.0 0.00043034
18650.0 0.00042775
18670.0 0.00042515
18690.0 0.00042265
18710.0 0.00042009
18730.0 0.0004175
18750.0 0.00041496
18770.0 0.00041245
18790.0 0.00040982
18810.0 0.00040724
18830.0 0.00040473
18850.0 0.00040217
18870.0 0.00039957
18890.0 0.00039705
18910.0 0.00039454
18930.0 0.00039195
18950.0 0.0003894
18970.0 0.0003869
18990.0 0.00038436
19010.0 0.00038174
19030.0 0.00037926
19050.0 0.00037676
19070.0 0.0003742
19090.0 0.00037168
19110.0 0.00036922
19130.0 0.00036668
19150.0 0.00036414
19170.0 0.00036166
19190.0 0.00035919
19210.0 0.00035664
19230.0 0.00035414
19250.0 0.00035172
19270.0 0.00034923
19290.0 0.00034674
19310.0 0.00034431
19330.0 0.00034188
19350.0 0.00033936
19370.0 0.00033692
19390.0 0.00033452
19410.0 0.00033207
19430.0 0.0003296
19450.0 0.00032723
19470.0 0.00032484
19490.0 0.0003224
19510.0 0.00032001
19530.0 0.00031766
19550.0 0.00031524
19570.0 0.00031282
19590.0 0.0003105
19610.0 0.00030815
19630.0 0.00030576
19650.0 0.00030343
19670.0 0.00030115
19690.0 0.00029878
19710.0 0.00029644
19730.0 0.00029416
19750.0 0.00029186
19770.0 0.00028951
19790.0 0.00028724
19810.0 0.000285
19830.0 0.0002827
19850.0 0.00028041
19870.0 0.00027816
19890.0 0.00027582
19910.0 0.00027334
19930.0 0.00027078
19950.0 0.00026801
19970.0 0.00026483
19990.0 0.00026123
20010.0 0.00025375
20030.0 0.00024928
20050.0 0.00024426
20070.0 0.00023896
20090.0 0.0002334
20110.0 0.00022728
20130.0 0.00022119
20150.0 0.00021524
20170.0 0.00020917
20190.0 0.0002031
20210.0 0.0001974
20230.0 0.00019189
20250.0 0.00018641
20270.0 0.00018132
20290.0 0.00017667
20310.0 0.00017224
20330.0 0.00016809
20350.0 0.00016458
20370.0 0.00016142
20390.0 0.00015861
20410.0 0.00015627
20430.0 0.00015439
20450.0 0.00015283
20470.0 0.00015168
20490.0 0.00015094
20510.0 0.00015054
20530.0 0.00015047
20550.0 0.00015071
20570.0 0.00015119
20590.0 0.00015194
20610.0 0.00015293
20630.0 0.00015406
20650.0 0.00015537
20670.0 0.00015691
20690.0 0.0001585
20710.0 0.00016015
20730.0 0.00016194
20750.0 0.00016381
20770.0 0.00016562
20790.0 0.00016751
20810.0 0.00016949
20830.0 0.00017143
20850.0 0.00017334
20870.0 0.00017537
20890.0 0.00017741
20910.0 0.00017933
20930.0 0.00018131
20950.0 0.00018334
20970.0 0.0001853
20990.0 0.00018721
21010.0 0.00018922
21030.0 0.00019118
21050.0 0.00019304
21070.0 0.00019489
21090.0 0.00019678
21110.0 0.00019849
21130.0 0.0002001
21150.0 0.0002017
21170.0 0.00020317
21190.0 0.00020446
21210.0 0.00020567
21230.0 0.00020675
21250.0 0.0002076
21270.0 0.00020824
21290.0 0.00020869
21310.0 0.00020888
21330.0 0.00020879
21350.0 0.00020843
21370.0 0.00020773
21390.0 0.00020673
21410.0 0.0002054
21430.0 0.00020363
21450.0 0.00020154
21470.0 0.00019917
21490.0 0.00019641
21510.0 0.00019329
21530.0 0.00019002
21550.0 0.00018651
21570.0 0.00018267
21590.0 0.00017878
21610.0 0.00017492
21630.0 0.00017094
21650.0 0.00016693
21670.0 0.00016331
21690.0 0.00015982
21710.0 0.00015652
21730.0 0.0001536
21750.0 0.00015111
21770.0 0.0001489
21790.0 0.00014715
21810.0 0.00014592
21830.0 0.00014512
21850.0 0.00014478
21870.0 0.00014491
21890.0 0.00014544
21910.0 0.00014642
21930.0 0.00014779
21950.0 0.00014945
21970.0 0.00015144
21990.0 0.00015383
22010.0 0.00015635
22030.0 0.00015903
22050.0 0.00016196
22070.0 0.00016502
22090.0 0.00016802
22110.0 0.00017114
22130.0 0.00017437
22150.0 0.00017747
22170.0 0.00018047
22190.0 0.00018353
22210.0 0.00018646
22230.0 0.00018909
22250.0 0.00019162
22270.0 0.000194
22290.0 0.00019607
22310.0 0.00019787
22330.0 0.00019951
22350.0 0.0002008
22370.0 0.00020175
22390.0 0.00020239
22410.0 0.0002027
22430.0 0.00020263
22450.0 0.00020221
22470.0 0.00020141
22490.0 0.00020022
22510.0 0.00019871
22530.0 0.00019677
22550.0 0.00019439
22570.0 0.00019173
22590.0 0.00018873
22610.0 0.00018527
22630.0 0.00018152
22650.0 0.00017762
22670.0 0.0001733
22690.0 0.00016868
22710.0 0.00016399
22730.0 0.00015914
22750.0 0.00015385
22770.0 0.00014866
22790.0 0.00014356
22810.0 0.00013831
22830.0 0.00013304
22850.0 0.00012809
22870.0 0.00012322
22890.0 0.00011836
22910.0 0.00011387
22930.0 0.00010975
22950.0 0.00010582
22970.0 0.00010219
22990.0 9.918e-05
23010.0 9.6514e-05
23030.0 9.4233e-05
23050.0 9.2471e-05
23070.0 9.1202e-05
23090.0 9.0351e-05
23110.0 9.0014e-05
