#lamb flux
1010.0 8.5594e-08
1030.0 9.6155e-08
1050.0 1.083e-07
1070.0 1.2197e-07
1090.0 1.3751e-07
1110.0 1.5344e-07
1130.0 1.6947e-07
1150.0 1.8627e-07
1170.0 2.0359e-07
1190.0 2.2002e-07
1210.0 2.3667e-07
1230.0 2.5388e-07
1250.0 2.7073e-07
1270.0 2.8711e-07
1290.0 3.044e-07
1310.0 3.2169e-07
1330.0 3.3827e-07
1350.0 3.5503e-07
1370.0 3.7234e-07
1390.0 3.8922e-07
1410.0 4.0559e-07
1430.0 4.2271e-07
1450.0 4.3982e-07
1470.0 4.5635e-07
1490.0 4.7307e-07
1510.0 4.9072e-07
1530.0 5.0744e-07
1550.0 5.2393e-07
1570.0 5.4098e-07
1590.0 5.5804e-07
1610.0 5.7434e-07
1630.0 5.9113e-07
1650.0 6.0834e-07
1670.0 6.2498e-07
1690.0 6.4139e-07
1710.0 6.5841e-07
1730.0 6.7549e-07
1750.0 6.9152e-07
1770.0 7.0799e-07
1790.0 7.2476e-07
1810.0 7.4093e-07
1830.0 7.5675e-07
1850.0 7.735e-07
1870.0 7.8973e-07
1890.0 8.053e-07
1910.0 8.211e-07
1930.0 8.3718e-07
1950.0 8.5236e-07
1970.0 8.672e-07
1990.0 8.8248e-07
2010.0 8.9729e-07
2030.0 9.1131e-07
2050.0 9.2559e-07
2070.0 9.4002e-07
2090.0 9.5322e-07
2110.0 9.6607e-07
2130.0 9.7906e-07
2150.0 9.9138e-07
2170.0 1.0026e-06
2190.0 1.014e-06
2210.0 1.0251e-06
2230.0 1.0351e-06
2250.0 1.0444e-06
2270.0 1.054e-06
2290.0 1.0625e-06
2310.0 1.0697e-06
2330.0 1.0769e-06
2350.0 1.0836e-06
2370.0 1.089e-06
2390.0 1.0941e-06
2410.0 1.0995e-06
2430.0 1.1043e-06
2450.0 1.109e-06
2470.0 1.1148e-06
2490.0 1.1225e-06
2510.0 1.1319e-06
2530.0 1.1469e-06
2550.0 1.1738e-06
2570.0 1.218e-06
2590.0 1.2867e-06
2610.0 1.3997e-06
2630.0 1.5606e-06
2650.0 1.7589e-06
2670.0 1.9959e-06
2690.0 2.26e-06
2710.0 2.511e-06
2730.0 2.7297e-06
2750.0 2.9194e-06
2770.0 3.0594e-06
2790.0 3.1494e-06
2810.0 3.2057e-06
2830.0 3.2392e-06
2850.0 3.2503e-06
2870.0 3.2513e-06
2890.0 3.2488e-06
2910.0 3.2434e-06
2930.0 3.2347e-06
2950.0 3.2273e-06
2970.0 3.2209e-06
2990.0 3.213e-06
3010.0 5.7938e-05
3030.0 5.7751e-05
3050.0 5.7563e-05
3070.0 5.7316e-05
3090.0 5.7045e-05
3110.0 5.6687e-05
3130.0 5.6166e-05
3150.0 5.5452e-05
3170.0 5.4486e-05
3190.0 5.3292e-05
3210.0 5.1982e-05
3230.0 5.0676e-05
3250.0 4.9677e-05
3270.0 4.9012e-05
3290.0 4.9043e-05
3310.0 4.949e-05
3330.0 5.068e-05
3350.0 5.2382e-05
3370.0 5.4631e-05
3390.0 5.7357e-05
3410.0 6.0266e-05
3430.0 6.35e-05
3450.0 6.717e-05
3470.0 7.1112e-05
3490.0 7.5215e-05
3510.0 7.9782e-05
3530.0 8.4608e-05
3550.0 8.9336e-05
3570.0 9.4179e-05
3590.0 9.9613e-05
3610.0 0.00010499
3630.0 0.00011078
3650.0 0.00011669
3670.0 0.00012227
3690.0 0.00012657
3710.0 0.00012925
3730.0 0.00013016
3750.0 0.00012922
3770.0 0.00011779
3790.0 0.00010568
3810.0 9.8654e-05
3830.0 8.5131e-05
3850.0 6.135e-05
3870.0 4.7089e-05
3890.0 7.9159e-05
3910.0 0.00012596
3930.0 0.00015251
3950.0 0.00015239
3970.0 0.00015233
3990.0 0.00017867
4010.0 0.00022176
4030.0 0.00022819
4050.0 0.00020542
4070.0 0.00017865
4090.0 0.00016743
4110.0 0.00020089
4130.0 0.00020805
4150.0 0.00019817
4170.0 0.0002046
4190.0 0.00021001
4210.0 0.00020697
4230.0 0.00022468
4250.0 0.00024474
4270.0 0.00024727
4290.0 0.00025112
4310.0 0.00026103
4330.0 0.00028861
4350.0 0.00032918
4370.0 0.00037216
4390.0 0.00035849
4410.0 0.00030055
4430.0 0.00025329
4450.0 0.00021549
4470.0 0.0002109
4490.0 0.00022895
4510.0 0.00025055
4530.0 0.00027412
4550.0 0.0003193
4570.0 0.00038403
4590.0 0.0004701
4610.0 0.00059077
4630.0 0.0007078
4650.0 0.00073241
4670.0 0.00071826
4690.0 0.0007649
4710.0 0.0007994
4730.0 0.0006795
4750.0 0.00049413
4770.0 0.00040553
4790.0 0.00038698
4810.0 0.00035943
4830.0 0.00034083
4850.0 0.00039255
4870.0 0.0005011
4890.0 0.00056853
4910.0 0.00048898
4930.0 0.00043657
4950.0 0.0004912
4970.0 0.00065428
4990.0 0.00083721
5010.0 0.00087743
5030.0 0.00072661
5050.0 0.00047837
5070.0 0.00033098
5090.0 0.00029437
5110.0 0.00030761
5130.0 0.0003299
5150.0 0.00034728
5170.0 0.00034727
5190.0 0.00034133
5210.0 0.0003303
5230.0 0.00033567
5250.0 0.0003574
5270.0 0.00041739
5290.0 0.00048212
5310.0 0.00052394
5330.0 0.00053749
5350.0 0.00054589
5370.0 0.00059281
5390.0 0.00062982
5410.0 0.00061258
5430.0 0.00053631
5450.0 0.00049675
5470.0 0.00056
5490.0 0.00071697
5510.0 0.00090882
5530.0 0.0010018
5550.0 0.00097815
5570.0 0.0008921
5590.0 0.00080284
5610.0 0.00074043
5630.0 0.00070183
5650.0 0.00072054
5670.0 0.00070579
5690.0 0.00066269
5710.0 0.00062451
5730.0 0.00056025
5750.0 0.00041713
5770.0 0.00036578
5790.0 0.00040804
5810.0 0.000492
5830.0 0.00055081
5850.0 0.00059382
5870.0 0.00060727
5890.0 0.00058488
5910.0 0.00056002
5930.0 0.00056362
5950.0 0.00059163
5970.0 0.00061929
5990.0 0.00058816
6010.0 0.00049761
6030.0 0.00041359
6050.0 0.00036078
6070.0 0.00035753
6090.0 0.0004011
6110.0 0.00043733
6130.0 0.00042124
6150.0 0.00039573
6170.0 0.0004381
6190.0 0.0005267
6210.0 0.00063201
6230.0 0.00071244
6250.0 0.00070943
6270.0 0.00064001
6290.0 0.00052979
6310.0 0.00042271
6330.0 0.00033935
6350.0 0.00030779
6370.0 0.00033561
6390.0 0.00039391
6410.0 0.00045144
6430.0 0.0005222
6450.0 0.00060694
6470.0 0.00074989
6490.0 0.00091958
6510.0 0.0010096
6530.0 0.00093857
6550.0 0.00086633
6570.0 0.0008523
6590.0 0.00081902
6610.0 0.00074038
6630.0 0.00066474
6650.0 0.00061452
6670.0 0.00063809
6690.0 0.00063461
6710.0 0.00056262
6730.0 0.00052142
6750.0 0.00046367
6770.0 0.00044638
6790.0 0.00048146
6810.0 0.00050737
6830.0 0.00051977
6850.0 0.00051087
6870.0 0.00048974
6890.0 0.00047981
6910.0 0.00045615
6930.0 0.00043094
6950.0 0.00043343
6970.0 0.00044244
6990.0 0.00049257
7010.0 0.00052412
7030.0 0.00047731
7050.0 0.00044711
7070.0 0.00043007
7090.0 0.00038695
7110.0 0.00036049
7130.0 0.00036693
7150.0 0.00038107
7170.0 0.00040141
7190.0 0.00040204
7210.0 0.00040403
7230.0 0.00042556
7250.0 0.0004901
7270.0 0.0005725
7290.0 0.00061355
7310.0 0.00059446
7330.0 0.00052874
7350.0 0.00047529
7370.0 0.00046739
7390.0 0.00047183
7410.0 0.00048909
7430.0 0.0005355
7450.0 0.00058047
7470.0 0.00064325
7490.0 0.00071077
7510.0 0.00065345
7530.0 0.00062556
7550.0 0.00052538
7570.0 0.00044154
7590.0 0.00036389
7610.0 0.00033402
7630.0 0.0003495
7650.0 0.00039971
7670.0 0.00043544
7690.0 0.00049115
7710.0 0.00054751
7730.0 0.00057257
7750.0 0.00057397
7770.0 0.00057185
7790.0 0.00056348
7810.0 0.00058534
7830.0 0.00056585
7850.0 0.00050487
7870.0 0.00045597
7890.0 0.00042484
7910.0 0.0003832
7930.0 0.00032792
7950.0 0.00030019
7970.0 0.00029845
7990.0 0.00031238
8010.0 0.00033165
8030.0 0.0003365
8050.0 0.00033513
8070.0 0.00032563
8090.0 0.00032414
8110.0 0.00030803
8130.0 0.0002871
8150.0 0.00026992
8170.0 0.00026334
8190.0 0.00026896
8210.0 0.00026968
8230.0 0.00028044
8250.0 0.00027874
8270.0 0.00024915
8290.0 0.00019139
8310.0 0.00013033
8330.0 8.5958e-05
8350.0 6.1014e-05
8370.0 7.2443e-05
8390.0 8.0165e-05
8410.0 0.00010267
8430.0 0.00012441
8450.0 0.00013631
8470.0 0.00014138
8490.0 0.0001452
8510.0 0.00015168
8530.0 0.00016962
8550.0 0.00018741
8570.0 0.0002202
8590.0 0.00027007
8610.0 0.00031626
8630.0 0.00036969
8650.0 0.00041582
8670.0 0.00040968
8690.0 0.00038392
8710.0 0.00036285
8730.0 0.00034294
8750.0 0.00032803
8770.0 0.00031835
8790.0 0.00030846
8810.0 0.00028738
8830.0 0.00025914
8850.0 0.00022439
8870.0 0.00019172
8890.0 0.00017318
8910.0 0.00017515
8930.0 0.00017492
8950.0 0.00018994
8970.0 0.00019435
8990.0 0.0002019
9010.0 0.00020939
9030.0 0.00021106
9050.0 0.00021184
9070.0 0.00021243
9090.0 0.00021287
9110.0 0.00021309
9130.0 0.00021343
9150.0 0.00021392
9170.0 0.0002144
9190.0 0.00021487
9210.0 0.00021561
9230.0 0.00021616
9250.0 0.00021679
9270.0 0.00021746
9290.0 0.00021816
9310.0 0.00021894
9330.0 0.00021976
9350.0 0.0002206
9370.0 0.00022149
9390.0 0.00022244
9410.0 0.00022342
9430.0 0.00022442
9450.0 0.00022549
9470.0 0.0002266
9490.0 0.00022772
9510.0 0.00022889
9530.0 0.00023012
9550.0 0.00023135
9570.0 0.00023262
9590.0 0.00023394
9610.0 0.00023529
9630.0 0.00023665
9650.0 0.00023805
9670.0 0.00023951
9690.0 0.00024097
9710.0 0.00024245
9730.0 0.00024398
9750.0 0.00024553
9770.0 0.00024707
9790.0 0.00024866
9810.0 0.00025028
9830.0 0.0002519
9850.0 0.00025353
9870.0 0.00025521
9890.0 0.00025689
9910.0 0.00025857
9930.0 0.00026028
9950.0 0.00026199
9970.0 0.00026371
9990.0 0.00026543
10010.0 0.00026109
10030.0 0.00026277
10050.0 0.00026442
10070.0 0.00026603
10090.0 0.00026776
10110.0 0.00026944
10130.0 0.00027112
10150.0 0.00027281
10170.0 0.00027447
10190.0 0.0002761
10210.0 0.00027775
10230.0 0.00027939
10250.0 0.00028099
10270.0 0.00028258
10290.0 0.00028418
10310.0 0.00028573
10330.0 0.00028723
10350.0 0.00028875
10370.0 0.00029025
10390.0 0.0002917
10410.0 0.00029311
10430.0 0.00029454
10450.0 0.00029591
10470.0 0.00029723
10490.0 0.00029854
10510.0 0.00029982
10530.0 0.00030101
10550.0 0.00030219
10570.0 0.00030335
10590.0 0.00030445
10610.0 0.00030549
10630.0 0.00030653
10650.0 0.00030751
10670.0 0.0003084
10690.0 0.00030927
10710.0 0.00031011
10730.0 0.00031088
10750.0 0.00031156
10770.0 0.00031225
10790.0 0.00031288
10810.0 0.00031341
10830.0 0.0003139
10850.0 0.00031434
10870.0 0.00031461
10890.0 0.0003147
10910.0 0.00031457
10930.0 0.00031403
10950.0 0.0003128
10970.0 0.00031079
10990.0 0.00030795
11010.0 0.00029755
11030.0 0.00029232
11050.0 0.00028622
11070.0 0.0002791
11090.0 0.00027065
11110.0 0.00026202
11130.0 0.0002531
11150.0 0.00024361
11170.0 0.00023399
11190.0 0.00022487
11210.0 0.0002157
11230.0 0.0002066
11250.0 0.00019823
11270.0 0.00019051
11290.0 0.00018308
11310.0 0.00017634
11330.0 0.00017065
11350.0 0.00016544
11370.0 0.00016075
11390.0 0.00015675
11410.0 0.00015322
11430.0 0.00014982
11450.0 0.0001467
11470.0 0.00014376
11490.0 0.00014074
11510.0 0.0001375
11530.0 0.00013422
11550.0 0.00013075
11570.0 0.00012691
11590.0 0.00012287
11610.0 0.00011878
11630.0 0.00011441
11650.0 0.00010985
11670.0 0.0001055
11690.0 0.00010123
11710.0 9.6979e-05
11730.0 9.2998e-05
11750.0 8.9424e-05
11770.0 8.6019e-05
11790.0 8.2908e-05
11810.0 8.0216e-05
11830.0 7.7828e-05
11850.0 7.5624e-05
11870.0 7.3734e-05
11890.0 7.2089e-05
11910.0 7.0542e-05
11930.0 6.9076e-05
11950.0 6.7704e-05
11970.0 6.6326e-05
11990.0 6.4867e-05
12010.0 6.3387e-05
12030.0 6.1874e-05
12050.0 6.0259e-05
12070.0 5.8563e-05
12090.0 5.6936e-05
12110.0 5.5302e-05
12130.0 5.3681e-05
12150.0 5.2191e-05
12170.0 5.0874e-05
12190.0 4.9682e-05
12210.0 4.8738e-05
12230.0 4.808e-05
12250.0 4.7695e-05
12270.0 4.7619e-05
12290.0 4.7852e-05
12310.0 4.8353e-05
12330.0 4.917e-05
12350.0 5.0251e-05
12370.0 5.1505e-05
12390.0 5.2955e-05
12410.0 5.4644e-05
12430.0 5.6317e-05
12450.0 5.7999e-05
12470.0 5.973e-05
12490.0 6.1393e-05
12510.0 6.2865e-05
12530.0 6.4246e-05
12550.0 6.548e-05
12570.0 6.6455e-05
12590.0 6.7196e-05
12610.0 6.7736e-05
12630.0 6.8017e-05
12650.0 6.8032e-05
12670.0 6.7834e-05
12690.0 6.7414e-05
12710.0 6.6802e-05
12730.0 6.6027e-05
12750.0 6.5066e-05
12770.0 6.3983e-05
12790.0 6.2818e-05
12810.0 6.1545e-05
12830.0 6.0169e-05
12850.0 5.8784e-05
12870.0 5.7359e-05
12890.0 5.5848e-05
12910.0 5.4318e-05
12930.0 5.2798e-05
12950.0 5.12e-05
12970.0 4.9545e-05
12990.0 4.7937e-05
13010.0 4.6313e-05
13030.0 4.4635e-05
13050.0 4.2986e-05
13070.0 4.1408e-05
13090.0 3.9808e-05
13110.0 3.8246e-05
13130.0 3.68e-05
13150.0 3.5436e-05
13170.0 3.4122e-05
13190.0 3.2975e-05
13210.0 3.1993e-05
13230.0 3.1136e-05
13250.0 3.0443e-05
13270.0 2.9939e-05
13290.0 2.9599e-05
13310.0 2.9432e-05
13330.0 2.9441e-05
13350.0 2.9602e-05
13370.0 2.992e-05
13390.0 3.0386e-05
13410.0 3.0925e-05
13430.0 3.156e-05
13450.0 3.2284e-05
13470.0 3.3028e-05
13490.0 3.3764e-05
13510.0 3.455e-05
13530.0 3.5299e-05
13550.0 3.5971e-05
13570.0 3.66e-05
13590.0 3.7178e-05
13610.0 3.7657e-05
13630.0 3.8043e-05
13650.0 3.8368e-05
13670.0 3.8602e-05
13690.0 3.8745e-05
13710.0 3.8815e-05
13730.0 3.8814e-05
13750.0 3.8736e-05
13770.0 3.8596e-05
13790.0 3.8397e-05
13810.0 3.8143e-05
13830.0 3.785e-05
13850.0 3.7506e-05
13870.0 3.7114e-05
13890.0 3.6696e-05
13910.0 3.6248e-05
13930.0 3.5754e-05
13950.0 3.5236e-05
13970.0 3.4721e-05
13990.0 3.4178e-05
14010.0 3.3619e-05
14030.0 3.3076e-05
14050.0 3.2543e-05
14070.0 3.2e-05
14090.0 3.1495e-05
14110.0 3.1035e-05
14130.0 3.0606e-05
14150.0 3.0219e-05
14170.0 2.9904e-05
14190.0 2.9648e-05
14210.0 2.9451e-05
14230.0 2.9328e-05
14250.0 2.9274e-05
14270.0 2.9292e-05
14290.0 2.9385e-05
14310.0 2.9538e-05
14330.0 2.9752e-05
14350.0 3.003e-05
14370.0 3.0352e-05
14390.0 3.0699e-05
14410.0 3.1095e-05
14430.0 3.1519e-05
14450.0 3.1946e-05
14470.0 3.2388e-05
14490.0 3.2864e-05
14510.0 3.3334e-05
14530.0 3.3802e-05
14550.0 3.4305e-05
14570.0 3.4838e-05
14590.0 3.5381e-05
14610.0 3.5977e-05
14630.0 3.6655e-05
14650.0 3.7376e-05
14670.0 3.8156e-05
14690.0 3.9041e-05
14710.0 4.0027e-05
14730.0 4.1032e-05
14750.0 4.2132e-05
14770.0 4.3329e-05
14790.0 4.4548e-05
14810.0 4.5771e-05
14830.0 4.7092e-05
14850.0 4.8385e-05
14870.0 4.9602e-05
14890.0 5.0785e-05
14910.0 5.1916e-05
14930.0 5.2899e-05
14950.0 5.3736e-05
14970.0 5.446e-05
14990.0 5.5011e-05
15010.0 5.5392e-05
15030.0 5.5639e-05
15050.0 5.5765e-05
15070.0 5.5789e-05
15090.0 5.5751e-05
15110.0 5.5668e-05
15130.0 5.556e-05
15150.0 5.5445e-05
15170.0 5.5318e-05
15190.0 5.5187e-05
15210.0 5.506e-05
15230.0 5.4935e-05
15250.0 5.4804e-05
15270.0 5.4675e-05
15290.0 5.4554e-05
15310.0 5.4429e-05
15330.0 5.4302e-05
15350.0 5.4181e-05
15370.0 5.4061e-05
15390.0 5.3932e-05
15410.0 5.3809e-05
15430.0 5.3691e-05
15450.0 5.3568e-05
15470.0 5.3443e-05
15490.0 5.3325e-05
15510.0 5.3207e-05
15530.0 5.3083e-05
15550.0 5.2963e-05
15570.0 5.2847e-05
15590.0 5.2724e-05
15610.0 5.2599e-05
15630.0 5.2482e-05
15650.0 5.2363e-05
15670.0 5.2239e-05
15690.0 5.2119e-05
15710.0 5.2003e-05
15730.0 5.188e-05
15750.0 5.1756e-05
15770.0 5.1638e-05
15790.0 5.1518e-05
15810.0 5.139e-05
15830.0 5.1268e-05
15850.0 5.1149e-05
15870.0 5.1024e-05
15890.0 5.0899e-05
15910.0 5.0779e-05
15930.0 5.0655e-05
15950.0 5.0525e-05
15970.0 5.04e-05
15990.0 5.0277e-05
16010.0 5.0148e-05
16030.0 5.0016e-05
16050.0 4.9893e-05
16070.0 4.9765e-05
16090.0 4.9633e-05
16110.0 4.9504e-05
16130.0 4.9378e-05
16150.0 4.9241e-05
16170.0 4.9106e-05
16190.0 4.8977e-05
16210.0 4.8843e-05
16230.0 4.8704e-05
16250.0 4.8571e-05
16270.0 4.8438e-05
16290.0 4.8298e-05
16310.0 4.8159e-05
16330.0 4.8023e-05
16350.0 4.7884e-05
16370.0 4.7736e-05
16390.0 4.7597e-05
16410.0 4.7457e-05
16430.0 4.7311e-05
16450.0 4.7166e-05
16470.0 4.7026e-05
16490.0 4.6878e-05
16510.0 4.6727e-05
16530.0 4.6581e-05
16550.0 4.6434e-05
16570.0 4.628e-05
16590.0 4.6127e-05
16610.0 4.598e-05
16630.0 4.5826e-05
16650.0 4.567e-05
16670.0 4.5518e-05
16690.0 4.5365e-05
16710.0 4.5202e-05
16730.0 4.5044e-05
16750.0 4.4889e-05
16770.0 4.4728e-05
16790.0 4.4563e-05
16810.0 4.4406e-05
16830.0 4.4245e-05
16850.0 4.4079e-05
16870.0 4.3915e-05
16890.0 4.3754e-05
16910.0 4.3584e-05
16930.0 4.3413e-05
16950.0 4.3248e-05
16970.0 4.3081e-05
16990.0 4.2908e-05
17010.0 4.2737e-05
17030.0 4.2571e-05
17050.0 4.2396e-05
17070.0 4.222e-05
17090.0 4.2049e-05
17110.0 4.1875e-05
17130.0 4.1694e-05
17150.0 4.1518e-05
17170.0 4.1345e-05
17190.0 4.1165e-05
17210.0 4.0984e-05
17230.0 4.0809e-05
17250.0 4.0629e-05
17270.0 4.0443e-05
17290.0 4.0263e-05
17310.0 4.0083e-05
17330.0 3.9897e-05
17350.0 3.971e-05
17370.0 3.953e-05
17390.0 3.9346e-05
17410.0 3.9157e-05
17430.0 3.8973e-05
17450.0 3.879e-05
17470.0 3.8597e-05
17490.0 3.8407e-05
17510.0 3.8222e-05
17530.0 3.8033e-05
17550.0 3.784e-05
17570.0 3.7652e-05
17590.0 3.7465e-05
17610.0 3.7271e-05
17630.0 3.7078e-05
17650.0 3.689e-05
17670.0 3.6698e-05
17690.0 3.6498e-05
17710.0 3.6308e-05
17730.0 3.6118e-05
17750.0 3.5921e-05
17770.0 3.5727e-05
17790.0 3.5538e-05
17810.0 3.5341e-05
17830.0 3.5143e-05
17850.0 3.495e-05
17870.0 3.4756e-05
17890.0 3.4556e-05
17910.0 3.4359e-05
17930.0 3.4168e-05
17950.0 3.3971e-05
17970.0 3.3772e-05
17990.0 3.3579e-05
18010.0 3.3385e-05
18030.0 3.3182e-05
18050.0 3.2986e-05
18070.0 3.2792e-05
18090.0 3.2594e-05
18110.0 3.2394e-05
18130.0 3.2201e-05
18150.0 3.2006e-05
18170.0 3.1805e-05
18190.0 3.1609e-05
18210.0 3.1416e-05
18230.0 3.1216e-05
18250.0 3.1015e-05
18270.0 3.0822e-05
18290.0 3.0627e-05
18310.0 3.0428e-05
18330.0 3.0232e-05
18350.0 3.0041e-05
18370.0 2.9842e-05
18390.0 2.9644e-05
18410.0 2.9451e-05
18430.0 2.9257e-05
18450.0 2.9056e-05
18470.0 2.8862e-05
18490.0 2.8671e-05
18510.0 2.8475e-05
18530.0 2.828e-05
18550.0 2.809e-05
18570.0 2.7896e-05
18590.0 2.7698e-05
18610.0 2.7507e-05
18630.0 2.7316e-05
18650.0 2.7121e-05
18670.0 2.6927e-05
18690.0 2.674e-05
18710.0 2.6549e-05
18730.0 2.6355e-05
18750.0 2.6167e-05
18770.0 2.598e-05
18790.0 2.5785e-05
18810.0 2.5594e-05
18830.0 2.5409e-05
18850.0 2.522e-05
18870.0 2.5029e-05
18890.0 2.4844e-05
18910.0 2.466e-05
18930.0 2.447e-05
18950.0 2.4283e-05
18970.0 2.4101e-05
18990.0 2.3915e-05
19010.0 2.3724e-05
19030.0 2.3544e-05
19050.0 2.3362e-05
19070.0 2.3176e-05
19090.0 2.2994e-05
19110.0 2.2816e-05
19130.0 2.2632e-05
19150.0 2.2448e-05
19170.0 2.227e-05
19190.0 2.2092e-05
19210.0 2.1908e-05
19230.0 2.1729e-05
19250.0 2.1555e-05
19270.0 2.1376e-05
19290.0 2.1197e-05
19310.0 2.1023e-05
19330.0 2.0849e-05
19350.0 2.0668e-05
19370.0 2.0494e-05
19390.0 2.0322e-05
19410.0 2.0147e-05
19430.0 1.9971e-05
19450.0 1.9802e-05
19470.0 1.9632e-05
19490.0 1.9458e-05
19510.0 1.9288e-05
19530.0 1.9121e-05
19550.0 1.8948e-05
19570.0 1.8776e-05
19590.0 1.8611e-05
19610.0 1.8444e-05
19630.0 1.8274e-05
19650.0 1.8109e-05
19670.0 1.7947e-05
19690.0 1.7779e-05
19710.0 1.7612e-05
19730.0 1.7451e-05
19750.0 1.7288e-05
19770.0 1.712e-05
19790.0 1.6959e-05
19810.0 1.6801e-05
19830.0 1.6637e-05
19850.0 1.6475e-05
19870.0 1.6316e-05
19890.0 1.6151e-05
19910.0 1.5977e-05
19930.0 1.58e-05
19950.0 1.5611e-05
19970.0 1.5397e-05
19990.0 1.516e-05
20010.0 1.5135e-05
20030.0 1.4846e-05
20050.0 1.4528e-05
20070.0 1.42e-05
20090.0 1.3863e-05
20110.0 1.35e-05
20130.0 1.3148e-05
20150.0 1.2813e-05
20170.0 1.2478e-05
20190.0 1.2151e-05
20210.0 1.1852e-05
20230.0 1.1569e-05
20250.0 1.1295e-05
20270.0 1.1047e-05
20290.0 1.0826e-05
20310.0 1.0622e-05
20330.0 1.0438e-05
20350.0 1.029e-05
20370.0 1.0163e-05
20390.0 1.006e-05
20410.0 9.9837e-06
20430.0 9.9328e-06
20450.0 9.9043e-06
20470.0 9.9003e-06
20490.0 9.9174e-06
20510.0 9.9545e-06
20530.0 1.0013e-05
20550.0 1.0087e-05
20570.0 1.0172e-05
20590.0 1.0273e-05
20610.0 1.0386e-05
20630.0 1.0503e-05
20650.0 1.0628e-05
20670.0 1.0766e-05
20690.0 1.09e-05
20710.0 1.1034e-05
20730.0 1.1174e-05
20750.0 1.1315e-05
20770.0 1.1449e-05
20790.0 1.1585e-05
20810.0 1.1726e-05
20830.0 1.1863e-05
20850.0 1.1998e-05
20870.0 1.2141e-05
20890.0 1.2287e-05
20910.0 1.2427e-05
20930.0 1.2573e-05
20950.0 1.2726e-05
20970.0 1.2877e-05
20990.0 1.3027e-05
21010.0 1.3186e-05
21030.0 1.3343e-05
21050.0 1.3494e-05
21070.0 1.3645e-05
21090.0 1.3797e-05
21110.0 1.3935e-05
21130.0 1.4063e-05
21150.0 1.4188e-05
21170.0 1.43e-05
21190.0 1.4396e-05
21210.0 1.4483e-05
21230.0 1.4556e-05
21250.0 1.4611e-05
21270.0 1.465e-05
21290.0 1.4674e-05
21310.0 1.4679e-05
21330.0 1.4665e-05
21350.0 1.4633e-05
21370.0 1.4581e-05
21390.0 1.4511e-05
21410.0 1.4422e-05
21430.0 1.4308e-05
21450.0 1.4176e-05
21470.0 1.403e-05
21490.0 1.3863e-05
21510.0 1.3676e-05
21530.0 1.3482e-05
21550.0 1.3276e-05
21570.0 1.3051e-05
21590.0 1.2826e-05
21610.0 1.2602e-05
21630.0 1.2373e-05
21650.0 1.2142e-05
21670.0 1.1933e-05
21690.0 1.1733e-05
21710.0 1.1542e-05
21730.0 1.1374e-05
21750.0 1.1231e-05
21770.0 1.1104e-05
21790.0 1.1004e-05
21810.0 1.0935e-05
21830.0 1.0891e-05
21850.0 1.0875e-05
21870.0 1.0889e-05
21890.0 1.0927e-05
21910.0 1.0994e-05
21930.0 1.1087e-05
21950.0 1.1199e-05
21970.0 1.1335e-05
21990.0 1.1498e-05
22010.0 1.1673e-05
22030.0 1.1859e-05
22050.0 1.2066e-05
22070.0 1.2284e-05
22090.0 1.2499e-05
22110.0 1.2725e-05
22130.0 1.2961e-05
22150.0 1.3188e-05
22170.0 1.341e-05
22190.0 1.3637e-05
22210.0 1.3852e-05
22230.0 1.4046e-05
22250.0 1.423e-05
22270.0 1.4401e-05
22290.0 1.4546e-05
22310.0 1.4669e-05
22330.0 1.4774e-05
22350.0 1.4849e-05
22370.0 1.4896e-05
22390.0 1.4915e-05
22410.0 1.4904e-05
22430.0 1.4863e-05
22450.0 1.4794e-05
22470.0 1.4692e-05
22490.0 1.4561e-05
22510.0 1.4407e-05
22530.0 1.4219e-05
22550.0 1.3999e-05
22570.0 1.3763e-05
22590.0 1.3505e-05
22610.0 1.3216e-05
22630.0 1.291e-05
