#lamb flux
1010.0 1.2009e-05
1030.0 1.3003e-05
1050.0 1.4408e-05
1070.0 1.5988e-05
1090.0 1.7712e-05
1110.0 1.9495e-05
1130.0 2.13e-05
1150.0 2.3196e-05
1170.0 2.515e-05
1190.0 2.6989e-05
1210.0 2.883e-05
1230.0 3.0699e-05
1250.0 3.2502e-05
1270.0 3.42e-05
1290.0 3.5942e-05
1310.0 3.7621e-05
1330.0 3.9164e-05
1350.0 4.0675e-05
1370.0 4.22e-05
1390.0 4.3646e-05
1410.0 4.5022e-05
1430.0 4.6473e-05
1450.0 4.7936e-05
1470.0 4.9368e-05
1490.0 5.0862e-05
1510.0 5.2508e-05
1530.0 5.4128e-05
1550.0 5.5805e-05
1570.0 5.7627e-05
1590.0 5.9546e-05
1610.0 6.1495e-05
1630.0 6.3626e-05
1650.0 6.5912e-05
1670.0 6.8248e-05
1690.0 7.0664e-05
1710.0 7.3246e-05
1730.0 7.5927e-05
1750.0 7.8569e-05
1770.0 8.1319e-05
1790.0 8.4144e-05
1810.0 8.6919e-05
1830.0 8.9645e-05
1850.0 9.2443e-05
1870.0 9.5115e-05
1890.0 9.7616e-05
1910.0 0.00010002
1930.0 0.00010231
1950.0 0.00010431
1970.0 0.00010608
1990.0 0.0001077
2010.0 0.00010904
2030.0 0.00011008
2050.0 0.00011093
2070.0 0.0001116
2090.0 0.00011194
2110.0 0.00011209
2130.0 0.00011211
2150.0 0.00011197
2170.0 0.00011163
2190.0 0.00011128
2210.0 0.00011089
2230.0 0.00011042
2250.0 0.00010995
2270.0 0.00010959
2290.0 0.00010924
2310.0 0.0001089
2330.0 0.00010872
2350.0 0.00010865
2370.0 0.00010866
2390.0 0.00010883
2410.0 0.00010924
2430.0 0.00010979
2450.0 0.00011053
2470.0 0.00011156
2490.0 0.00011292
2510.0 0.00011453
2530.0 0.00011674
2550.0 0.00011999
2570.0 0.00012476
2590.0 0.00013167
2610.0 0.00014248
2630.0 0.00015772
2650.0 0.00017683
2670.0 0.00020021
2690.0 0.00022723
2710.0 0.00025432
2730.0 0.00027947
2750.0 0.00030236
2770.0 0.00032028
2790.0 0.00033255
2810.0 0.00034016
2830.0 0.0003436
2850.0 0.00034404
2870.0 0.00034288
2890.0 0.00034074
2910.0 0.00033844
2930.0 0.00033669
2950.0 0.0003352
2970.0 0.00033417
2990.0 0.00033403
3010.0 0.00044793
3030.0 0.00044931
3050.0 0.00045153
3070.0 0.00045486
3090.0 0.00045838
3110.0 0.00046184
3130.0 0.00046515
3150.0 0.00046958
3170.0 0.00047149
3190.0 0.00054474
3210.0 0.00086448
3230.0 0.0013787
3250.0 0.0016341
3270.0 0.0014683
3290.0 0.0011801
3310.0 0.0010253
3330.0 0.00097079
3350.0 0.00097905
3370.0 0.0010054
3390.0 0.0010361
3410.0 0.0010642
3430.0 0.0010664
3450.0 0.0010834
3470.0 0.0011069
3490.0 0.0011828
3510.0 0.0013255
3530.0 0.0014934
3550.0 0.0017939
3570.0 0.0021597
3590.0 0.0023529
3610.0 0.0023934
3630.0 0.0024
3650.0 0.0024291
3670.0 0.0026409
3690.0 0.0031402
3710.0 0.0036837
3730.0 0.0040623
3750.0 0.0043567
3770.0 0.0043722
3790.0 0.0041476
3810.0 0.0038293
3830.0 0.0033985
3850.0 0.0030517
3870.0 0.0029142
3890.0 0.0032386
3910.0 0.0038667
3930.0 0.0045066
3950.0 0.005018
3970.0 0.0052843
3990.0 0.0053381
4010.0 0.0052638
4030.0 0.0047115
4050.0 0.0039228
4070.0 0.0035039
4090.0 0.0035479
4110.0 0.003809
4130.0 0.0039347
4150.0 0.0039587
4170.0 0.0039481
4190.0 0.0040022
4210.0 0.0040332
4230.0 0.0041711
4250.0 0.0042954
4270.0 0.0044047
4290.0 0.004455
4310.0 0.0045428
4330.0 0.0046523
4350.0 0.0047155
4370.0 0.0045576
4390.0 0.0041815
4410.0 0.0036798
4430.0 0.0032093
4450.0 0.0029324
4470.0 0.0029538
4490.0 0.0031876
4510.0 0.0035802
4530.0 0.0041774
4550.0 0.0051
4570.0 0.0061848
4590.0 0.0074416
4610.0 0.0086888
4630.0 0.0094528
4650.0 0.009683
4670.0 0.009544
4690.0 0.0088904
4710.0 0.0077706
4730.0 0.0064995
4750.0 0.005444
4770.0 0.0047738
4790.0 0.0046383
4810.0 0.0047854
4830.0 0.0050408
4850.0 0.0053988
4870.0 0.0058254
4890.0 0.0060764
4910.0 0.0063141
4930.0 0.0067861
4950.0 0.0072956
4970.0 0.0074327
4990.0 0.0070646
5010.0 0.0063111
5030.0 0.0053995
5050.0 0.0046791
5070.0 0.004237
5090.0 0.0040236
5110.0 0.0040055
5130.0 0.0040271
5150.0 0.0040188
5170.0 0.0040644
5190.0 0.0042683
5210.0 0.0046887
5230.0 0.0052305
5250.0 0.0059203
5270.0 0.0066442
5290.0 0.0071936
5310.0 0.0076045
5330.0 0.0079871
5350.0 0.0081892
5370.0 0.0080866
5390.0 0.007887
5410.0 0.0078663
5430.0 0.008235
5450.0 0.0090089
5470.0 0.0098508
5490.0 0.01036
5510.0 0.010463
5530.0 0.010319
5550.0 0.010036
5570.0 0.0096687
5590.0 0.0093198
5610.0 0.0090288
5630.0 0.0087963
5650.0 0.0084552
5670.0 0.0078743
5690.0 0.0072334
5710.0 0.0067182
5730.0 0.0062988
5750.0 0.0061189
5770.0 0.0061922
5790.0 0.0063015
5810.0 0.0063069
5830.0 0.0062803
5850.0 0.0061878
5870.0 0.0059996
5890.0 0.0059013
5910.0 0.0058702
5930.0 0.0056462
5950.0 0.0051999
5970.0 0.0046344
5990.0 0.0040747
6010.0 0.0036846
6030.0 0.0035443
6050.0 0.0036478
6070.0 0.0038129
6090.0 0.0037967
6110.0 0.003697
6130.0 0.0037353
6150.0 0.0039074
6170.0 0.0040722
6190.0 0.0041578
6210.0 0.0041513
6230.0 0.0039844
6250.0 0.0036462
6270.0 0.0032357
6290.0 0.0029063
6310.0 0.0028248
6330.0 0.0029709
6350.0 0.0031814
6370.0 0.003394
6390.0 0.0037318
6410.0 0.0042063
6430.0 0.0045838
6450.0 0.0047805
6470.0 0.0049138
6490.0 0.0050266
6510.0 0.0050778
6530.0 0.0051025
6550.0 0.0051687
6570.0 0.0052026
6590.0 0.0051795
6610.0 0.0050683
6630.0 0.0048489
6650.0 0.0045411
6670.0 0.004238
6690.0 0.004038
6710.0 0.0038894
6730.0 0.0037246
6750.0 0.0036334
6770.0 0.0036924
6790.0 0.003777
6810.0 0.0037795
6830.0 0.0037142
6850.0 0.0036207
6870.0 0.0035272
6890.0 0.0034474
6910.0 0.0034515
6930.0 0.0034827
6950.0 0.0034855
6970.0 0.0034829
6990.0 0.003443
7010.0 0.0033399
7030.0 0.0031493
7050.0 0.0028863
7070.0 0.002683
7090.0 0.0026603
7110.0 0.0027255
7130.0 0.002692
7150.0 0.0025893
7170.0 0.0026033
7190.0 0.0027772
7210.0 0.0029808
7230.0 0.0031408
7250.0 0.0032263
7270.0 0.0031675
7290.0 0.0030385
7310.0 0.002957
7330.0 0.0029946
7350.0 0.0030893
7370.0 0.0031568
7390.0 0.0032683
7410.0 0.0034694
7430.0 0.0036683
7450.0 0.0038015
7470.0 0.0038244
7490.0 0.0036442
7510.0 0.0034156
7530.0 0.0033244
7550.0 0.0032013
7570.0 0.0030729
7590.0 0.0030203
7610.0 0.0030242
7630.0 0.0031012
7650.0 0.0032894
7670.0 0.0035362
7690.0 0.0037665
7710.0 0.0039289
7730.0 0.004067
7750.0 0.0041873
7770.0 0.0042707
7790.0 0.0043528
7810.0 0.0043686
7830.0 0.0042407
7850.0 0.0040914
7870.0 0.0039921
7890.0 0.0039515
7910.0 0.0039508
7930.0 0.0038717
7950.0 0.0037654
7970.0 0.0036424
7990.0 0.0035489
8010.0 0.0033573
8030.0 0.0033589
8050.0 0.0033511
8070.0 0.0033103
8090.0 0.0032793
8110.0 0.0032464
8130.0 0.0032526
8150.0 0.0032335
8170.0 0.003187
8190.0 0.0030976
8210.0 0.0029746
8230.0 0.0028633
8250.0 0.0028226
8270.0 0.0026818
8290.0 0.0023771
8310.0 0.0020435
8330.0 0.0018179
8350.0 0.0017524
8370.0 0.0018942
8390.0 0.0021222
8410.0 0.002267
8430.0 0.0023743
8450.0 0.0025478
8470.0 0.0027421
8490.0 0.0029881
8510.0 0.0032619
8530.0 0.0035406
8550.0 0.0037603
8570.0 0.0039229
8590.0 0.0040461
8610.0 0.0041281
8630.0 0.0041265
8650.0 0.0040569
8670.0 0.0040663
8690.0 0.0042601
8710.0 0.0045205
8730.0 0.0046348
8750.0 0.0045937
8770.0 0.0046301
8790.0 0.0046339
8810.0 0.0044586
8830.0 0.0041353
8850.0 0.0037321
8870.0 0.0034303
8890.0 0.0033343
8910.0 0.0032578
8930.0 0.0030458
8950.0 0.0028277
8970.0 0.0027437
8990.0 0.002762
9010.0 0.0027319
9030.0 0.0026894
9050.0 0.0026652
9070.0 0.0026514
9090.0 0.0026391
9110.0 0.0026271
9130.0 0.0026152
9150.0 0.0026035
9170.0 0.0025915
9190.0 0.0025811
9210.0 0.0025732
9230.0 0.0025603
9250.0 0.0025483
9270.0 0.0025368
9290.0 0.0025258
9310.0 0.0025149
9330.0 0.0025043
9350.0 0.002494
9370.0 0.0024838
9390.0 0.0024737
9410.0 0.0024637
9430.0 0.0024533
9450.0 0.00244
9470.0 0.0024279
9490.0 0.0024216
9510.0 0.0024137
9530.0 0.0024057
9550.0 0.002397
9570.0 0.0023882
9590.0 0.0023795
9610.0 0.0023708
9630.0 0.002362
9650.0 0.0023533
9670.0 0.0023449
9690.0 0.0023363
9710.0 0.0023278
9730.0 0.0023195
9750.0 0.0023113
9770.0 0.0023027
9790.0 0.0022945
9810.0 0.0022864
9830.0 0.0022782
9850.0 0.0022698
9870.0 0.0022619
9890.0 0.0022539
9910.0 0.0022457
9930.0 0.0022376
9950.0 0.0022238
9970.0 0.0022173
9990.0 0.0022103
10010.0 0.0022034
10030.0 0.002196
10050.0 0.0021881
10070.0 0.0021802
10090.0 0.0021724
10110.0 0.0021633
10130.0 0.0021516
10150.0 0.0021439
10170.0 0.0021365
10190.0 0.0021281
10210.0 0.00212
10230.0 0.0021119
10250.0 0.0021028
10270.0 0.0020937
10290.0 0.002085
10310.0 0.0020756
10330.0 0.0020655
10350.0 0.0020561
10370.0 0.0020467
10390.0 0.0020364
10410.0 0.0020261
10430.0 0.0020165
10450.0 0.0020061
10470.0 0.0019951
10490.0 0.0019846
10510.0 0.001974
10530.0 0.0019622
10550.0 0.0019506
10570.0 0.0019396
10590.0 0.0019278
10610.0 0.0019154
10630.0 0.0019036
10650.0 0.0018916
10670.0 0.0018784
10690.0 0.0018654
10710.0 0.0018528
10730.0 0.0018393
10750.0 0.0018249
10770.0 0.0018116
10790.0 0.0017978
10810.0 0.0017831
10830.0 0.0017686
10850.0 0.0017545
10870.0 0.0017389
10890.0 0.0017231
10910.0 0.0017079
10930.0 0.0016921
10950.0 0.0016754
10970.0 0.0016589
10990.0 0.001643
11010.0 0.0017201
11030.0 0.0017024
11050.0 0.0016855
11070.0 0.0016685
11090.0 0.0016504
11110.0 0.0016337
11130.0 0.0016175
11150.0 0.0016008
11170.0 0.0015843
11190.0 0.001569
11210.0 0.0015534
11230.0 0.0015378
11250.0 0.001523
11270.0 0.0015089
11290.0 0.0014946
11310.0 0.0014807
11330.0 0.001468
11350.0 0.0014552
11370.0 0.0014424
11390.0 0.0014301
11410.0 0.0014179
11430.0 0.0014047
11450.0 0.0013914
11470.0 0.0013779
11490.0 0.0013633
11510.0 0.0013473
11530.0 0.0013311
11550.0 0.0013141
11570.0 0.0012954
11590.0 0.0012759
11610.0 0.0012563
11630.0 0.0012351
11650.0 0.0012128
11670.0 0.001191
11690.0 0.0011687
11710.0 0.0011454
11730.0 0.0011221
11750.0 0.0010995
11770.0 0.001076
11790.0 0.0010521
11810.0 0.0010288
11830.0 0.0010056
11850.0 0.00098116
11870.0 0.00095749
11890.0 0.00093465
11910.0 0.00091136
11930.0 0.00088814
11950.0 0.00086617
11970.0 0.00084452
11990.0 0.00082273
12010.0 0.00080223
12030.0 0.00078297
12050.0 0.00076414
12070.0 0.00074605
12090.0 0.00073001
12110.0 0.0007149
12130.0 0.00070069
12150.0 0.00068807
12170.0 0.00067704
12190.0 0.00066694
12210.0 0.00065846
12230.0 0.00065168
12250.0 0.00064632
12270.0 0.00064244
12290.0 0.00064008
12310.0 0.00063902
12330.0 0.00063932
12350.0 0.00064081
12370.0 0.00064314
12390.0 0.00064636
12410.0 0.00065065
12430.0 0.00065506
12450.0 0.00065969
12470.0 0.00066477
12490.0 0.00066987
12510.0 0.0006745
12530.0 0.00067915
12550.0 0.00068363
12570.0 0.00068739
12590.0 0.00069051
12610.0 0.0006932
12630.0 0.00069502
12650.0 0.00069567
12670.0 0.00069546
12690.0 0.0006942
12710.0 0.00069173
12730.0 0.00068814
12750.0 0.00068334
12770.0 0.00067737
12790.0 0.00067042
12810.0 0.00066243
12830.0 0.0006534
12850.0 0.00064393
12870.0 0.00063396
12890.0 0.00062334
12910.0 0.00061258
12930.0 0.00060199
12950.0 0.00059114
12970.0 0.00058027
12990.0 0.00057002
13010.0 0.00056003
13030.0 0.00055013
13050.0 0.00054069
13070.0 0.00053183
13090.0 0.00052305
13110.0 0.00051457
13130.0 0.00050661
13150.0 0.00049895
13170.0 0.00049135
13190.0 0.00048423
13210.0 0.00047755
13230.0 0.000471
13250.0 0.00046471
13270.0 0.00045885
13290.0 0.00045318
13310.0 0.00044762
13330.0 0.00044238
13350.0 0.00043741
13370.0 0.00043251
13390.0 0.00042773
13410.0 0.00042325
13430.0 0.00041885
13450.0 0.00041447
13470.0 0.00041025
13490.0 0.00040617
13510.0 0.00040199
13530.0 0.00039788
13550.0 0.00039391
13570.0 0.00038993
13590.0 0.0003859
13610.0 0.00038196
13630.0 0.00037811
13650.0 0.00037416
13670.0 0.00037024
13690.0 0.00036645
13710.0 0.00036265
13730.0 0.00035876
13750.0 0.00035507
13770.0 0.00035145
13790.0 0.0003478
13810.0 0.00034424
13830.0 0.00034087
13850.0 0.00033748
13870.0 0.00033414
13890.0 0.00033099
13910.0 0.00032795
13930.0 0.00032491
13950.0 0.000322
13970.0 0.0003193
13990.0 0.00031662
14010.0 0.00031398
14030.0 0.00031148
14050.0 0.00030904
14070.0 0.00030653
14090.0 0.00030411
14110.0 0.00030176
14130.0 0.00029937
14150.0 0.00029696
14170.0 0.00029467
14190.0 0.00029243
14210.0 0.00029017
14230.0 0.00028802
14250.0 0.00028602
14270.0 0.00028407
14290.0 0.00028222
14310.0 0.00028061
14330.0 0.00027913
14350.0 0.00027776
14370.0 0.00027657
14390.0 0.00027555
14410.0 0.00027462
14430.0 0.00027379
14450.0 0.00027307
14470.0 0.00027243
14490.0 0.00027179
14510.0 0.00027122
14530.0 0.0002707
14550.0 0.00027016
14570.0 0.00026964
14590.0 0.00026917
14610.0 0.00026873
14630.0 0.00026834
14650.0 0.00026808
14670.0 0.00026798
14690.0 0.00026808
14710.0 0.00026848
14730.0 0.00026923
14750.0 0.0002704
14770.0 0.00027211
14790.0 0.00027438
14810.0 0.00027722
14830.0 0.00028095
14850.0 0.00028542
14870.0 0.00029046
14890.0 0.00029625
14910.0 0.00030275
14930.0 0.00030938
14950.0 0.00031594
14970.0 0.00032249
14990.0 0.00032839
15010.0 0.00033338
15030.0 0.00033757
15050.0 0.00034096
15070.0 0.00034346
15090.0 0.00034542
15110.0 0.00034703
15130.0 0.00034839
15150.0 0.00034963
15170.0 0.00035082
15190.0 0.00035201
15210.0 0.0003532
15230.0 0.00035442
15250.0 0.00035566
15270.0 0.00035693
15290.0 0.00035822
15310.0 0.00035953
15330.0 0.00036087
15350.0 0.00036223
15370.0 0.00036362
15390.0 0.00036503
15410.0 0.00036646
15430.0 0.00036792
15450.0 0.0003694
15470.0 0.0003709
15490.0 0.00037242
15510.0 0.00037397
15530.0 0.00037553
15550.0 0.00037712
15570.0 0.00037873
15590.0 0.00038035
15610.0 0.000382
15630.0 0.00038366
15650.0 0.00038535
15670.0 0.00038705
15690.0 0.00038877
15710.0 0.0003905
15730.0 0.00039226
15750.0 0.00039403
15770.0 0.00039581
15790.0 0.00039762
15810.0 0.00039943
15830.0 0.00040126
15850.0 0.00040311
15870.0 0.00040497
15890.0 0.00040684
15910.0 0.00040872
15930.0 0.00041062
15950.0 0.00041252
15970.0 0.00041444
15990.0 0.00041636
16010.0 0.0004183
16030.0 0.00042024
16050.0 0.0004222
16070.0 0.00042416
16090.0 0.00042612
16110.0 0.0004281
16130.0 0.00043008
16150.0 0.00043206
16170.0 0.00043404
16190.0 0.00043604
16210.0 0.00043803
16230.0 0.00044003
16250.0 0.00044202
16270.0 0.00044402
16290.0 0.00044602
16310.0 0.00044802
16330.0 0.00045001
16350.0 0.00045201
16370.0 0.000454
16390.0 0.00045599
16410.0 0.00045797
16430.0 0.00045995
16450.0 0.00046192
16470.0 0.00046388
16490.0 0.00046584
16510.0 0.00046779
16530.0 0.00046973
16550.0 0.00047166
16570.0 0.00047358
16590.0 0.00047549
16610.0 0.00047739
16630.0 0.00047927
16650.0 0.00048114
16670.0 0.000483
16690.0 0.00048484
16710.0 0.00048666
16730.0 0.00048847
16750.0 0.00049026
16770.0 0.00049203
16790.0 0.00049378
16810.0 0.00049552
16830.0 0.00049723
16850.0 0.00049892
16870.0 0.00050059
16890.0 0.00050224
16910.0 0.00050386
16930.0 0.00050546
16950.0 0.00050703
16970.0 0.00050858
16990.0 0.0005101
17010.0 0.0005116
17030.0 0.00051307
17050.0 0.0005145
17070.0 0.00051591
17090.0 0.00051729
17110.0 0.00051864
17130.0 0.00051996
17150.0 0.00052125
17170.0 0.0005225
17190.0 0.00052373
17210.0 0.00052491
17230.0 0.00052607
17250.0 0.00052719
17270.0 0.00052828
17290.0 0.00052933
17310.0 0.00053034
17330.0 0.00053132
17350.0 0.00053226
17370.0 0.00053316
17390.0 0.00053403
17410.0 0.00053485
17430.0 0.00053564
17450.0 0.00053639
17470.0 0.0005371
17490.0 0.00053777
17510.0 0.0005384
17530.0 0.00053899
17550.0 0.00053953
17570.0 0.00054004
17590.0 0.00054051
17610.0 0.00054093
17630.0 0.00054131
17650.0 0.00054166
17670.0 0.00054195
17690.0 0.00054221
17710.0 0.00054242
17730.0 0.00054259
17750.0 0.00054272
17770.0 0.0005428
17790.0 0.00054285
17810.0 0.00054285
17830.0 0.0005428
17850.0 0.00054272
17870.0 0.00054259
17890.0 0.00054241
17910.0 0.00054219
17930.0 0.00054194
17950.0 0.00054164
17970.0 0.00054129
17990.0 0.00054091
18010.0 0.00054048
18030.0 0.00054
18050.0 0.00053949
18070.0 0.00053893
18090.0 0.00053834
18110.0 0.0005377
18130.0 0.00053702
18150.0 0.0005363
18170.0 0.00053553
18190.0 0.00053473
18210.0 0.00053389
18230.0 0.00053301
18250.0 0.00053208
18270.0 0.00053112
18290.0 0.00053012
18310.0 0.00052908
18330.0 0.00052801
18350.0 0.00052689
18370.0 0.00052574
18390.0 0.00052455
18410.0 0.00052333
18430.0 0.00052207
18450.0 0.00052077
18470.0 0.00051944
18490.0 0.00051808
18510.0 0.00051668
18530.0 0.00051524
18550.0 0.00051378
18570.0 0.00051228
18590.0 0.00051075
18610.0 0.00050919
18630.0 0.00050759
18650.0 0.00050597
18670.0 0.00050432
18690.0 0.00050264
18710.0 0.00050093
18730.0 0.00049919
18750.0 0.00049742
18770.0 0.00049563
18790.0 0.00049381
18810.0 0.00049196
18830.0 0.00049009
18850.0 0.0004882
18870.0 0.00048628
18890.0 0.00048434
18910.0 0.00048237
18930.0 0.00048039
18950.0 0.00047838
18970.0 0.00047635
18990.0 0.0004743
19010.0 0.00047223
19030.0 0.00047014
19050.0 0.00046804
19070.0 0.00046591
19090.0 0.00046377
19110.0 0.00046161
19130.0 0.00045944
19150.0 0.00045725
19170.0 0.00045504
19190.0 0.00045283
19210.0 0.00045059
19230.0 0.00044835
19250.0 0.00044609
19270.0 0.00044382
19290.0 0.00044154
19310.0 0.00043925
19330.0 0.00043695
19350.0 0.00043463
19370.0 0.00043231
19390.0 0.00042998
19410.0 0.00042765
19430.0 0.0004253
19450.0 0.00042295
19470.0 0.00042059
19490.0 0.00041823
19510.0 0.00041586
19530.0 0.00041349
19550.0 0.00041111
19570.0 0.00040873
19590.0 0.00040635
19610.0 0.00040396
19630.0 0.00040157
19650.0 0.00039918
19670.0 0.00039679
19690.0 0.00039439
19710.0 0.000392
19730.0 0.0003896
19750.0 0.00038721
19770.0 0.00038482
19790.0 0.00038242
19810.0 0.00038003
19830.0 0.00037763
19850.0 0.00037522
19870.0 0.00037278
19890.0 0.00037027
19910.0 0.00036763
19930.0 0.00036478
19950.0 0.00036164
19970.0 0.00035802
19990.0 0.00035384
20010.0 0.00034917
20030.0 0.00034383
20050.0 0.00033786
20070.0 0.00033155
20090.0 0.00032496
20110.0 0.00031789
20130.0 0.00031088
20150.0 0.00030406
20170.0 0.00029719
20190.0 0.00029037
20210.0 0.00028392
20230.0 0.00027767
20250.0 0.00027145
20270.0 0.00026557
20290.0 0.00026005
20310.0 0.00025469
20330.0 0.0002495
20350.0 0.00024483
20370.0 0.0002404
20390.0 0.00023618
20410.0 0.00023231
20430.0 0.00022877
20450.0 0.00022541
20470.0 0.00022232
20490.0 0.00021954
20510.0 0.00021697
20530.0 0.00021459
20550.0 0.00021243
20570.0 0.00021046
20590.0 0.00020863
20610.0 0.00020693
20630.0 0.00020534
20650.0 0.00020384
20670.0 0.0002024
20690.0 0.000201
20710.0 0.00019963
20730.0 0.00019826
20750.0 0.00019688
20770.0 0.00019547
20790.0 0.00019402
20810.0 0.00019251
20830.0 0.00019093
20850.0 0.0001893
20870.0 0.00018757
20890.0 0.00018576
20910.0 0.0001839
20930.0 0.00018196
20950.0 0.00017994
20970.0 0.00017789
20990.0 0.00017579
21010.0 0.00017361
21030.0 0.00017142
21050.0 0.00016923
21070.0 0.00016701
21090.0 0.00016474
21110.0 0.00016254
21130.0 0.00016036
21150.0 0.00015816
21170.0 0.00015601
21190.0 0.00015392
21210.0 0.00015183
21230.0 0.00014976
21250.0 0.00014778
21270.0 0.00014586
21290.0 0.00014395
21310.0 0.00014211
21330.0 0.00014036
21350.0 0.00013864
21370.0 0.00013697
21390.0 0.00013539
21410.0 0.00013387
21430.0 0.00013238
21450.0 0.00013098
21470.0 0.00012966
21490.0 0.00012839
21510.0 0.00012718
21530.0 0.00012604
21550.0 0.00012495
21570.0 0.00012391
21590.0 0.00012292
21610.0 0.00012198
21630.0 0.00012107
21650.0 0.0001202
21670.0 0.00011935
21690.0 0.00011853
21710.0 0.00011773
21730.0 0.00011694
21750.0 0.00011617
21770.0 0.00011541
21790.0 0.00011466
21810.0 0.00011391
21830.0 0.00011317
21850.0 0.00011244
21870.0 0.00011172
21890.0 0.000111
21910.0 0.00011029
21930.0 0.00010958
21950.0 0.00010887
21970.0 0.00010817
21990.0 0.00010747
22010.0 0.00010676
22030.0 0.00010606
22050.0 0.00010534
22070.0 0.00010462
22090.0 0.00010389
22110.0 0.00010315
22130.0 0.00010239
22150.0 0.00010162
22170.0 0.00010083
22190.0 0.00010002
22210.0 9.9191e-05
22230.0 9.8356e-05
22250.0 9.7498e-05
22270.0 9.6613e-05
22290.0 9.5721e-05
22310.0 9.4814e-05
22330.0 9.3868e-05
22350.0 9.2907e-05
22370.0 9.1938e-05
22390.0 9.0936e-05
22410.0 8.9891e-05
22430.0 8.8848e-05
22450.0 8.7785e-05
22470.0 8.6673e-05
22490.0 8.5542e-05
22510.0 8.4412e-05
22530.0 8.323e-05
22550.0 8.2012e-05
22570.0 8.0811e-05
22590.0 7.9598e-05
22610.0 7.8349e-05
22630.0 7.7107e-05
22650.0 7.5904e-05
22670.0 7.4679e-05
22690.0 7.3458e-05
22710.0 7.2288e-05
22730.0 7.1144e-05
22750.0 6.9986e-05
22770.0 6.8895e-05
22790.0 6.7864e-05
22810.0 6.6853e-05
22830.0 6.588e-05
22850.0 6.498e-05
22870.0 6.4117e-05
22890.0 6.3278e-05
22910.0 6.25e-05
22930.0 6.1773e-05
22950.0 6.1071e-05
22970.0 6.0398e-05
22990.0 5.9785e-05
23010.0 5.9194e-05
23030.0 5.8621e-05
23050.0 5.8079e-05
23070.0 5.7566e-05
