#lamb flux
1010.0 4.6544e-06
1030.0 5.0771e-06
1050.0 5.5635e-06
1070.0 6.1111e-06
1090.0 6.7332e-06
1110.0 7.3715e-06
1130.0 8.0141e-06
1150.0 8.6875e-06
1170.0 9.3824e-06
1190.0 1.0042e-05
1210.0 1.071e-05
1230.0 1.1402e-05
1250.0 1.2079e-05
1270.0 1.2738e-05
1290.0 1.3434e-05
1310.0 1.413e-05
1330.0 1.4799e-05
1350.0 1.5475e-05
1370.0 1.6174e-05
1390.0 1.6856e-05
1410.0 1.7518e-05
1430.0 1.8211e-05
1450.0 1.8904e-05
1470.0 1.9575e-05
1490.0 2.0254e-05
1510.0 2.0971e-05
1530.0 2.1651e-05
1550.0 2.2322e-05
1570.0 2.3017e-05
1590.0 2.3712e-05
1610.0 2.4377e-05
1630.0 2.5062e-05
1650.0 2.5764e-05
1670.0 2.6443e-05
1690.0 2.7113e-05
1710.0 2.7808e-05
1730.0 2.8505e-05
1750.0 2.9159e-05
1770.0 2.983e-05
1790.0 3.0514e-05
1810.0 3.1172e-05
1830.0 3.1816e-05
1850.0 3.2496e-05
1870.0 3.3155e-05
1890.0 3.3787e-05
1910.0 3.4427e-05
1930.0 3.5078e-05
1950.0 3.5692e-05
1970.0 3.6292e-05
1990.0 3.6909e-05
2010.0 3.7508e-05
2030.0 3.8074e-05
2050.0 3.8652e-05
2070.0 3.9236e-05
2090.0 3.9772e-05
2110.0 4.0295e-05
2130.0 4.0826e-05
2150.0 4.1332e-05
2170.0 4.1797e-05
2190.0 4.2273e-05
2210.0 4.2738e-05
2230.0 4.3163e-05
2250.0 4.3569e-05
2270.0 4.3987e-05
2290.0 4.4368e-05
2310.0 4.4707e-05
2330.0 4.5047e-05
2350.0 4.5373e-05
2370.0 4.5657e-05
2390.0 4.5929e-05
2410.0 4.6216e-05
2430.0 4.6475e-05
2450.0 4.6719e-05
2470.0 4.6998e-05
2490.0 4.7341e-05
2510.0 4.7766e-05
2530.0 4.8469e-05
2550.0 4.9764e-05
2570.0 5.1962e-05
2590.0 5.5423e-05
2610.0 6.1105e-05
2630.0 6.9187e-05
2650.0 7.9164e-05
2670.0 9.109e-05
2690.0 0.00010445
2710.0 0.00011732
2730.0 0.0001288
2750.0 0.0001391
2770.0 0.00014722
2790.0 0.00015314
2810.0 0.00015768
2830.0 0.00016143
2850.0 0.00016427
2870.0 0.00016678
2890.0 0.00016935
2910.0 0.00017189
2930.0 0.00017423
2950.0 0.00017675
2970.0 0.00017937
2990.0 0.00018185
3010.0 0.0014476
3030.0 0.0014678
3050.0 0.0014872
3070.0 0.001503
3090.0 0.001516
3110.0 0.001522
3130.0 0.001516
3150.0 0.0014942
3170.0 0.0014497
3190.0 0.0013822
3210.0 0.0012959
3230.0 0.0012016
3250.0 0.0012466
3270.0 0.0011606
3290.0 0.0013181
3310.0 0.0011551
3330.0 0.0011734
3350.0 0.0012242
3370.0 0.0012893
3390.0 0.001365
3410.0 0.0014427
3430.0 0.0015253
3450.0 0.0016126
3470.0 0.0016983
3490.0 0.0017753
3510.0 0.0019018
3530.0 0.002079
3550.0 0.0021262
3570.0 0.0021039
3590.0 0.0023218
3610.0 0.0022109
3630.0 0.0025211
3650.0 0.0027013
3670.0 0.0029458
3690.0 0.0029099
3710.0 0.0026405
3730.0 0.0027735
3750.0 0.0027807
3770.0 0.0029642
3790.0 0.0031566
3810.0 0.0035759
3830.0 0.0047085
3850.0 0.0058088
3870.0 0.0068104
3890.0 0.0072102
3910.0 0.0071548
3930.0 0.0072971
3950.0 0.007592
3970.0 0.0067928
3990.0 0.0042733
4010.0 0.0032658
4030.0 0.004951
4050.0 0.0065599
4070.0 0.0059865
4090.0 0.0035339
4110.0 0.0031139
4130.0 0.0048374
4150.0 0.0055031
4170.0 0.0045552
4190.0 0.0038093
4210.0 0.0052954
4230.0 0.0052422
4250.0 0.0049664
4270.0 0.0049673
4290.0 0.0044717
4310.0 0.0052305
4330.0 0.006103
4350.0 0.0066948
4370.0 0.0064146
4390.0 0.0064625
4410.0 0.0058806
4430.0 0.0045089
4450.0 0.0034458
4470.0 0.003941
4490.0 0.0040195
4510.0 0.0056942
4530.0 0.0058826
4550.0 0.0058192
4570.0 0.0069631
4590.0 0.0085511
4610.0 0.011096
4630.0 0.014077
4650.0 0.014724
4670.0 0.01512
4690.0 0.015555
4710.0 0.015277
4730.0 0.012761
4750.0 0.0091907
4770.0 0.007596
4790.0 0.0063476
4810.0 0.0063439
4830.0 0.0071352
4850.0 0.007629
4870.0 0.0080416
4890.0 0.0096152
4910.0 0.0091116
4930.0 0.0097292
4950.0 0.011853
4970.0 0.013579
4990.0 0.015473
5010.0 0.015661
5030.0 0.013783
5050.0 0.010454
5070.0 0.0076032
5090.0 0.0064976
5110.0 0.0066511
5130.0 0.0071286
5150.0 0.0066847
5170.0 0.0065671
5190.0 0.006698
5210.0 0.0068748
5230.0 0.007514
5250.0 0.007861
5270.0 0.0080279
5290.0 0.0095118
5310.0 0.011279
5330.0 0.012112
5350.0 0.011902
5370.0 0.012395
5390.0 0.013121
5410.0 0.012501
5430.0 0.011729
5450.0 0.012116
5470.0 0.013924
5490.0 0.017309
5510.0 0.020757
5530.0 0.021727
5550.0 0.021344
5570.0 0.020571
5590.0 0.019491
5610.0 0.018564
5630.0 0.01882
5650.0 0.019508
5670.0 0.018854
5690.0 0.017449
5710.0 0.017126
5730.0 0.015448
5750.0 0.012992
5770.0 0.01173
5790.0 0.012894
5810.0 0.014066
5830.0 0.015617
5850.0 0.015732
5870.0 0.01533
5890.0 0.015071
5910.0 0.013955
5930.0 0.013441
5950.0 0.013892
5970.0 0.014321
5990.0 0.01261
6010.0 0.010427
6030.0 0.0086994
6050.0 0.0078626
6070.0 0.0079359
6090.0 0.0087425
6110.0 0.0092604
6130.0 0.0089443
6150.0 0.0089398
6170.0 0.0096565
6190.0 0.010882
6210.0 0.012819
6230.0 0.014686
6250.0 0.013792
6270.0 0.012034
6290.0 0.010203
6310.0 0.0082385
6330.0 0.0071009
6350.0 0.0069489
6370.0 0.0075402
6390.0 0.0083372
6410.0 0.009865
6430.0 0.012184
6450.0 0.014671
6470.0 0.016747
6490.0 0.018885
6510.0 0.020258
6530.0 0.019599
6550.0 0.018799
6570.0 0.018933
6590.0 0.01891
6610.0 0.018345
6630.0 0.017288
6650.0 0.01585
6670.0 0.015524
6690.0 0.015164
6710.0 0.014604
6730.0 0.012727
6750.0 0.011141
6770.0 0.011253
6790.0 0.012008
6810.0 0.013241
6830.0 0.013471
6850.0 0.012517
6870.0 0.0123
6890.0 0.012093
6910.0 0.011407
6930.0 0.011249
6950.0 0.011194
6970.0 0.011256
6990.0 0.01174
7010.0 0.01259
7030.0 0.012389
7050.0 0.011281
7070.0 0.010441
7090.0 0.009061
7110.0 0.0079509
7130.0 0.0081358
7150.0 0.0087622
7170.0 0.0091893
7190.0 0.0090894
7210.0 0.0089143
7230.0 0.0099053
7250.0 0.011011
7270.0 0.011642
7290.0 0.011781
7310.0 0.011458
7330.0 0.010655
7350.0 0.0098726
7370.0 0.009271
7390.0 0.0090968
7410.0 0.0098345
7430.0 0.011391
7450.0 0.01263
7470.0 0.014066
7490.0 0.016268
7510.0 0.015852
7530.0 0.013185
7550.0 0.011213
7570.0 0.0093365
7590.0 0.0079177
7610.0 0.007691
7630.0 0.0078679
7650.0 0.0085902
7670.0 0.009823
7690.0 0.010801
7710.0 0.012255
7730.0 0.01274
7750.0 0.013177
7770.0 0.014096
7790.0 0.014435
7810.0 0.014181
7830.0 0.013219
7850.0 0.013023
7870.0 0.012666
7890.0 0.011838
7910.0 0.010881
7930.0 0.010092
7950.0 0.008529
7970.0 0.008147
7990.0 0.0083096
8010.0 0.0097225
8030.0 0.0097606
8050.0 0.010223
8070.0 0.010006
8090.0 0.01002
8110.0 0.0098116
8130.0 0.0093465
8150.0 0.0086738
8170.0 0.0085973
8190.0 0.0086957
8210.0 0.0087876
8230.0 0.0080744
8250.0 0.0075312
8270.0 0.0066341
8290.0 0.005515
8310.0 0.0044985
8330.0 0.0033049
8350.0 0.0025297
8370.0 0.0023637
8390.0 0.0025042
8410.0 0.0028685
8430.0 0.0036364
8450.0 0.0040142
8470.0 0.0043224
8490.0 0.0048434
8510.0 0.005225
8530.0 0.0058205
8550.0 0.0068843
8570.0 0.0077663
8590.0 0.0083942
8610.0 0.0095936
8630.0 0.01108
8650.0 0.01159
8670.0 0.011805
8690.0 0.011875
8710.0 0.011525
8730.0 0.011055
8750.0 0.010287
8770.0 0.010157
8790.0 0.0098655
8810.0 0.0091117
8830.0 0.0087387
8850.0 0.0076883
8870.0 0.0071245
8890.0 0.0065124
8910.0 0.0072179
8930.0 0.0067387
8950.0 0.0068469
8970.0 0.0069957
8990.0 0.0069107
9010.0 0.0070158
9030.0 0.0067276
9050.0 0.0067067
9070.0 0.0067137
9090.0 0.0067205
9110.0 0.0067311
9130.0 0.0067377
9150.0 0.0067426
9170.0 0.0067355
9190.0 0.0067123
9210.0 0.0067945
9230.0 0.0067828
9250.0 0.0067807
9270.0 0.0067812
9290.0 0.0067837
9310.0 0.0067872
9330.0 0.0067915
9350.0 0.0067966
9370.0 0.0068018
9390.0 0.006807
9410.0 0.0068124
9430.0 0.0068183
9450.0 0.0068238
9470.0 0.0068295
9490.0 0.0068355
9510.0 0.0068415
9530.0 0.0068475
9550.0 0.0068541
9570.0 0.0068609
9590.0 0.0068676
9610.0 0.0068746
9630.0 0.0068821
9650.0 0.0068897
9670.0 0.0068972
9690.0 0.0069053
9710.0 0.0069138
9730.0 0.0069222
9750.0 0.006931
9770.0 0.0069407
9790.0 0.0069501
9810.0 0.0069596
9830.0 0.0069698
9850.0 0.0069804
9870.0 0.0069908
9890.0 0.0070016
9910.0 0.0070131
9930.0 0.0070245
9950.0 0.0070303
9970.0 0.0070443
9990.0 0.0070583
10010.0 0.0070711
10030.0 0.0070845
10050.0 0.0070953
10070.0 0.0070914
10090.0 0.0071107
10110.0 0.0071296
10130.0 0.007147
10150.0 0.0071636
10170.0 0.0071791
10190.0 0.0071936
10210.0 0.0072084
10230.0 0.0072234
10250.0 0.0072377
10270.0 0.0072521
10290.0 0.0072671
10310.0 0.0072816
10330.0 0.0072956
10350.0 0.0073103
10370.0 0.007325
10390.0 0.0073392
10410.0 0.0073533
10430.0 0.007368
10450.0 0.007382
10470.0 0.0073957
10490.0 0.0074097
10510.0 0.0074235
10530.0 0.0074364
10550.0 0.0074495
10570.0 0.0074627
10590.0 0.0074754
10610.0 0.0074875
10630.0 0.0074999
10650.0 0.0075119
10670.0 0.007523
10690.0 0.0075341
10710.0 0.0075451
10730.0 0.0075554
10750.0 0.007565
10770.0 0.007575
10790.0 0.0075843
10810.0 0.0075927
10830.0 0.0076007
10850.0 0.0076079
10870.0 0.0076122
10890.0 0.0076127
10910.0 0.0076074
10930.0 0.0075917
10950.0 0.0075587
10970.0 0.0075051
10990.0 0.0074292
11010.0 0.0075562
11030.0 0.007402
11050.0 0.0072247
11070.0 0.0070213
11090.0 0.0067867
11110.0 0.0065541
11130.0 0.0063223
11150.0 0.0060856
11170.0 0.0058569
11190.0 0.0056505
11210.0 0.0054537
11230.0 0.0052694
11250.0 0.0051097
11270.0 0.0049707
11290.0 0.0048444
11310.0 0.0047356
11330.0 0.0046469
11350.0 0.0045668
11370.0 0.0044935
11390.0 0.0044272
11410.0 0.0043635
11430.0 0.0042948
11450.0 0.0042234
11470.0 0.0041487
11490.0 0.0040658
11510.0 0.003973
11530.0 0.0038773
11550.0 0.0037769
11570.0 0.0036682
11590.0 0.0035574
11610.0 0.003449
11630.0 0.0033371
11650.0 0.0032247
11670.0 0.0031205
11690.0 0.0030206
11710.0 0.0029225
11730.0 0.0028312
11750.0 0.0027484
11770.0 0.002668
11790.0 0.0025916
11810.0 0.0025218
11830.0 0.0024557
11850.0 0.0023895
11870.0 0.0023272
11890.0 0.0022683
11910.0 0.0022083
11930.0 0.002148
11950.0 0.0020898
11970.0 0.0020307
11990.0 0.001969
12010.0 0.0019085
12030.0 0.0018494
12050.0 0.0017892
12070.0 0.0017293
12090.0 0.0016749
12110.0 0.0016228
12130.0 0.0015735
12150.0 0.0015304
12170.0 0.0014942
12190.0 0.0014633
12210.0 0.0014409
12230.0 0.0014275
12250.0 0.0014226
12270.0 0.0014273
12290.0 0.0014409
12310.0 0.0014621
12330.0 0.0014925
12350.0 0.0015301
12370.0 0.0015719
12390.0 0.0016186
12410.0 0.0016712
12430.0 0.001722
12450.0 0.0017717
12470.0 0.0018214
12490.0 0.0018678
12510.0 0.0019077
12530.0 0.0019441
12550.0 0.0019754
12570.0 0.0019994
12590.0 0.0020168
12610.0 0.0020289
12630.0 0.0020344
12650.0 0.0020336
12670.0 0.0020278
12690.0 0.0020169
12710.0 0.0020019
12730.0 0.0019834
12750.0 0.0019607
12770.0 0.0019355
12790.0 0.0019086
12810.0 0.0018791
12830.0 0.0018471
12850.0 0.0018146
12870.0 0.0017806
12890.0 0.0017439
12910.0 0.0017057
12930.0 0.0016668
12950.0 0.0016245
12970.0 0.0015793
12990.0 0.0015341
13010.0 0.0014873
13030.0 0.0014376
13050.0 0.0013878
13070.0 0.0013396
13090.0 0.0012901
13110.0 0.0012416
13130.0 0.0011967
13150.0 0.0011546
13170.0 0.0011144
13190.0 0.0010799
13210.0 0.001051
13230.0 0.0010262
13250.0 0.0010066
13270.0 0.00099263
13290.0 0.00098319
13310.0 0.00097809
13330.0 0.00097704
13350.0 0.00097905
13370.0 0.00098363
13390.0 0.00099009
13410.0 0.00099687
13430.0 0.0010039
13450.0 0.0010108
13470.0 0.0010164
13490.0 0.0010207
13510.0 0.0010237
13530.0 0.001025
13550.0 0.0010248
13570.0 0.0010234
13590.0 0.001021
13610.0 0.001018
13630.0 0.0010146
13650.0 0.0010112
13670.0 0.0010079
13690.0 0.0010051
13710.0 0.0010026
13730.0 0.0010006
13750.0 0.00099891
13770.0 0.00099745
13790.0 0.00099603
13810.0 0.0009944
13830.0 0.00099233
13850.0 0.00098962
13870.0 0.000986
13890.0 0.00098142
13910.0 0.00097584
13930.0 0.00096898
13950.0 0.0009611
13970.0 0.00095276
13990.0 0.00094364
14010.0 0.00093407
14030.0 0.00092475
14050.0 0.00091574
14070.0 0.00090684
14090.0 0.00089889
14110.0 0.00089195
14130.0 0.00088581
14150.0 0.00088058
14170.0 0.00087648
14190.0 0.00087325
14210.0 0.00087086
14230.0 0.00086937
14250.0 0.00086872
14270.0 0.00086901
14290.0 0.00087034
14310.0 0.00087255
14330.0 0.00087578
14350.0 0.00088026
14370.0 0.0008857
14390.0 0.00089185
14410.0 0.00089924
14430.0 0.00090753
14450.0 0.00091618
14470.0 0.00092547
14490.0 0.00093587
14510.0 0.00094644
14530.0 0.00095728
14550.0 0.00096929
14570.0 0.00098238
14590.0 0.00099605
14610.0 0.0010114
14630.0 0.0010293
14650.0 0.0010486
14670.0 0.0010698
14690.0 0.0010941
14710.0 0.0011213
14730.0 0.001149
14750.0 0.0011794
14770.0 0.0012124
14790.0 0.0012457
14810.0 0.001279
14830.0 0.0013145
14850.0 0.0013487
14870.0 0.0013804
14890.0 0.0014107
14910.0 0.0014389
14930.0 0.0014627
14950.0 0.0014824
14970.0 0.0014988
14990.0 0.0015106
15010.0 0.0015181
15030.0 0.0015222
15050.0 0.0015234
15070.0 0.0015223
15090.0 0.0015197
15110.0 0.001516
15130.0 0.0015118
15150.0 0.0015076
15170.0 0.001503
15190.0 0.0014983
15210.0 0.0014938
15230.0 0.0014893
15250.0 0.0014846
15270.0 0.00148
15290.0 0.0014757
15310.0 0.0014712
15330.0 0.0014667
15350.0 0.0014624
15370.0 0.0014581
15390.0 0.0014536
15410.0 0.0014493
15430.0 0.001445
15450.0 0.0014407
15470.0 0.0014363
15490.0 0.0014322
15510.0 0.001428
15530.0 0.0014237
15550.0 0.0014195
15570.0 0.0014155
15590.0 0.0014112
15610.0 0.001407
15630.0 0.0014029
15650.0 0.0013989
15670.0 0.0013947
15690.0 0.0013906
15710.0 0.0013867
15730.0 0.0013825
15750.0 0.0013784
15770.0 0.0013744
15790.0 0.0013705
15810.0 0.0013663
15830.0 0.0013623
15850.0 0.0013584
15870.0 0.0013543
15890.0 0.0013503
15910.0 0.0013464
15930.0 0.0013424
15950.0 0.0013383
15970.0 0.0013344
15990.0 0.0013305
16010.0 0.0013265
16030.0 0.0013224
16050.0 0.0013185
16070.0 0.0013146
16090.0 0.0013106
16110.0 0.0013066
16130.0 0.0013028
16150.0 0.0012987
16170.0 0.0012947
16190.0 0.0012908
16210.0 0.0012868
16230.0 0.0012827
16250.0 0.0012788
16270.0 0.0012749
16290.0 0.0012709
16310.0 0.0012668
16330.0 0.0012629
16350.0 0.0012589
16370.0 0.0012547
16390.0 0.0012508
16410.0 0.0012468
16430.0 0.0012427
16450.0 0.0012387
16470.0 0.0012348
16490.0 0.0012307
16510.0 0.0012265
16530.0 0.0012225
16550.0 0.0012185
16570.0 0.0012142
16590.0 0.0012101
16610.0 0.0012061
16630.0 0.001202
16650.0 0.0011978
16670.0 0.0011937
16690.0 0.0011896
16710.0 0.0011853
16730.0 0.0011811
16750.0 0.001177
16770.0 0.0011727
16790.0 0.0011684
16810.0 0.0011643
16830.0 0.0011601
16850.0 0.0011557
16870.0 0.0011514
16890.0 0.0011473
16910.0 0.0011429
16930.0 0.0011384
16950.0 0.0011342
16970.0 0.0011299
16990.0 0.0011255
17010.0 0.0011211
17030.0 0.0011169
17050.0 0.0011124
17070.0 0.0011079
17090.0 0.0011036
17110.0 0.0010992
17130.0 0.0010945
17150.0 0.0010901
17170.0 0.0010857
17190.0 0.0010812
17210.0 0.0010766
17230.0 0.0010722
17250.0 0.0010677
17270.0 0.001063
17290.0 0.0010585
17310.0 0.001054
17330.0 0.0010493
17350.0 0.0010446
17370.0 0.0010401
17390.0 0.0010355
17410.0 0.0010308
17430.0 0.0010262
17450.0 0.0010216
17470.0 0.0010168
17490.0 0.001012
17510.0 0.0010074
17530.0 0.0010027
17550.0 0.00099788
17570.0 0.00099321
17590.0 0.00098856
17610.0 0.0009837
17630.0 0.0009789
17650.0 0.00097422
17670.0 0.00096942
17690.0 0.00096441
17710.0 0.0009597
17730.0 0.00095495
17750.0 0.00095004
17770.0 0.00094517
17790.0 0.00094048
17810.0 0.00093555
17830.0 0.00093058
17850.0 0.00092577
17870.0 0.00092094
17890.0 0.00091592
17910.0 0.00091097
17930.0 0.00090621
17950.0 0.00090127
17970.0 0.00089627
17990.0 0.00089144
18010.0 0.00088657
18030.0 0.00088146
18050.0 0.00087651
18070.0 0.00087165
18090.0 0.00086665
18110.0 0.00086159
18130.0 0.00085673
18150.0 0.00085182
18170.0 0.00084675
18190.0 0.00084178
18210.0 0.00083692
18230.0 0.00083184
18250.0 0.00082673
18270.0 0.00082184
18290.0 0.00081688
18310.0 0.0008118
18330.0 0.00080683
18350.0 0.00080196
18370.0 0.00079688
18390.0 0.00079181
18410.0 0.0007869
18430.0 0.00078192
18450.0 0.00077676
18470.0 0.00077179
18490.0 0.0007669
18510.0 0.00076185
18530.0 0.00075681
18550.0 0.00075194
18570.0 0.00074694
18590.0 0.00074181
18610.0 0.00073685
18630.0 0.00073194
18650.0 0.00072687
18670.0 0.0007218
18690.0 0.00071697
18710.0 0.000712
18730.0 0.00070694
18750.0 0.00070202
18770.0 0.00069717
18790.0 0.00069204
18810.0 0.00068704
18830.0 0.00068219
18850.0 0.00067723
18870.0 0.00067219
18890.0 0.00066733
18910.0 0.00066249
18930.0 0.00065747
18950.0 0.00065253
18970.0 0.00064772
18990.0 0.00064279
19010.0 0.0006377
19030.0 0.00063291
19050.0 0.00062809
19070.0 0.00062313
19090.0 0.00061826
19110.0 0.00061354
19130.0 0.00060861
19150.0 0.00060366
19170.0 0.00059889
19190.0 0.0005941
19210.0 0.00058916
19230.0 0.00058431
19250.0 0.00057964
19270.0 0.0005748
19290.0 0.00056995
19310.0 0.00056526
19330.0 0.00056054
19350.0 0.00055561
19370.0 0.00055087
19390.0 0.00054621
19410.0 0.00054143
19430.0 0.00053662
19450.0 0.00053201
19470.0 0.00052735
19490.0 0.00052256
19510.0 0.00051789
19530.0 0.00051332
19550.0 0.00050856
19570.0 0.00050379
19590.0 0.00049925
19610.0 0.00049464
19630.0 0.00048993
19650.0 0.00048536
19670.0 0.00048087
19690.0 0.00047619
19710.0 0.00047155
19730.0 0.00046707
19750.0 0.00046252
19770.0 0.00045782
19790.0 0.00045332
19810.0 0.00044888
19830.0 0.00044429
19850.0 0.00043971
19870.0 0.00043523
19890.0 0.00043049
19910.0 0.0004254
19930.0 0.00042013
19950.0 0.00041435
19970.0 0.00040759
19990.0 0.00039991
20010.0 0.00039165
20030.0 0.00038221
20050.0 0.00037184
20070.0 0.00036132
20090.0 0.00035075
20110.0 0.00033972
20130.0 0.00032948
20150.0 0.0003202
20170.0 0.00031143
20190.0 0.00030341
20210.0 0.00029657
20230.0 0.00029057
20250.0 0.0002852
20270.0 0.00028079
20290.0 0.00027725
20310.0 0.00027435
20330.0 0.00027213
20350.0 0.00027069
20370.0 0.00026984
20390.0 0.00026959
20410.0 0.00026995
20430.0 0.00027082
20450.0 0.00027234
20470.0 0.00027446
20490.0 0.00027706
20510.0 0.00028024
20530.0 0.00028412
20550.0 0.00028844
20570.0 0.00029307
20590.0 0.00029833
20610.0 0.00030399
20630.0 0.00030972
20650.0 0.0003157
20670.0 0.00032209
20690.0 0.00032817
20710.0 0.00033405
20730.0 0.00033994
20750.0 0.0003456
20770.0 0.0003507
20790.0 0.00035563
20810.0 0.00036041
20830.0 0.00036478
20850.0 0.0003689
20870.0 0.00037309
20890.0 0.00037723
20910.0 0.00038118
20930.0 0.00038529
20950.0 0.00038962
20970.0 0.00039392
20990.0 0.00039823
21010.0 0.00040282
21030.0 0.0004073
21050.0 0.00041149
21070.0 0.00041554
21090.0 0.00041938
21110.0 0.00042258
21130.0 0.00042525
21150.0 0.00042745
21170.0 0.00042898
21190.0 0.00042982
21210.0 0.00043007
21230.0 0.00042964
21250.0 0.00042859
21270.0 0.00042698
21290.0 0.00042476
21310.0 0.00042205
21330.0 0.00041903
21350.0 0.00041553
21370.0 0.00041164
21390.0 0.0004076
21410.0 0.00040337
21430.0 0.00039873
21450.0 0.00039414
21470.0 0.00038964
21490.0 0.00038503
21510.0 0.00038045
21530.0 0.00037618
21550.0 0.00037206
21570.0 0.00036804
21590.0 0.00036442
21610.0 0.00036121
21630.0 0.00035831
21650.0 0.00035581
21670.0 0.00035393
21690.0 0.00035252
21710.0 0.00035162
21730.0 0.0003513
21750.0 0.00035153
21770.0 0.00035237
21790.0 0.00035381
21810.0 0.00035575
21830.0 0.00035825
21850.0 0.00036139
21870.0 0.00036496
21890.0 0.00036884
21910.0 0.0003733
21930.0 0.00037816
21950.0 0.00038316
21970.0 0.00038849
21990.0 0.00039433
22010.0 0.00040005
22030.0 0.00040578
22050.0 0.00041174
22070.0 0.00041767
22090.0 0.00042322
22110.0 0.00042876
22130.0 0.0004342
22150.0 0.00043916
22170.0 0.00044368
22190.0 0.00044796
22210.0 0.00045167
22230.0 0.00045462
22250.0 0.00045703
22270.0 0.00045876
22290.0 0.00045969
22310.0 0.00045987
22330.0 0.00045921
22350.0 0.00045769
22370.0 0.00045538
22390.0 0.00045219
22410.0 0.000448
22430.0 0.00044319
22450.0 0.00043767
22470.0 0.00043121
22490.0 0.00042414
22510.0 0.00041673
22530.0 0.00040846
22550.0 0.00039955
22570.0 0.00039063
22590.0 0.00038141
22610.0 0.00037164
22630.0 0.00036185
22650.0 0.00035239
22670.0 0.00034258
22690.0 0.00033275
22710.0 0.00032338
22730.0 0.00031424
22750.0 0.00030485
22770.0 0.00029616
22790.0 0.00028809
22810.0 0.00028021
22830.0 0.00027275
22850.0 0.00026614
22870.0 0.00026001
22890.0 0.0002543
22910.0 0.00024944
22930.0 0.00024537
22950.0 0.00024192
22970.0 0.00023922
22990.0 0.0002375
23010.0 0.00023652
23030.0 0.00023637
23050.0 0.00023705
23070.0 0.00023847
23090.0 0.00024078
23110.0 0.00024385
23130.0 0.00024747
23150.0 0.00025173
23170.0 0.0002567
23190.0 0.00026194
23210.0 0.00026736
23230.0 0.00027322
23250.0 0.00027918
23270.0 0.00028493
23290.0 0.00029066
23310.0 0.00029641
23330.0 0.00030153
23350.0 0.00030619
23370.0 0.00031049
23390.0 0.00031419
23410.0 0.00031714
23430.0 0.00031952
23450.0 0.00032125
