#lamb flux
1010.0 1.3634e-05
1030.0 1.8146e-05
1050.0 2.3856e-05
1070.0 3.0934e-05
1090.0 3.9728e-05
1110.0 4.9831e-05
1130.0 6.1164e-05
1150.0 7.4061e-05
1170.0 8.8444e-05
1190.0 0.00010342
1210.0 0.00011944
1230.0 0.00013646
1250.0 0.00015358
1270.0 0.00017028
1290.0 0.00018712
1310.0 0.000203
1330.0 0.00021695
1350.0 0.00022921
1370.0 0.00023967
1390.0 0.00024735
1410.0 0.00025205
1430.0 0.0002546
1450.0 0.00025449
1470.0 0.00025155
1490.0 0.00024651
1510.0 0.00024019
1530.0 0.00023185
1550.0 0.0002222
1570.0 0.00021192
1590.0 0.00020108
1610.0 0.00018973
1630.0 0.00017862
1650.0 0.00016786
1670.0 0.00015733
1690.0 0.00014729
1710.0 0.00013801
1730.0 0.0001294
1750.0 0.00012133
1770.0 0.00011407
1790.0 0.00010755
1810.0 0.0001016
1830.0 9.625e-05
1850.0 9.1629e-05
1870.0 8.75e-05
1890.0 8.383e-05
1910.0 8.0687e-05
1930.0 7.8039e-05
1950.0 7.5747e-05
1970.0 7.3853e-05
1990.0 7.241e-05
2010.0 7.1328e-05
2030.0 7.0582e-05
2050.0 7.0263e-05
2070.0 7.037e-05
2090.0 7.0812e-05
2110.0 7.168e-05
2130.0 7.304e-05
2150.0 7.4861e-05
2170.0 7.7145e-05
2190.0 8.003e-05
2210.0 8.352e-05
2230.0 8.7591e-05
2250.0 9.2329e-05
2270.0 9.7846e-05
2290.0 0.00010407
2310.0 0.00011101
2330.0 0.0001188
2350.0 0.00012744
2370.0 0.00013682
2390.0 0.00014705
2410.0 0.00015818
2430.0 0.00017004
2450.0 0.00018261
2470.0 0.00019599
2490.0 0.00021018
2510.0 0.00022505
2530.0 0.00024105
2550.0 0.00025889
2570.0 0.00027928
2590.0 0.00030334
2610.0 0.00033436
2630.0 0.00037441
2650.0 0.0004243
2670.0 0.00048756
2690.0 0.00056728
2710.0 0.00065951
2730.0 0.00076139
2750.0 0.00087571
2770.0 0.00099299
2790.0 0.0011042
2810.0 0.0012085
2830.0 0.0013043
2850.0 0.0013809
2870.0 0.0014435
2890.0 0.001496
2910.0 0.0015385
2930.0 0.0015721
2950.0 0.0016016
2970.0 0.0016274
2990.0 0.0016487
3010.0 0.0016665
3030.0 0.0016825
3050.0 0.0016957
3070.0 0.0017042
3090.0 0.0017105
3110.0 0.001714
3130.0 0.0017132
3150.0 0.0017136
3170.0 0.0017121
3190.0 0.0017095
3210.0 0.0017069
3230.0 0.0017051
3250.0 0.0016972
3270.0 0.001678
3290.0 0.0016651
3310.0 0.0016717
3330.0 0.0016754
3350.0 0.0016719
3370.0 0.0016614
3390.0 0.0016443
3410.0 0.0016231
3430.0 0.0016
3450.0 0.0015892
3470.0 0.0016101
3490.0 0.0016011
3510.0 0.0015275
3530.0 0.0015296
3550.0 0.0016264
3570.0 0.002036
3590.0 0.0023306
3610.0 0.0025565
3630.0 0.0028353
3650.0 0.0027599
3670.0 0.0024155
3690.0 0.0021166
3710.0 0.0020223
3730.0 0.0020921
3750.0 0.0021391
3770.0 0.0021733
3790.0 0.0021951
3810.0 0.0022322
3830.0 0.0020607
3850.0 0.0018258
3870.0 0.0017215
3890.0 0.0018106
3910.0 0.0018755
3930.0 0.0018788
3950.0 0.00195
3970.0 0.0020532
3990.0 0.002085
4010.0 0.0021203
4030.0 0.0020578
4050.0 0.0020035
4070.0 0.0019699
4090.0 0.0019859
4110.0 0.0019961
4130.0 0.001957
4150.0 0.0018883
4170.0 0.0018676
4190.0 0.0018548
4210.0 0.0017446
4230.0 0.0016142
4250.0 0.0014569
4270.0 0.0013069
4290.0 0.0012443
4310.0 0.0012101
4330.0 0.0012513
4350.0 0.0013772
4370.0 0.0014548
4390.0 0.0016013
4410.0 0.0017209
4430.0 0.0017678
4450.0 0.0016667
4470.0 0.0015548
4490.0 0.0015283
4510.0 0.0015107
4530.0 0.0015112
4550.0 0.0015057
4570.0 0.0015272
4590.0 0.0015773
4610.0 0.0016148
4630.0 0.0016509
4650.0 0.0016705
4670.0 0.0016598
4690.0 0.0015695
4710.0 0.001488
4730.0 0.0014273
4750.0 0.0013855
4770.0 0.0013353
4790.0 0.0013299
4810.0 0.0013072
4830.0 0.0013606
4850.0 0.0013215
4870.0 0.0013708
4890.0 0.0013107
4910.0 0.0012378
4930.0 0.0011757
4950.0 0.0010634
4970.0 0.00096639
4990.0 0.00092001
5010.0 0.00086282
5030.0 0.00086459
5050.0 0.00088141
5070.0 0.00093154
5090.0 0.00096702
5110.0 0.0010054
5130.0 0.0010274
5150.0 0.0010414
5170.0 0.0010305
5190.0 0.0010356
5210.0 0.001032
5230.0 0.001007
5250.0 0.0010204
5270.0 0.0010673
5290.0 0.0010538
5310.0 0.0010193
5330.0 0.00098285
5350.0 0.00093362
5370.0 0.00090775
5390.0 0.00087904
5410.0 0.00089044
5430.0 0.00088486
5450.0 0.00086969
5470.0 0.00086522
5490.0 0.00092248
5510.0 0.00094869
5530.0 0.00093373
5550.0 0.00093992
5570.0 0.00095294
5590.0 0.00096085
5610.0 0.00093823
5630.0 0.00092032
5650.0 0.0008958
5670.0 0.00089588
5690.0 0.00086672
5710.0 0.00085863
5730.0 0.0008518
5750.0 0.00083399
5770.0 0.00081547
5790.0 0.0007854
5810.0 0.00075802
5830.0 0.0007641
5850.0 0.00076985
5870.0 0.00076532
5890.0 0.00076784
5910.0 0.00078488
5930.0 0.00079732
5950.0 0.00079148
5970.0 0.00080541
5990.0 0.00081011
6010.0 0.00080657
6030.0 0.00079676
6050.0 0.00077766
6070.0 0.00077949
6090.0 0.00078823
6110.0 0.00077191
6130.0 0.00074952
6150.0 0.00072775
6170.0 0.00069882
6190.0 0.00065134
6210.0 0.00064651
6230.0 0.000642
6250.0 0.00063357
6270.0 0.00064383
6290.0 0.00065366
6310.0 0.00065857
6330.0 0.00066563
6350.0 0.00066754
6370.0 0.00066277
6390.0 0.00063517
6410.0 0.00062675
6430.0 0.0006135
6450.0 0.00059991
6470.0 0.00059198
6490.0 0.00059592
6510.0 0.00058603
6530.0 0.00058522
6550.0 0.00057644
6570.0 0.00056793
6590.0 0.00056807
6610.0 0.00056143
6630.0 0.00055756
6650.0 0.0005491
6670.0 0.00053652
6690.0 0.00051508
6710.0 0.00050083
6730.0 0.00049684
6750.0 0.00049802
6770.0 0.00050424
6790.0 0.00048861
6810.0 0.00048746
6830.0 0.00047908
6850.0 0.00046923
6870.0 0.00045687
6890.0 0.00045022
6910.0 0.00045324
6930.0 0.00044147
6950.0 0.00044866
6970.0 0.00044238
6990.0 0.00043921
7010.0 0.00042648
7030.0 0.00042791
7050.0 0.0004252
7070.0 0.00040692
7090.0 0.00038542
7110.0 0.00038465
7130.0 0.00039008
7150.0 0.00039046
7170.0 0.00039405
7190.0 0.0003935
7210.0 0.00040938
7230.0 0.00041411
7250.0 0.00042377
7270.0 0.00041159
7290.0 0.00041917
7310.0 0.00041026
7330.0 0.00040726
7350.0 0.00039518
7370.0 0.00039257
7390.0 0.00040018
7410.0 0.00038835
7430.0 0.00039679
7450.0 0.00038542
7470.0 0.00038927
7490.0 0.00037167
7510.0 0.00034904
7530.0 0.00036037
7550.0 0.00033727
7570.0 0.00034785
7590.0 0.00033063
7610.0 0.0003499
7630.0 0.0003419
7650.0 0.00035384
7670.0 0.0003318
7690.0 0.00033538
7710.0 0.0003285
7730.0 0.00035041
7750.0 0.00033321
7770.0 0.0003534
7790.0 0.00036114
7810.0 0.00035744
7830.0 0.00038143
7850.0 0.00036053
7870.0 0.00039052
7890.0 0.00037677
7910.0 0.0003717
7930.0 0.00036199
7950.0 0.00035741
7970.0 0.00036472
7990.0 0.00036107
8010.0 0.00034595
8030.0 0.00034282
8050.0 0.00033577
8070.0 0.00033028
8090.0 0.00030859
8110.0 0.00031017
8130.0 0.00032599
8150.0 0.00033659
8170.0 0.00033768
8190.0 0.00034678
8210.0 0.00034112
8230.0 0.00033161
8250.0 0.00033031
8270.0 0.00032395
8290.0 0.0003174
8310.0 0.00030209
8330.0 0.00030313
8350.0 0.00030594
8370.0 0.00030782
8390.0 0.00030896
8410.0 0.0003047
8430.0 0.00030236
8450.0 0.00030294
8470.0 0.00031149
8490.0 0.00031537
8510.0 0.00030512
8530.0 0.00029337
8550.0 0.00029345
8570.0 0.00028853
8590.0 0.00028139
8610.0 0.00028678
8630.0 0.00028476
8650.0 0.00028128
8670.0 0.0002792
8690.0 0.00027669
8710.0 0.00026406
8730.0 0.00026634
8750.0 0.00025907
8770.0 0.00025977
8790.0 0.00025452
8810.0 0.00024907
8830.0 0.00025045
8850.0 0.00024778
8870.0 0.00023626
8890.0 0.00022981
8910.0 0.00022034
8930.0 0.00020734
8950.0 0.00020424
8970.0 0.00019554
8990.0 0.00019296
9010.0 0.00018797
9030.0 0.00018614
9050.0 0.00018493
9070.0 0.00018373
9090.0 0.00018253
9110.0 0.0001813
9130.0 0.00018007
9150.0 0.00017887
9170.0 0.00017765
9190.0 0.00017642
9210.0 0.00017518
9230.0 0.00017394
9250.0 0.0001727
9270.0 0.00017145
9290.0 0.0001702
9310.0 0.00016896
9330.0 0.00016773
9350.0 0.0001665
9370.0 0.00016527
9390.0 0.00016404
9410.0 0.00016281
9430.0 0.00016158
9450.0 0.00016035
9470.0 0.00015924
9490.0 0.00015808
9510.0 0.0001568
9530.0 0.00015554
9550.0 0.00015431
9570.0 0.00015309
9590.0 0.00015189
9610.0 0.0001507
9630.0 0.00014953
9650.0 0.00014836
9670.0 0.00014719
9690.0 0.00014604
9710.0 0.0001449
9730.0 0.00014376
9750.0 0.00014262
9770.0 0.00014151
9790.0 0.0001404
9810.0 0.00013929
9830.0 0.00013819
9850.0 0.000137
9870.0 0.00013582
9890.0 0.00013485
9910.0 0.00013386
9930.0 0.00013265
9950.0 0.00013162
9970.0 0.00013068
9990.0 0.00012972
10010.0 0.00012877
10030.0 0.0001278
10050.0 0.00012683
10070.0 0.00012587
10090.0 0.00012492
10110.0 0.00012397
10130.0 0.00012303
10150.0 0.00012211
10170.0 0.0001212
10190.0 0.0001203
10210.0 0.00011941
10230.0 0.00011855
10250.0 0.00011768
10270.0 0.00011683
10290.0 0.000116
10310.0 0.00011517
10330.0 0.00011434
10350.0 0.00011354
10370.0 0.00011276
10390.0 0.00011197
10410.0 0.00011115
10430.0 0.00011035
10450.0 0.00010965
10470.0 0.00010893
10490.0 0.00010823
10510.0 0.00010753
10530.0 0.00010682
10550.0 0.00010613
10570.0 0.00010547
10590.0 0.0001048
10610.0 0.00010413
10630.0 0.0001035
10650.0 0.00010287
10670.0 0.00010223
10690.0 0.00010161
10710.0 0.00010102
10730.0 0.00010042
10750.0 9.9822e-05
10770.0 9.9258e-05
10790.0 9.8699e-05
10810.0 9.8136e-05
10830.0 9.7591e-05
10850.0 9.7069e-05
10870.0 9.6532e-05
10890.0 9.6006e-05
10910.0 9.5506e-05
10930.0 9.5011e-05
10950.0 9.4512e-05
10970.0 9.4031e-05
10990.0 9.3571e-05
11010.0 0.00010198
11030.0 0.00010139
11050.0 0.00010076
11070.0 0.00010009
11090.0 9.9355e-05
11110.0 9.8623e-05
11130.0 9.7882e-05
11150.0 9.7111e-05
11170.0 9.633e-05
11190.0 9.5572e-05
11210.0 9.4798e-05
11230.0 9.401e-05
11250.0 9.3249e-05
11270.0 9.251e-05
11290.0 9.1763e-05
11310.0 9.1038e-05
11330.0 9.0375e-05
11350.0 8.9729e-05
11370.0 8.9105e-05
11390.0 8.8533e-05
11410.0 8.8002e-05
11430.0 8.7476e-05
11450.0 8.699e-05
11470.0 8.6542e-05
11490.0 8.6104e-05
11510.0 8.567e-05
11530.0 8.5264e-05
11550.0 8.4868e-05
11570.0 8.4459e-05
11590.0 8.4053e-05
11610.0 8.3659e-05
11630.0 8.3244e-05
11650.0 8.2811e-05
11670.0 8.2392e-05
11690.0 8.1967e-05
11710.0 8.1518e-05
11730.0 8.1067e-05
11750.0 8.0632e-05
11770.0 8.0173e-05
11790.0 7.9705e-05
11810.0 7.9255e-05
11830.0 7.8808e-05
11850.0 7.8339e-05
11870.0 7.7896e-05
11890.0 7.7484e-05
11910.0 7.7074e-05
11930.0 7.668e-05
11950.0 7.6331e-05
11970.0 7.6006e-05
11990.0 7.5698e-05
12010.0 7.5437e-05
12030.0 7.5222e-05
12050.0 7.5037e-05
12070.0 7.4889e-05
12090.0 7.4798e-05
12110.0 7.4742e-05
12130.0 7.4721e-05
12150.0 7.4739e-05
12170.0 7.4792e-05
12190.0 7.4867e-05
12210.0 7.4966e-05
12230.0 7.5082e-05
12250.0 7.5207e-05
12270.0 7.5332e-05
12290.0 7.5452e-05
12310.0 7.5563e-05
12330.0 7.5653e-05
12350.0 7.5719e-05
12370.0 7.576e-05
12390.0 7.5769e-05
12410.0 7.5729e-05
12430.0 7.5663e-05
12450.0 7.5561e-05
12470.0 7.5409e-05
12490.0 7.5216e-05
12510.0 7.5001e-05
12530.0 7.4736e-05
12550.0 7.4421e-05
12570.0 7.4086e-05
12590.0 7.3726e-05
12610.0 7.331e-05
12630.0 7.2867e-05
12650.0 7.2434e-05
12670.0 7.1964e-05
12690.0 7.1464e-05
12710.0 7.0975e-05
12730.0 7.0486e-05
12750.0 6.9956e-05
12770.0 6.9443e-05
12790.0 6.8955e-05
12810.0 6.8461e-05
12830.0 6.7962e-05
12850.0 6.7511e-05
12870.0 6.7081e-05
12890.0 6.6653e-05
12910.0 6.6261e-05
12930.0 6.5917e-05
12950.0 6.5586e-05
12970.0 6.5285e-05
12990.0 6.5047e-05
13010.0 6.4848e-05
13030.0 6.4681e-05
13050.0 6.4564e-05
13070.0 6.4497e-05
13090.0 6.4459e-05
13110.0 6.4457e-05
13130.0 6.4489e-05
13150.0 6.4545e-05
13170.0 6.4616e-05
13190.0 6.4701e-05
13210.0 6.4792e-05
13230.0 6.4879e-05
13250.0 6.4958e-05
13270.0 6.5027e-05
13290.0 6.5078e-05
13310.0 6.5105e-05
13330.0 6.511e-05
13350.0 6.5091e-05
13370.0 6.5038e-05
13390.0 6.4947e-05
13410.0 6.4834e-05
13430.0 6.4683e-05
13450.0 6.4487e-05
13470.0 6.4262e-05
13490.0 6.4011e-05
13510.0 6.3702e-05
13530.0 6.3363e-05
13550.0 6.3011e-05
13570.0 6.2626e-05
13590.0 6.2201e-05
13610.0 6.1769e-05
13630.0 6.1332e-05
13650.0 6.0855e-05
13670.0 6.0364e-05
13690.0 5.9878e-05
13710.0 5.937e-05
13730.0 5.882e-05
13750.0 5.8292e-05
13770.0 5.7759e-05
13790.0 5.7197e-05
13810.0 5.6631e-05
13830.0 5.6085e-05
13850.0 5.5517e-05
13870.0 5.4937e-05
13890.0 5.4378e-05
13910.0 5.3828e-05
13930.0 5.3262e-05
13950.0 5.2708e-05
13970.0 5.2193e-05
13990.0 5.1673e-05
14010.0 5.116e-05
14030.0 5.0677e-05
14050.0 5.0214e-05
14070.0 4.9741e-05
14090.0 4.9297e-05
14110.0 4.8879e-05
14130.0 4.8466e-05
14150.0 4.8057e-05
14170.0 4.7678e-05
14190.0 4.7309e-05
14210.0 4.6936e-05
14230.0 4.6576e-05
14250.0 4.6232e-05
14270.0 4.5881e-05
14290.0 4.553e-05
14310.0 4.5199e-05
14330.0 4.4872e-05
14350.0 4.4541e-05
14370.0 4.4222e-05
14390.0 4.3918e-05
14410.0 4.361e-05
14430.0 4.3309e-05
14450.0 4.3021e-05
14470.0 4.2738e-05
14490.0 4.2451e-05
14510.0 4.2176e-05
14530.0 4.1908e-05
14550.0 4.1635e-05
14570.0 4.1361e-05
14590.0 4.1094e-05
14610.0 4.0821e-05
14630.0 4.0539e-05
14650.0 4.0259e-05
14670.0 3.9978e-05
14690.0 3.9687e-05
14710.0 3.9389e-05
14730.0 3.9099e-05
14750.0 3.8799e-05
14770.0 3.849e-05
14790.0 3.8181e-05
14810.0 3.7872e-05
14830.0 3.7545e-05
14850.0 3.7216e-05
14870.0 3.689e-05
14890.0 3.6557e-05
14910.0 3.6218e-05
14930.0 3.5888e-05
14950.0 3.5569e-05
14970.0 3.5253e-05
14990.0 3.4953e-05
15010.0 3.4674e-05
15030.0 3.441e-05
15050.0 3.4155e-05
15070.0 3.3921e-05
15090.0 3.3696e-05
15110.0 3.3473e-05
15130.0 3.3254e-05
15150.0 3.3041e-05
15170.0 3.2825e-05
15190.0 3.2608e-05
15210.0 3.2393e-05
15230.0 3.2178e-05
15250.0 3.196e-05
15270.0 3.1742e-05
15290.0 3.1528e-05
15310.0 3.1311e-05
15330.0 3.1092e-05
15350.0 3.0876e-05
15370.0 3.0661e-05
15390.0 3.0441e-05
15410.0 3.0224e-05
15430.0 3.0009e-05
15450.0 2.9791e-05
15470.0 2.9573e-05
15490.0 2.9358e-05
15510.0 2.9144e-05
15530.0 2.8927e-05
15550.0 2.8712e-05
15570.0 2.8499e-05
15590.0 2.8284e-05
15610.0 2.8068e-05
15630.0 2.7856e-05
15650.0 2.7644e-05
15670.0 2.7431e-05
15690.0 2.722e-05
15710.0 2.7012e-05
15730.0 2.6801e-05
15750.0 2.6591e-05
15770.0 2.6384e-05
15790.0 2.6177e-05
15810.0 2.5968e-05
15830.0 2.5763e-05
15850.0 2.556e-05
15870.0 2.5356e-05
15890.0 2.5152e-05
15910.0 2.4953e-05
15930.0 2.4752e-05
15950.0 2.4551e-05
15970.0 2.4353e-05
15990.0 2.4157e-05
16010.0 2.3959e-05
16030.0 2.3763e-05
16050.0 2.3571e-05
16070.0 2.3379e-05
16090.0 2.3186e-05
16110.0 2.2997e-05
16130.0 2.281e-05
16150.0 2.262e-05
16170.0 2.2432e-05
16190.0 2.2249e-05
16210.0 2.2065e-05
16230.0 2.1881e-05
16250.0 2.1701e-05
16270.0 2.1523e-05
16290.0 2.1343e-05
16310.0 2.1166e-05
16330.0 2.0992e-05
16350.0 2.0817e-05
16370.0 2.0642e-05
16390.0 2.0472e-05
16410.0 2.0303e-05
16430.0 2.0133e-05
16450.0 1.9966e-05
16470.0 1.9802e-05
16490.0 1.9637e-05
16510.0 1.9473e-05
16530.0 1.9312e-05
16550.0 1.9153e-05
16570.0 1.8993e-05
16590.0 1.8835e-05
16610.0 1.8681e-05
16630.0 1.8527e-05
16650.0 1.8373e-05
16670.0 1.8223e-05
16690.0 1.8074e-05
16710.0 1.7923e-05
16730.0 1.7776e-05
16750.0 1.7632e-05
16770.0 1.7487e-05
16790.0 1.7343e-05
16810.0 1.7203e-05
16830.0 1.7064e-05
16850.0 1.6925e-05
16870.0 1.6788e-05
16890.0 1.6654e-05
16910.0 1.6519e-05
16930.0 1.6384e-05
16950.0 1.6254e-05
16970.0 1.6125e-05
16990.0 1.5995e-05
17010.0 1.5868e-05
17030.0 1.5744e-05
17050.0 1.5618e-05
17070.0 1.5494e-05
17090.0 1.5373e-05
17110.0 1.5253e-05
17130.0 1.5132e-05
17150.0 1.5015e-05
17170.0 1.49e-05
17190.0 1.4784e-05
17210.0 1.467e-05
17230.0 1.4558e-05
17250.0 1.4447e-05
17270.0 1.4336e-05
17290.0 1.4227e-05
17310.0 1.412e-05
17330.0 1.4013e-05
17350.0 1.3907e-05
17370.0 1.3805e-05
17390.0 1.3703e-05
17410.0 1.36e-05
17430.0 1.3501e-05
17450.0 1.3403e-05
17470.0 1.3303e-05
17490.0 1.3206e-05
17510.0 1.3111e-05
17530.0 1.3017e-05
17550.0 1.2923e-05
17570.0 1.2831e-05
17590.0 1.2741e-05
17610.0 1.265e-05
17630.0 1.2561e-05
17650.0 1.2475e-05
17670.0 1.2388e-05
17690.0 1.23e-05
17710.0 1.2216e-05
17730.0 1.2134e-05
17750.0 1.205e-05
17770.0 1.1969e-05
17790.0 1.189e-05
17810.0 1.181e-05
17830.0 1.173e-05
17850.0 1.1653e-05
17870.0 1.1577e-05
17890.0 1.15e-05
17910.0 1.1425e-05
17930.0 1.1353e-05
17950.0 1.128e-05
17970.0 1.1207e-05
17990.0 1.1137e-05
18010.0 1.1067e-05
18030.0 1.0997e-05
18050.0 1.0928e-05
18070.0 1.0862e-05
18090.0 1.0794e-05
18110.0 1.0728e-05
18130.0 1.0664e-05
18150.0 1.06e-05
18170.0 1.0536e-05
18190.0 1.0473e-05
18210.0 1.0413e-05
18230.0 1.0351e-05
18250.0 1.0289e-05
18270.0 1.0231e-05
18290.0 1.0173e-05
18310.0 1.0114e-05
18330.0 1.0057e-05
18350.0 1.0001e-05
18370.0 9.9449e-06
18390.0 9.8893e-06
18410.0 9.8357e-06
18430.0 9.7822e-06
18450.0 9.7277e-06
18470.0 9.6756e-06
18490.0 9.6249e-06
18510.0 9.5734e-06
18530.0 9.5226e-06
18550.0 9.4741e-06
18570.0 9.4249e-06
18590.0 9.3751e-06
18610.0 9.3276e-06
18630.0 9.281e-06
18650.0 9.2335e-06
18670.0 9.1866e-06
18690.0 9.1424e-06
18710.0 9.0975e-06
18730.0 9.0523e-06
18750.0 9.009e-06
18770.0 8.9666e-06
18790.0 8.9224e-06
18810.0 8.8797e-06
18830.0 8.8389e-06
18850.0 8.7976e-06
18870.0 8.756e-06
18890.0 8.7165e-06
18910.0 8.6776e-06
18930.0 8.6374e-06
18950.0 8.5985e-06
18970.0 8.5611e-06
18990.0 8.5231e-06
19010.0 8.4839e-06
19030.0 8.448e-06
19050.0 8.412e-06
19070.0 8.3753e-06
19090.0 8.3395e-06
19110.0 8.3056e-06
19130.0 8.2701e-06
19150.0 8.2348e-06
19170.0 8.2014e-06
19190.0 8.1682e-06
19210.0 8.1338e-06
19230.0 8.1006e-06
19250.0 8.0693e-06
19270.0 8.0369e-06
19290.0 8.0045e-06
19310.0 7.9739e-06
19330.0 7.9433e-06
19350.0 7.9109e-06
19370.0 7.8805e-06
19390.0 7.8512e-06
19410.0 7.8209e-06
19430.0 7.7906e-06
19450.0 7.7624e-06
19470.0 7.7339e-06
19490.0 7.7044e-06
19510.0 7.6762e-06
19530.0 7.6491e-06
19550.0 7.6204e-06
19570.0 7.5918e-06
19590.0 7.5655e-06
19610.0 7.5387e-06
19630.0 7.5111e-06
19650.0 7.4849e-06
19670.0 7.4597e-06
19690.0 7.4327e-06
19710.0 7.4063e-06
19730.0 7.3815e-06
19750.0 7.3562e-06
19770.0 7.3294e-06
19790.0 7.3048e-06
19810.0 7.2809e-06
19830.0 7.2557e-06
19850.0 7.231e-06
19870.0 7.2083e-06
19890.0 7.1846e-06
19910.0 7.1607e-06
19930.0 7.1399e-06
19950.0 7.1212e-06
19970.0 7.104e-06
19990.0 7.0905e-06
20010.0 7.0825e-06
20030.0 7.0778e-06
20050.0 7.0771e-06
20070.0 7.0812e-06
20090.0 7.0887e-06
20110.0 7.0986e-06
20130.0 7.1112e-06
20150.0 7.126e-06
20170.0 7.1421e-06
20190.0 7.1593e-06
20210.0 7.1777e-06
20230.0 7.1968e-06
20250.0 7.2163e-06
20270.0 7.2363e-06
20290.0 7.2566e-06
20310.0 7.2769e-06
20330.0 7.2969e-06
20350.0 7.3172e-06
20370.0 7.3371e-06
20390.0 7.3565e-06
20410.0 7.3757e-06
20430.0 7.3949e-06
20450.0 7.4134e-06
20470.0 7.4317e-06
20490.0 7.4503e-06
20510.0 7.4689e-06
20530.0 7.4874e-06
20550.0 7.5065e-06
20570.0 7.5265e-06
20590.0 7.5466e-06
20610.0 7.5675e-06
20630.0 7.5893e-06
20650.0 7.6118e-06
20670.0 7.6344e-06
20690.0 7.658e-06
20710.0 7.6821e-06
20730.0 7.7061e-06
20750.0 7.7301e-06
20770.0 7.7542e-06
20790.0 7.7778e-06
20810.0 7.8003e-06
20830.0 7.8222e-06
20850.0 7.8433e-06
20870.0 7.8625e-06
20890.0 7.8803e-06
20910.0 7.8977e-06
20930.0 7.9134e-06
20950.0 7.9273e-06
20970.0 7.9406e-06
20990.0 7.9534e-06
21010.0 7.9641e-06
21030.0 7.9744e-06
21050.0 7.9851e-06
21070.0 7.9949e-06
21090.0 8.0036e-06
21110.0 8.0137e-06
21130.0 8.0241e-06
21150.0 8.0336e-06
21170.0 8.0435e-06
21190.0 8.0546e-06
21210.0 8.0646e-06
21230.0 8.0738e-06
21250.0 8.0841e-06
21270.0 8.0941e-06
21290.0 8.1025e-06
21310.0 8.1104e-06
21330.0 8.1191e-06
21350.0 8.1256e-06
21370.0 8.1304e-06
21390.0 8.1354e-06
21410.0 8.1394e-06
21430.0 8.1397e-06
21450.0 8.1401e-06
21470.0 8.1407e-06
21490.0 8.1388e-06
21510.0 8.1349e-06
21530.0 8.1321e-06
21550.0 8.128e-06
21570.0 8.1209e-06
21590.0 8.1141e-06
21610.0 8.1079e-06
21630.0 8.0993e-06
21650.0 8.0885e-06
21670.0 8.0808e-06
21690.0 8.0717e-06
21710.0 8.0604e-06
21730.0 8.0497e-06
21750.0 8.0405e-06
21770.0 8.0273e-06
21790.0 8.014e-06
21810.0 8.0023e-06
21830.0 7.9896e-06
21850.0 7.9742e-06
21870.0 7.96e-06
21890.0 7.9474e-06
21910.0 7.9319e-06
21930.0 7.9163e-06
21950.0 7.9028e-06
21970.0 7.8884e-06
21990.0 7.8715e-06
22010.0 7.858e-06
22030.0 7.8461e-06
22050.0 7.8332e-06
22070.0 7.8214e-06
22090.0 7.8136e-06
22110.0 7.806e-06
22130.0 7.7987e-06
22150.0 7.7948e-06
22170.0 7.7936e-06
22190.0 7.7921e-06
22210.0 7.7929e-06
22230.0 7.7978e-06
22250.0 7.8035e-06
22270.0 7.81e-06
22290.0 7.8195e-06
22310.0 7.8308e-06
22330.0 7.8414e-06
22350.0 7.8538e-06
22370.0 7.8681e-06
22390.0 7.8824e-06
22410.0 7.8962e-06
22430.0 7.9122e-06
22450.0 7.9288e-06
22470.0 7.9443e-06
22490.0 7.9606e-06
22510.0 7.9783e-06
22530.0 7.9949e-06
22550.0 8.0112e-06
22570.0 8.0293e-06
22590.0 8.0478e-06
22610.0 8.0655e-06
22630.0 8.0843e-06
22650.0 8.105e-06
22670.0 8.1252e-06
22690.0 8.1458e-06
22710.0 8.1683e-06
22730.0 8.1917e-06
22750.0 8.2144e-06
