#lamb flux
1010.0 4.578e-05
1030.0 4.578e-05
1050.0 4.578e-05
1070.0 4.578e-05
1090.0 4.578e-05
1110.0 4.578e-05
1130.0 4.578e-05
1150.0 4.578e-05
1170.0 4.578e-05
1190.0 4.578e-05
1210.0 4.578e-05
1230.0 4.578e-05
1250.0 4.578e-05
1270.0 4.578e-05
1290.0 4.578e-05
1310.0 4.578e-05
1330.0 4.578e-05
1350.0 4.578e-05
1370.0 4.578e-05
1390.0 4.578e-05
1410.0 4.578e-05
1430.0 4.578e-05
1450.0 4.578e-05
1470.0 4.578e-05
1490.0 4.578e-05
1510.0 4.578e-05
1530.0 4.5828e-05
1550.0 5.4367e-05
1570.0 6.3757e-05
1590.0 7.4019e-05
1610.0 8.5043e-05
1630.0 9.686e-05
1650.0 0.00010989
1670.0 0.00012405
1690.0 0.00013952
1710.0 0.00015662
1730.0 0.00017538
1750.0 0.00019559
1770.0 0.00021774
1790.0 0.00024192
1810.0 0.0002679
1830.0 0.00029573
1850.0 0.00032596
1870.0 0.00035797
1890.0 0.00039156
1910.0 0.00042699
1930.0 0.00046417
1950.0 0.00050218
1970.0 0.00054102
1990.0 0.00058088
2010.0 0.00062084
2030.0 0.00066023
2050.0 0.00069941
2070.0 0.00073796
2090.0 0.00077438
2110.0 0.00080895
2130.0 0.00084177
2150.0 0.00087186
2170.0 0.00089857
2190.0 0.00092283
2210.0 0.00094406
2230.0 0.00096149
2250.0 0.00097561
2270.0 0.00098716
2290.0 0.00099511
2310.0 0.00099947
2330.0 0.0010015
2350.0 0.001001
2370.0 0.00099753
2390.0 0.00099219
2410.0 0.00098575
2430.0 0.0009775
2450.0 0.00096793
2470.0 0.00095814
2490.0 0.00094852
2510.0 0.00093886
2530.0 0.00093188
2550.0 0.00093104
2570.0 0.00093938
2590.0 0.00096079
2610.0 0.0010057
2630.0 0.0010761
2650.0 0.0011677
2670.0 0.0012835
2690.0 0.0014221
2710.0 0.0015673
2730.0 0.001713
2750.0 0.0018677
2770.0 0.0020211
2790.0 0.0021686
2810.0 0.0023202
2830.0 0.0024842
2850.0 0.0026434
2870.0 0.0028068
2890.0 0.0029829
2910.0 0.003166
2930.0 0.0033489
2950.0 0.0035466
2970.0 0.0037574
2990.0 0.0039715
3010.0 0.0041937
3030.0 0.0044326
3050.0 0.00468
3070.0 0.0049218
3090.0 0.0051681
3110.0 0.0054061
3130.0 0.0056168
3150.0 0.0057929
3170.0 0.0059264
3190.0 0.0060046
3210.0 0.0060276
3230.0 0.0060187
3250.0 0.0060512
3270.0 0.0061707
3290.0 0.0063652
3310.0 0.0066197
3330.0 0.0069335
3350.0 0.0072877
3370.0 0.007682
3390.0 0.0081154
3410.0 0.0085433
3430.0 0.0093163
3450.0 0.0099018
3470.0 0.010475
3490.0 0.010694
3510.0 0.010509
3530.0 0.011768
3550.0 0.01411
3570.0 0.015513
3590.0 0.016218
3610.0 0.016374
3630.0 0.015746
3650.0 0.017005
3670.0 0.020328
3690.0 0.022871
3710.0 0.024039
3730.0 0.024869
3750.0 0.026023
3770.0 0.02596
3790.0 0.024817
3810.0 0.023316
3830.0 0.02167
3850.0 0.021532
3870.0 0.023099
3890.0 0.024709
3910.0 0.025916
3930.0 0.026443
3950.0 0.028404
3970.0 0.030371
3990.0 0.029126
4010.0 0.025867
4030.0 0.022799
4050.0 0.021809
4070.0 0.022572
4090.0 0.022766
4110.0 0.022215
4130.0 0.021872
4150.0 0.02224
4170.0 0.024421
4190.0 0.026715
4210.0 0.026193
4230.0 0.024612
4250.0 0.023828
4270.0 0.023519
4290.0 0.024193
4310.0 0.02505
4330.0 0.02386
4350.0 0.020854
4370.0 0.018366
4390.0 0.016646
4410.0 0.015191
4430.0 0.015102
4450.0 0.01639
4470.0 0.017599
4490.0 0.019197
4510.0 0.021876
4530.0 0.027252
4550.0 0.03374
4570.0 0.037614
4590.0 0.040161
4610.0 0.043639
4630.0 0.04578
4650.0 0.04273
4670.0 0.035319
4690.0 0.029397
4710.0 0.027203
4730.0 0.026412
4750.0 0.024016
4770.0 0.02204
4790.0 0.023023
4810.0 0.025082
4830.0 0.02518
4850.0 0.02346
4870.0 0.022698
4890.0 0.02395
4910.0 0.025339
4930.0 0.025439
4950.0 0.024608
4970.0 0.023259
4990.0 0.021219
5010.0 0.01932
5030.0 0.018198
5050.0 0.017686
5070.0 0.017309
5090.0 0.016909
5110.0 0.016843
5130.0 0.017029
5150.0 0.017944
5170.0 0.019909
5190.0 0.022304
5210.0 0.025
5230.0 0.026717
5250.0 0.027608
5270.0 0.029155
5290.0 0.03082
5310.0 0.031387
5330.0 0.030225
5350.0 0.028713
5370.0 0.02872
5390.0 0.030629
5410.0 0.032748
5430.0 0.033849
5450.0 0.033932
5470.0 0.033035
5490.0 0.03176
5510.0 0.031033
5530.0 0.031075
5550.0 0.031494
5570.0 0.03178
5590.0 0.030954
5610.0 0.029355
5630.0 0.02752
5650.0 0.025872
5670.0 0.024891
5690.0 0.024073
5710.0 0.023497
5730.0 0.023813
5750.0 0.023746
5770.0 0.023272
5790.0 0.023454
5810.0 0.023863
5830.0 0.02431
5850.0 0.024538
5870.0 0.024098
5890.0 0.023096
5910.0 0.021825
5930.0 0.019919
5950.0 0.018488
5970.0 0.018326
5990.0 0.018999
6010.0 0.019363
6030.0 0.018698
6050.0 0.018247
6070.0 0.018945
6090.0 0.020148
6110.0 0.020769
6130.0 0.020175
6150.0 0.019011
6170.0 0.018195
6190.0 0.017375
6210.0 0.016404
6230.0 0.015554
6250.0 0.015217
6270.0 0.015604
6290.0 0.016297
6310.0 0.017264
6330.0 0.018459
6350.0 0.019603
6370.0 0.020198
6390.0 0.020308
6410.0 0.020497
6430.0 0.020709
6450.0 0.020847
6470.0 0.021197
6490.0 0.021593
6510.0 0.021787
6530.0 0.021656
6550.0 0.021149
6570.0 0.020378
6590.0 0.01962
6610.0 0.019078
6630.0 0.018695
6650.0 0.018081
6670.0 0.017289
6690.0 0.01666
6710.0 0.016298
6730.0 0.016176
6750.0 0.015955
6770.0 0.015624
6790.0 0.015376
6810.0 0.015134
6830.0 0.015039
6850.0 0.015173
6870.0 0.015183
6890.0 0.015056
6910.0 0.014719
6930.0 0.014377
6950.0 0.014208
6970.0 0.013847
6990.0 0.013356
7010.0 0.013144
7030.0 0.01301
7050.0 0.012681
7070.0 0.012239
7090.0 0.011996
7110.0 0.012188
7130.0 0.012799
7150.0 0.013491
7170.0 0.013936
7190.0 0.013815
7210.0 0.013406
7230.0 0.013153
7250.0 0.013032
7270.0 0.01297
7290.0 0.012835
7310.0 0.012835
7330.0 0.013135
7350.0 0.013521
7370.0 0.013751
7390.0 0.013651
7410.0 0.01331
7430.0 0.013032
7450.0 0.012739
7470.0 0.012095
7490.0 0.011659
7510.0 0.011228
7530.0 0.010925
7550.0 0.010944
7570.0 0.011063
7590.0 0.011056
7610.0 0.010967
7630.0 0.01091
7650.0 0.010895
7670.0 0.011116
7690.0 0.01147
7710.0 0.011922
7730.0 0.012241
7750.0 0.012602
7770.0 0.012803
7790.0 0.012834
7810.0 0.012726
7830.0 0.0128
7850.0 0.01269
7870.0 0.012194
7890.0 0.011679
7910.0 0.011294
7930.0 0.010944
7950.0 0.010665
7970.0 0.010575
7990.0 0.010674
8010.0 0.010411
8030.0 0.010283
8050.0 0.010112
8070.0 0.0099154
8090.0 0.0097136
8110.0 0.0097066
8130.0 0.0097612
8150.0 0.0097227
8170.0 0.0096421
8190.0 0.0094048
8210.0 0.0088803
8230.0 0.008271
8250.0 0.0079031
8270.0 0.0076482
8290.0 0.0074443
8310.0 0.0074033
8330.0 0.0074581
8350.0 0.0072761
8370.0 0.0071231
8390.0 0.0072861
8410.0 0.0076589
8430.0 0.0081741
8450.0 0.0086912
8470.0 0.0089384
8490.0 0.0091405
8510.0 0.0092423
8530.0 0.0093498
8550.0 0.0094861
8570.0 0.0095609
8590.0 0.0096325
8610.0 0.0098843
8630.0 0.0099843
8650.0 0.0097718
8670.0 0.0097632
8690.0 0.0098643
8710.0 0.0099145
8730.0 0.0098442
8750.0 0.0095754
8770.0 0.0094548
8790.0 0.0093883
8810.0 0.0092499
8830.0 0.0086749
8850.0 0.0079412
8870.0 0.0074116
8890.0 0.0071218
8910.0 0.006713
8930.0 0.0062404
8950.0 0.0059661
8970.0 0.0059231
8990.0 0.0059625
9010.0 0.0059428
9030.0 0.0059006
9050.0 0.0058612
9070.0 0.0058263
9090.0 0.0057922
9110.0 0.0057583
9130.0 0.0057245
9150.0 0.005691
9170.0 0.0056575
9190.0 0.0056241
9210.0 0.0055906
9230.0 0.0055578
9250.0 0.0055251
9270.0 0.0054925
9290.0 0.00546
9310.0 0.0054277
9330.0 0.0053955
9350.0 0.0053636
9370.0 0.0053317
9390.0 0.0053001
9410.0 0.0052685
9430.0 0.0052368
9450.0 0.0052037
9470.0 0.0051714
9490.0 0.0051425
9510.0 0.0051126
9530.0 0.0050829
9550.0 0.0050527
9570.0 0.0050227
9590.0 0.0049929
9610.0 0.0049632
9630.0 0.0049335
9650.0 0.0049039
9670.0 0.0048748
9690.0 0.0048456
9710.0 0.0048165
9730.0 0.0047878
9750.0 0.0047591
9770.0 0.0047303
9790.0 0.0047019
9810.0 0.0046737
9830.0 0.004645
9850.0 0.0046139
9870.0 0.0045868
9890.0 0.00456
9910.0 0.0045329
9930.0 0.0045054
9950.0 0.0044788
9970.0 0.0044514
9990.0 0.0044234
10010.0 0.0043925
10030.0 0.0043639
10050.0 0.0043388
10070.0 0.0043134
10090.0 0.0042878
10110.0 0.0042599
10130.0 0.0042249
10150.0 0.0041998
10170.0 0.0041763
10190.0 0.0041508
10210.0 0.0041257
10230.0 0.0041005
10250.0 0.0040738
10270.0 0.0040472
10290.0 0.0040215
10310.0 0.0039947
10330.0 0.003967
10350.0 0.0039406
10370.0 0.0039144
10390.0 0.003887
10410.0 0.0038599
10430.0 0.0038341
10450.0 0.0038071
10470.0 0.0037796
10490.0 0.003753
10510.0 0.0037266
10530.0 0.0036984
10550.0 0.0036709
10570.0 0.0036445
10590.0 0.003617
10610.0 0.003589
10630.0 0.0035622
10650.0 0.0035351
10670.0 0.0035066
10690.0 0.0034787
10710.0 0.0034515
10730.0 0.0034233
10750.0 0.003394
10770.0 0.0033666
10790.0 0.0033387
10810.0 0.0033096
10830.0 0.0032811
10850.0 0.0032535
10870.0 0.003224
10890.0 0.0031945
10910.0 0.0031663
10930.0 0.0031379
10950.0 0.0031087
10970.0 0.0030807
10990.0 0.0030542
11010.0 0.0030534
11030.0 0.0030276
11050.0 0.0030031
11070.0 0.0029787
11090.0 0.0029531
11110.0 0.0029291
11130.0 0.0029056
11150.0 0.0028818
11170.0 0.0028585
11190.0 0.0028369
11210.0 0.0028157
11230.0 0.0027951
11250.0 0.0027762
11270.0 0.0027588
11290.0 0.0027419
11310.0 0.0027262
11330.0 0.0027125
11350.0 0.0026993
11370.0 0.0026866
11390.0 0.002675
11410.0 0.0026638
11430.0 0.0026524
11450.0 0.0026411
11470.0 0.0026298
11490.0 0.0026179
11510.0 0.002605
11530.0 0.0025918
11550.0 0.0025778
11570.0 0.0025621
11590.0 0.0025454
11610.0 0.0025279
11630.0 0.0025086
11650.0 0.0024873
11670.0 0.0024656
11690.0 0.0024426
11710.0 0.0024177
11730.0 0.0023918
11750.0 0.0023658
11770.0 0.002338
11790.0 0.002309
11810.0 0.0022802
11830.0 0.002251
11850.0 0.0022198
11870.0 0.0021893
11890.0 0.0021597
11910.0 0.0021292
11930.0 0.0020988
11950.0 0.0020699
11970.0 0.0020413
11990.0 0.0020123
12010.0 0.0019849
12030.0 0.001959
12050.0 0.0019334
12070.0 0.0019085
12090.0 0.001886
12110.0 0.0018643
12130.0 0.0018434
12150.0 0.0018242
12170.0 0.0018068
12190.0 0.00179
12210.0 0.001775
12230.0 0.0017621
12250.0 0.0017507
12270.0 0.0017409
12290.0 0.001733
12310.0 0.0017268
12330.0 0.0017221
12350.0 0.001719
12370.0 0.0017171
12390.0 0.0017163
12410.0 0.0017167
12430.0 0.0017176
12450.0 0.0017189
12470.0 0.0017207
12490.0 0.0017224
12510.0 0.0017237
12530.0 0.0017248
12550.0 0.0017253
12570.0 0.0017249
12590.0 0.0017236
12610.0 0.0017211
12630.0 0.0017173
12650.0 0.0017122
12670.0 0.0017056
12690.0 0.0016975
12710.0 0.0016879
12730.0 0.0016771
12750.0 0.0016645
12770.0 0.0016507
12790.0 0.0016362
12810.0 0.0016204
12830.0 0.0016036
12850.0 0.0015867
12870.0 0.0015696
12890.0 0.0015517
12910.0 0.0015339
12930.0 0.0015166
12950.0 0.0014989
12970.0 0.0014811
12990.0 0.0014643
13010.0 0.0014478
13030.0 0.0014312
13050.0 0.0014152
13070.0 0.0014001
13090.0 0.0013848
13110.0 0.0013699
13130.0 0.0013559
13150.0 0.0013423
13170.0 0.0013287
13190.0 0.0013161
13210.0 0.0013043
13230.0 0.0012928
13250.0 0.0012819
13270.0 0.0012719
13290.0 0.0012623
13310.0 0.0012529
13330.0 0.0012441
13350.0 0.0012357
13370.0 0.0012274
13390.0 0.001219
13410.0 0.0012111
13430.0 0.001203
13450.0 0.0011946
13470.0 0.0011862
13490.0 0.0011777
13510.0 0.0011685
13530.0 0.0011591
13550.0 0.0011497
13570.0 0.0011399
13590.0 0.0011297
13610.0 0.0011195
13630.0 0.0011094
13650.0 0.0010988
13670.0 0.0010881
13690.0 0.0010778
13710.0 0.0010672
13730.0 0.0010563
13750.0 0.0010459
13770.0 0.0010356
13790.0 0.0010251
13810.0 0.0010146
13830.0 0.0010046
13850.0 0.00099441
13870.0 0.00098407
13890.0 0.00097412
13910.0 0.00096434
13930.0 0.00095432
13950.0 0.00094448
13970.0 0.00093525
13990.0 0.0009259
14010.0 0.00091656
14030.0 0.00090767
14050.0 0.00089898
14070.0 0.00088999
14090.0 0.00088138
14110.0 0.00087314
14130.0 0.00086486
14150.0 0.00085657
14170.0 0.00084883
14190.0 0.0008413
14210.0 0.00083373
14230.0 0.00082654
14250.0 0.00081983
14270.0 0.00081315
14290.0 0.0008067
14310.0 0.00080089
14330.0 0.00079537
14350.0 0.00079
14370.0 0.00078505
14390.0 0.00078055
14410.0 0.00077613
14430.0 0.00077194
14450.0 0.00076812
14470.0 0.00076446
14490.0 0.00076078
14510.0 0.00075737
14530.0 0.00075416
14550.0 0.00075089
14570.0 0.00074764
14590.0 0.00074454
14610.0 0.00074137
14630.0 0.00073805
14650.0 0.00073484
14670.0 0.00073171
14690.0 0.00072852
14710.0 0.00072542
14730.0 0.00072277
14750.0 0.00072037
14770.0 0.00071839
14790.0 0.00071709
14810.0 0.00071656
14830.0 0.00071687
14850.0 0.00071824
14870.0 0.00072065
14890.0 0.0007241
14910.0 0.00072862
14930.0 0.00073374
14950.0 0.00073916
14970.0 0.00074481
14990.0 0.00075008
15010.0 0.0007546
15030.0 0.00075839
15050.0 0.00076141
15070.0 0.00076357
15090.0 0.00076518
15110.0 0.0007664
15130.0 0.00076738
15150.0 0.00076826
15170.0 0.00076906
15190.0 0.00076985
15210.0 0.00077067
15230.0 0.00077152
15250.0 0.00077236
15270.0 0.00077324
15290.0 0.00077418
15310.0 0.00077512
15330.0 0.00077608
15350.0 0.00077709
15370.0 0.00077813
15390.0 0.00077916
15410.0 0.00078023
15430.0 0.00078135
15450.0 0.00078247
15470.0 0.00078361
15490.0 0.0007848
15510.0 0.00078601
15530.0 0.00078722
15550.0 0.00078846
15570.0 0.00078975
15590.0 0.00079103
15610.0 0.00079232
15630.0 0.00079367
15650.0 0.00079503
15670.0 0.0007964
15690.0 0.00079779
15710.0 0.00079923
15730.0 0.00080066
15750.0 0.0008021
15770.0 0.00080359
15790.0 0.00080508
15810.0 0.00080656
15830.0 0.00080809
15850.0 0.00080965
15870.0 0.0008112
15890.0 0.00081277
15910.0 0.00081438
15930.0 0.00081598
15950.0 0.00081758
15970.0 0.00081922
15990.0 0.00082087
16010.0 0.00082252
16030.0 0.00082417
16050.0 0.00082588
16070.0 0.00082757
16090.0 0.00082926
16110.0 0.00083098
16130.0 0.00083273
16150.0 0.00083443
16170.0 0.00083616
16190.0 0.00083793
16210.0 0.00083968
16230.0 0.00084143
16250.0 0.0008432
16270.0 0.000845
16290.0 0.00084676
16310.0 0.00084854
16330.0 0.00085034
16350.0 0.00085214
16370.0 0.0008539
16390.0 0.00085571
16410.0 0.00085752
16430.0 0.0008593
16450.0 0.0008611
16470.0 0.00086292
16490.0 0.00086471
16510.0 0.00086649
16530.0 0.00086829
16550.0 0.00087009
16570.0 0.00087186
16590.0 0.00087363
16610.0 0.00087544
16630.0 0.00087721
16650.0 0.00087897
16670.0 0.00088074
16690.0 0.00088251
16710.0 0.00088423
16730.0 0.00088596
16750.0 0.00088771
16770.0 0.00088942
16790.0 0.00089111
16810.0 0.00089283
16830.0 0.00089453
16850.0 0.00089619
16870.0 0.00089785
16890.0 0.00089952
16910.0 0.00090114
16930.0 0.00090273
16950.0 0.00090435
16970.0 0.00090595
16990.0 0.0009075
17010.0 0.00090905
17030.0 0.00091061
17050.0 0.00091211
17070.0 0.0009136
17090.0 0.00091509
17110.0 0.00091655
17130.0 0.00091795
17150.0 0.00091936
17170.0 0.00092077
17190.0 0.00092213
17210.0 0.00092346
17230.0 0.0009248
17250.0 0.00092609
17270.0 0.00092733
17290.0 0.00092857
17310.0 0.0009298
17330.0 0.00093097
17350.0 0.0009321
17370.0 0.00093326
17390.0 0.00093436
17410.0 0.0009354
17430.0 0.00093645
17450.0 0.00093748
17470.0 0.00093841
17490.0 0.00093934
17510.0 0.00094027
17530.0 0.00094114
17550.0 0.00094195
17570.0 0.00094277
17590.0 0.00094356
17610.0 0.00094427
17630.0 0.00094496
17650.0 0.00094563
17670.0 0.00094625
17690.0 0.00094679
17710.0 0.00094735
17730.0 0.00094787
17750.0 0.00094832
17770.0 0.00094874
17790.0 0.00094916
17810.0 0.00094949
17830.0 0.00094977
17850.0 0.00095004
17870.0 0.00095026
17890.0 0.00095041
17910.0 0.00095053
17930.0 0.00095065
17950.0 0.00095069
17970.0 0.00095067
17990.0 0.00095064
18010.0 0.00095057
18030.0 0.0009504
18050.0 0.00095021
18070.0 0.00095
18090.0 0.00094972
18110.0 0.00094938
18130.0 0.00094903
18150.0 0.00094863
18170.0 0.00094815
18190.0 0.00094764
18210.0 0.00094711
18230.0 0.00094648
18250.0 0.0009458
18270.0 0.00094512
18290.0 0.00094437
18310.0 0.00094355
18330.0 0.00094271
18350.0 0.00094184
18370.0 0.00094087
18390.0 0.00093986
18410.0 0.00093884
18430.0 0.00093775
18450.0 0.00093656
18470.0 0.00093538
18490.0 0.00093416
18510.0 0.00093285
18530.0 0.0009315
18550.0 0.00093014
18570.0 0.00092869
18590.0 0.00092717
18610.0 0.00092564
18630.0 0.00092406
18650.0 0.00092241
18670.0 0.0009207
18690.0 0.000919
18710.0 0.00091721
18730.0 0.00091536
18750.0 0.00091349
18770.0 0.00091158
18790.0 0.00090956
18810.0 0.00090753
18830.0 0.00090547
18850.0 0.00090335
18870.0 0.00090116
18890.0 0.00089896
18910.0 0.00089672
18930.0 0.00089439
18950.0 0.00089203
18970.0 0.00088965
18990.0 0.0008872
19010.0 0.00088466
19030.0 0.00088215
19050.0 0.00087958
19070.0 0.00087694
19090.0 0.00087427
19110.0 0.00087159
19130.0 0.00086882
19150.0 0.00086601
19170.0 0.00086318
19190.0 0.00086031
19210.0 0.00085737
19230.0 0.0008544
19250.0 0.00085143
19270.0 0.00084838
19290.0 0.00084529
19310.0 0.00084219
19330.0 0.00083905
19350.0 0.00083582
19370.0 0.00083259
19390.0 0.00082934
19410.0 0.00082603
19430.0 0.00082268
19450.0 0.00081933
19470.0 0.00081593
19490.0 0.00081247
19510.0 0.000809
19530.0 0.00080552
19550.0 0.00080196
19570.0 0.00079837
19590.0 0.0007948
19610.0 0.00079118
19630.0 0.0007875
19650.0 0.00078382
19670.0 0.00078014
19690.0 0.00077638
19710.0 0.0007726
19730.0 0.00076882
19750.0 0.00076501
19770.0 0.00076113
19790.0 0.00075727
19810.0 0.0007534
19830.0 0.00074946
19850.0 0.00074548
19870.0 0.00074146
19890.0 0.00073729
19910.0 0.00073288
19930.0 0.00072819
19950.0 0.00072303
19970.0 0.00071712
19990.0 0.00071036
20010.0 0.00070287
20030.0 0.00069431
20050.0 0.00068472
20070.0 0.00067458
20090.0 0.00066395
20110.0 0.00065245
20130.0 0.00064097
20150.0 0.00062969
20170.0 0.00061823
20190.0 0.00060675
20210.0 0.00059579
20230.0 0.00058505
20250.0 0.00057425
20270.0 0.00056394
20290.0 0.00055414
20310.0 0.0005445
20330.0 0.00053506
20350.0 0.00052645
20370.0 0.00051817
20390.0 0.00051016
20410.0 0.00050268
20430.0 0.00049577
20450.0 0.00048906
20470.0 0.0004828
20490.0 0.00047708
20510.0 0.00047171
20530.0 0.00046665
20550.0 0.000462
20570.0 0.00045774
20590.0 0.00045372
20610.0 0.00044998
20630.0 0.00044651
20650.0 0.00044324
20670.0 0.00044015
20690.0 0.00043722
20710.0 0.0004344
20730.0 0.00043166
20750.0 0.00042896
20770.0 0.00042626
20790.0 0.00042354
20810.0 0.00042077
20830.0 0.00041791
20850.0 0.00041493
20870.0 0.00041182
20890.0 0.00040853
20910.0 0.0004051
20930.0 0.00040149
20950.0 0.00039765
20970.0 0.00039367
20990.0 0.00038953
21010.0 0.00038513
21030.0 0.00038058
21050.0 0.00037594
21070.0 0.00037112
21090.0 0.0003661
21110.0 0.00036109
21130.0 0.00035603
21150.0 0.00035082
21170.0 0.00034559
21190.0 0.00034045
21210.0 0.00033521
21230.0 0.00032994
21250.0 0.00032482
21270.0 0.00031977
21290.0 0.0003147
21310.0 0.00030975
21330.0 0.000305
21350.0 0.00030026
21370.0 0.00029561
21390.0 0.00029116
21410.0 0.00028683
21430.0 0.0002825
21450.0 0.00027837
21470.0 0.00027442
21490.0 0.00027053
21510.0 0.00026674
21530.0 0.00026312
21550.0 0.0002596
21570.0 0.00025612
21590.0 0.00025277
21610.0 0.00024954
21630.0 0.00024635
21650.0 0.00024321
21670.0 0.00024021
21690.0 0.00023726
21710.0 0.00023433
21730.0 0.00023146
21750.0 0.00022867
21770.0 0.00022586
21790.0 0.00022308
21810.0 0.00022035
21830.0 0.00021763
21850.0 0.00021489
21870.0 0.00021218
21890.0 0.00020949
21910.0 0.00020677
21930.0 0.00020404
21950.0 0.00020133
21970.0 0.0001986
21990.0 0.00019581
22010.0 0.00019306
22030.0 0.00019032
22050.0 0.00018753
22070.0 0.00018474
22090.0 0.00018201
22110.0 0.00017924
22130.0 0.00017646
22150.0 0.00017372
22170.0 0.00017101
22190.0 0.00016827
22210.0 0.00016554
22230.0 0.0001629
22250.0 0.00016025
22270.0 0.00015761
22290.0 0.00015502
22310.0 0.00015247
22330.0 0.0001499
22350.0 0.00014736
22370.0 0.00014488
22390.0 0.0001424
22410.0 0.00013991
22430.0 0.00013749
22450.0 0.00013509
22470.0 0.00013267
22490.0 0.00013027
22510.0 0.00012793
22530.0 0.00012556
22550.0 0.00012319
22570.0 0.00012088
22590.0 0.0001186
22610.0 0.0001163
22630.0 0.00011404
22650.0 0.00011185
22670.0 0.00010966
22690.0 0.0001075
22710.0 0.00010542
22730.0 0.00010338
22750.0 0.00010135
22770.0 9.9414e-05
22790.0 9.756e-05
22810.0 9.5745e-05
22830.0 9.3992e-05
22850.0 9.2339e-05
22870.0 9.075e-05
22890.0 8.9218e-05
22910.0 8.778e-05
22930.0 8.643e-05
22950.0 8.515e-05
22970.0 8.3949e-05
22990.0 8.2843e-05
23010.0 8.1807e-05
23030.0 8.0841e-05
23050.0 7.9941e-05
23070.0 7.9091e-05
23090.0 7.8293e-05
23110.0 7.7528e-05
23130.0 7.6778e-05
23150.0 7.6038e-05
23170.0 7.53e-05
23190.0 7.4542e-05
23210.0 7.3759e-05
23230.0 7.295e-05
23250.0 7.2103e-05
23270.0 7.1215e-05
23290.0 7.0286e-05
23310.0 6.9307e-05
23330.0 6.8288e-05
23350.0 6.723e-05
23370.0 6.6127e-05
23390.0 6.4986e-05
23410.0 6.3829e-05
23430.0 6.2638e-05
23450.0 6.1407e-05
23470.0 6.0172e-05
23490.0 5.8934e-05
23510.0 5.7677e-05
