#lamb flux
1010.0 9.8147e-05
1030.0 0.00012216
1050.0 0.00014882
1070.0 0.00017758
1090.0 0.00020877
1110.0 0.00023856
1130.0 0.00026659
1150.0 0.00029947
1170.0 0.00033284
1190.0 0.00036365
1210.0 0.00039221
1230.0 0.00042117
1250.0 0.00044896
1270.0 0.0004757
1290.0 0.00050453
1310.0 0.000534
1330.0 0.00056321
1350.0 0.00059428
1370.0 0.00062823
1390.0 0.00066345
1410.0 0.00069996
1430.0 0.00074023
1450.0 0.0007828
1470.0 0.00082637
1490.0 0.0008722
1510.0 0.00091694
1530.0 0.00095889
1550.0 0.0010055
1570.0 0.0010773
1590.0 0.00115
1610.0 0.0012212
1630.0 0.0012933
1650.0 0.0013656
1670.0 0.0014355
1690.0 0.0015034
1710.0 0.0015714
1730.0 0.0016381
1750.0 0.0017004
1770.0 0.0017623
1790.0 0.0018235
1810.0 0.0018817
1830.0 0.0019376
1850.0 0.0019945
1870.0 0.0020487
1890.0 0.0021001
1910.0 0.0021515
1930.0 0.002203
1950.0 0.0022519
1970.0 0.0022995
1990.0 0.0023476
2010.0 0.002394
2030.0 0.0024377
2050.0 0.0024819
2070.0 0.0025272
2090.0 0.0025693
2110.0 0.0026108
2130.0 0.0026532
2150.0 0.0026943
2170.0 0.0027331
2190.0 0.0027732
2210.0 0.002813
2230.0 0.0028506
2250.0 0.0028878
2270.0 0.0029268
2290.0 0.0029642
2310.0 0.0029999
2330.0 0.0030369
2350.0 0.0030742
2370.0 0.0031097
2390.0 0.0031456
2410.0 0.0031836
2430.0 0.0032208
2450.0 0.0032587
2470.0 0.0033019
2490.0 0.0033539
2510.0 0.0034156
2530.0 0.0034986
2550.0 0.0036171
2570.0 0.0037791
2590.0 0.0039949
2610.0 0.0043054
2630.0 0.0047162
2650.0 0.0052148
2670.0 0.0058258
2690.0 0.0065583
2710.0 0.0073496
2730.0 0.0081689
2750.0 0.0090419
2770.0 0.0098912
2790.0 0.010661
2810.0 0.011366
2830.0 0.012005
2850.0 0.012516
2870.0 0.012945
2890.0 0.013322
2910.0 0.013654
2930.0 0.013948
2950.0 0.014238
2970.0 0.014528
2990.0 0.014811
3010.0 0.015093
3030.0 0.015386
3050.0 0.015679
3070.0 0.01596
3090.0 0.016247
3110.0 0.016543
3130.0 0.016854
3150.0 0.017254
3170.0 0.017799
3190.0 0.018561
3210.0 0.019603
3230.0 0.021019
3250.0 0.022757
3270.0 0.024181
3290.0 0.026819
3310.0 0.032979
3330.0 0.034419
3350.0 0.034692
3370.0 0.034902
3390.0 0.035118
3410.0 0.035354
3430.0 0.035606
3450.0 0.035864
3470.0 0.036108
3490.0 0.036355
3510.0 0.036644
3530.0 0.035997
3550.0 0.034585
3570.0 0.034311
3590.0 0.035635
3610.0 0.038292
3630.0 0.038643
3650.0 0.036682
3670.0 0.03373
3690.0 0.032256
3710.0 0.032888
3730.0 0.033977
3750.0 0.034596
3770.0 0.0359
3790.0 0.037428
3810.0 0.03697
3830.0 0.034814
3850.0 0.033087
3870.0 0.032522
3890.0 0.03244
3910.0 0.03209
3930.0 0.032286
3950.0 0.033794
3970.0 0.035559
3990.0 0.036767
4010.0 0.036147
4030.0 0.035049
4050.0 0.034687
4070.0 0.034514
4090.0 0.034488
4110.0 0.034107
4130.0 0.03298
4150.0 0.031807
4170.0 0.031451
4190.0 0.030139
4210.0 0.028141
4230.0 0.02593
4250.0 0.02375
4270.0 0.022221
4290.0 0.021064
4310.0 0.020701
4330.0 0.021241
4350.0 0.021762
4370.0 0.022536
4390.0 0.023849
4410.0 0.024951
4430.0 0.024518
4450.0 0.022757
4470.0 0.021217
4490.0 0.020448
4510.0 0.020055
4530.0 0.019982
4550.0 0.01993
4570.0 0.020063
4590.0 0.020512
4610.0 0.021372
4630.0 0.021913
4650.0 0.022234
4670.0 0.021724
4690.0 0.020469
4710.0 0.019165
4730.0 0.018315
4750.0 0.017738
4770.0 0.017787
4790.0 0.017565
4810.0 0.017031
4830.0 0.017072
4850.0 0.017267
4870.0 0.017426
4890.0 0.016721
4910.0 0.015969
4930.0 0.01479
4950.0 0.013393
4970.0 0.012276
4990.0 0.011348
5010.0 0.011079
5030.0 0.011277
5050.0 0.011218
5070.0 0.011422
5090.0 0.011877
5110.0 0.011813
5130.0 0.0117
5150.0 0.011667
5170.0 0.011619
5190.0 0.011751
5210.0 0.011537
5230.0 0.011265
5250.0 0.011115
5270.0 0.010998
5290.0 0.010877
5310.0 0.010713
5330.0 0.010368
5350.0 0.010169
5370.0 0.0099464
5390.0 0.0096949
5410.0 0.0095268
5430.0 0.0094078
5450.0 0.0095598
5470.0 0.009702
5490.0 0.009806
5510.0 0.010097
5530.0 0.010219
5550.0 0.010407
5570.0 0.010417
5590.0 0.010187
5610.0 0.010163
5630.0 0.010331
5650.0 0.010278
5670.0 0.010142
5690.0 0.0099163
5710.0 0.010044
5730.0 0.010258
5750.0 0.0099474
5770.0 0.009584
5790.0 0.0088855
5810.0 0.0078434
5830.0 0.0086481
5850.0 0.009841
5870.0 0.010284
5890.0 0.010545
5910.0 0.010801
5930.0 0.011017
5950.0 0.011042
5970.0 0.01114
5990.0 0.011193
6010.0 0.011099
6030.0 0.010941
6050.0 0.011013
6070.0 0.011245
6090.0 0.011293
6110.0 0.01114
6130.0 0.011011
6150.0 0.010788
6170.0 0.01054
6190.0 0.010336
6210.0 0.010163
6230.0 0.010194
6250.0 0.010172
6270.0 0.010146
6290.0 0.010224
6310.0 0.010302
6330.0 0.010236
6350.0 0.010065
6370.0 0.010009
6390.0 0.0099845
6410.0 0.0098199
6430.0 0.009687
6450.0 0.0095712
6470.0 0.0094529
6490.0 0.0093903
6510.0 0.0093377
6530.0 0.0091596
6550.0 0.0090153
6570.0 0.0089429
6590.0 0.0089493
6610.0 0.0089216
6630.0 0.0086377
6650.0 0.0084202
6670.0 0.0083462
6690.0 0.0082152
6710.0 0.0080122
6730.0 0.0079279
6750.0 0.0079618
6770.0 0.0084248
6790.0 0.0094681
6810.0 0.0088998
6830.0 0.0077012
6850.0 0.0073545
6870.0 0.0071769
6890.0 0.0071112
6910.0 0.0070537
6930.0 0.0069983
6950.0 0.0068799
6970.0 0.0066217
6990.0 0.0064746
7010.0 0.0064819
7030.0 0.0064055
7050.0 0.0062158
7070.0 0.0060902
7090.0 0.0060618
7110.0 0.0061107
7130.0 0.0060146
7150.0 0.0059253
7170.0 0.0058523
7190.0 0.0058459
7210.0 0.0057706
7230.0 0.0056967
7250.0 0.0056668
7270.0 0.0056066
7290.0 0.0055729
7310.0 0.0055887
7330.0 0.0054425
7350.0 0.0052282
7370.0 0.005034
7390.0 0.0048959
7410.0 0.0048586
7430.0 0.0048166
7450.0 0.0047537
7470.0 0.0047029
7490.0 0.0045778
7510.0 0.0044588
7530.0 0.0044106
7550.0 0.0045306
7570.0 0.0044481
7590.0 0.0041019
7610.0 0.0039592
7630.0 0.0041327
7650.0 0.0041217
7670.0 0.0041241
7690.0 0.0042724
7710.0 0.0043192
7730.0 0.0042533
7750.0 0.0044413
7770.0 0.0042124
7790.0 0.0040288
7810.0 0.004237
7830.0 0.0043124
7850.0 0.004399
7870.0 0.0043929
7890.0 0.0043898
7910.0 0.0043006
7930.0 0.0043036
7950.0 0.0044729
7970.0 0.0044002
7990.0 0.0040265
8010.0 0.0054506
8030.0 0.005342
8050.0 0.0052545
8070.0 0.0050949
8090.0 0.004577
8110.0 0.0045326
8130.0 0.0050333
8150.0 0.0053087
8170.0 0.0054415
8190.0 0.0056549
8210.0 0.0054693
8230.0 0.0054732
8250.0 0.0054555
8270.0 0.0054096
8290.0 0.0053199
8310.0 0.0050637
8330.0 0.0049815
8350.0 0.005121
8370.0 0.0051743
8390.0 0.0050672
8410.0 0.0050062
8430.0 0.0048498
8450.0 0.0047737
8470.0 0.0050818
8490.0 0.0051155
8510.0 0.0048243
8530.0 0.004739
8550.0 0.0046837
8570.0 0.0044196
8590.0 0.0044341
8610.0 0.004488
8630.0 0.0046043
8650.0 0.0046077
8670.0 0.0046066
8690.0 0.0045221
8710.0 0.0043724
8730.0 0.0042607
8750.0 0.0041825
8770.0 0.0041785
8790.0 0.0042776
8810.0 0.0040792
8830.0 0.0040492
8850.0 0.0042081
8870.0 0.0039929
8890.0 0.003737
8910.0 0.0036646
8930.0 0.0036287
8950.0 0.003417
8970.0 0.0032776
8990.0 0.0032075
9010.0 0.0030372
9030.0 0.002994
9050.0 0.0029783
9070.0 0.0029641
9090.0 0.0029496
9110.0 0.0029349
9130.0 0.0029201
9150.0 0.0029055
9170.0 0.0028906
9190.0 0.0028757
9210.0 0.0028606
9230.0 0.0028454
9250.0 0.0028301
9270.0 0.0028148
9290.0 0.0027993
9310.0 0.0027849
9330.0 0.0027721
9350.0 0.0027593
9370.0 0.0027463
9390.0 0.0027333
9410.0 0.0027202
9430.0 0.002707
9450.0 0.0026938
9470.0 0.002682
9490.0 0.0026694
9510.0 0.0026553
9530.0 0.0026413
9550.0 0.0026276
9570.0 0.0026141
9590.0 0.0026005
9610.0 0.0025885
9630.0 0.0025768
9650.0 0.002565
9670.0 0.0025531
9690.0 0.0025413
9710.0 0.0025295
9730.0 0.0025175
9750.0 0.0025056
9770.0 0.0024939
9790.0 0.002482
9810.0 0.0024701
9830.0 0.0024583
9850.0 0.0024453
9870.0 0.0024313
9890.0 0.002421
9910.0 0.0024102
9930.0 0.0023975
9950.0 0.0023859
9970.0 0.0023751
9990.0 0.002364
10010.0 0.0023529
10030.0 0.0023416
10050.0 0.0023302
10070.0 0.0023189
10090.0 0.0023077
10110.0 0.0022964
10130.0 0.0022852
10150.0 0.0022741
10170.0 0.0022631
10190.0 0.002252
10210.0 0.0022412
10230.0 0.0022304
10250.0 0.0022196
10270.0 0.0022089
10290.0 0.0021984
10310.0 0.0021879
10330.0 0.0021774
10350.0 0.0021671
10370.0 0.0021568
10390.0 0.0021465
10410.0 0.0021349
10430.0 0.0021228
10450.0 0.0021147
10470.0 0.0021056
10490.0 0.0020965
10510.0 0.0020873
10530.0 0.0020777
10550.0 0.0020683
10570.0 0.0020591
10590.0 0.0020499
10610.0 0.0020406
10630.0 0.0020316
10650.0 0.0020227
10670.0 0.0020137
10690.0 0.0020049
10710.0 0.0019963
10730.0 0.0019876
10750.0 0.0019789
10770.0 0.0019706
10790.0 0.0019624
10810.0 0.001954
10830.0 0.0019459
10850.0 0.001938
10870.0 0.0019298
10890.0 0.0019217
10910.0 0.0019139
10930.0 0.0019058
10950.0 0.0018974
10970.0 0.0018889
10990.0 0.0018803
11010.0 0.0018096
11030.0 0.0018003
11050.0 0.0017912
11070.0 0.0017818
11090.0 0.0017715
11110.0 0.0017616
11130.0 0.0017516
11150.0 0.0017409
11170.0 0.0017299
11190.0 0.0017193
11210.0 0.0017082
11230.0 0.0016967
11250.0 0.0016856
11270.0 0.0016747
11290.0 0.0016635
11310.0 0.0016526
11330.0 0.0016427
11350.0 0.0016329
11370.0 0.0016235
11390.0 0.0016148
11410.0 0.0016067
11430.0 0.0015986
11450.0 0.001591
11470.0 0.001584
11490.0 0.001577
11510.0 0.0015699
11530.0 0.0015631
11550.0 0.0015564
11570.0 0.0015492
11590.0 0.001542
11610.0 0.0015348
11630.0 0.001527
11650.0 0.0015188
11670.0 0.0015106
11690.0 0.0015023
11710.0 0.0014933
11730.0 0.0014843
11750.0 0.0014755
11770.0 0.0014662
11790.0 0.0014566
11810.0 0.0014474
11830.0 0.0014383
11850.0 0.0014287
11870.0 0.0014196
11890.0 0.001411
11910.0 0.0014024
11930.0 0.001394
11950.0 0.0013863
11970.0 0.001379
11990.0 0.0013718
12010.0 0.0013653
12030.0 0.0013593
12050.0 0.0013537
12070.0 0.0013484
12090.0 0.0013439
12110.0 0.0013398
12130.0 0.0013359
12150.0 0.0013325
12170.0 0.0013294
12190.0 0.0013263
12210.0 0.0013234
12230.0 0.0013207
12250.0 0.0013178
12270.0 0.0013146
12290.0 0.0013113
12310.0 0.0013077
12330.0 0.0013035
12350.0 0.0012987
12370.0 0.0012935
12390.0 0.0012877
12410.0 0.0012809
12430.0 0.0012738
12450.0 0.0012662
12470.0 0.0012577
12490.0 0.0012487
12510.0 0.0012396
12530.0 0.0012299
12550.0 0.0012194
12570.0 0.0012091
12590.0 0.0011986
12610.0 0.0011875
12630.0 0.0011763
12650.0 0.0011657
12670.0 0.0011549
12690.0 0.0011439
12710.0 0.0011336
12730.0 0.0011235
12750.0 0.0011133
12770.0 0.0011036
12790.0 0.0010947
12810.0 0.0010859
12830.0 0.0010775
12850.0 0.0010699
12870.0 0.001063
12890.0 0.0010563
12910.0 0.0010503
12930.0 0.0010451
12950.0 0.0010402
12970.0 0.001036
12990.0 0.0010326
13010.0 0.0010298
13030.0 0.0010275
13050.0 0.0010258
13070.0 0.0010246
13090.0 0.0010239
13110.0 0.0010235
13130.0 0.0010234
13150.0 0.0010234
13170.0 0.0010234
13190.0 0.0010232
13210.0 0.0010228
13230.0 0.0010219
13250.0 0.0010206
13270.0 0.0010188
13290.0 0.0010164
13310.0 0.0010133
13330.0 0.0010095
13350.0 0.0010052
13370.0 0.0010002
13390.0 0.00099436
13410.0 0.00098834
13430.0 0.0009817
13450.0 0.00097437
13470.0 0.00096676
13490.0 0.00095898
13510.0 0.00095032
13530.0 0.00094142
13550.0 0.00093258
13570.0 0.00092338
13590.0 0.00091369
13610.0 0.00090413
13630.0 0.0008947
13650.0 0.00088474
13670.0 0.00087478
13690.0 0.00086513
13710.0 0.00085533
13730.0 0.00084509
13750.0 0.00083553
13770.0 0.00082616
13790.0 0.00081665
13810.0 0.00080739
13830.0 0.00079876
13850.0 0.00079008
13870.0 0.00078152
13890.0 0.00077353
13910.0 0.0007659
13930.0 0.00075826
13950.0 0.00075096
13970.0 0.00074431
13990.0 0.00073772
14010.0 0.00073129
14030.0 0.00072534
14050.0 0.00071969
14070.0 0.00071399
14090.0 0.0007087
14110.0 0.0007038
14130.0 0.00069902
14150.0 0.00069438
14170.0 0.00069016
14190.0 0.00068613
14210.0 0.00068214
14230.0 0.00067838
14250.0 0.00067487
14270.0 0.00067132
14290.0 0.00066783
14310.0 0.00066459
14330.0 0.0006614
14350.0 0.00065817
14370.0 0.00065505
14390.0 0.00065208
14410.0 0.00064903
14430.0 0.00064601
14450.0 0.00064311
14470.0 0.00064024
14490.0 0.00063725
14510.0 0.00063438
14530.0 0.00063159
14550.0 0.00062871
14570.0 0.00062581
14590.0 0.000623
14610.0 0.00062013
14630.0 0.00061712
14650.0 0.00061418
14670.0 0.00061126
14690.0 0.00060821
14710.0 0.00060507
14730.0 0.00060208
14750.0 0.00059898
14770.0 0.00059575
14790.0 0.00059255
14810.0 0.00058938
14830.0 0.00058595
14850.0 0.00058252
14870.0 0.00057916
14890.0 0.00057574
14910.0 0.00057223
14930.0 0.0005689
14950.0 0.00056575
14970.0 0.00056264
14990.0 0.00055981
15010.0 0.00055732
15030.0 0.00055506
15050.0 0.00055295
15070.0 0.00055117
15090.0 0.00054953
15110.0 0.00054795
15130.0 0.00054644
15150.0 0.00054502
15170.0 0.00054357
15190.0 0.0005421
15210.0 0.00054068
15230.0 0.00053928
15250.0 0.00053782
15270.0 0.00053637
15290.0 0.00053499
15310.0 0.00053357
15330.0 0.00053212
15350.0 0.00053073
15370.0 0.00052934
15390.0 0.00052788
15410.0 0.00052646
15430.0 0.00052508
15450.0 0.00052366
15470.0 0.00052221
15490.0 0.00052084
15510.0 0.00051946
15530.0 0.00051803
15550.0 0.00051663
15570.0 0.00051527
15590.0 0.00051385
15610.0 0.00051241
15630.0 0.00051105
15650.0 0.00050967
15670.0 0.00050826
15690.0 0.00050687
15710.0 0.00050553
15730.0 0.00050413
15750.0 0.00050273
15770.0 0.00050137
15790.0 0.00050001
15810.0 0.00049858
15830.0 0.00049722
15850.0 0.00049588
15870.0 0.0004945
15890.0 0.00049312
15910.0 0.00049179
15930.0 0.00049043
15950.0 0.00048903
15970.0 0.00048768
15990.0 0.00048635
16010.0 0.00048498
16030.0 0.00048359
16050.0 0.00048228
16070.0 0.00048094
16090.0 0.00047957
16110.0 0.00047824
16130.0 0.00047693
16150.0 0.00047555
16170.0 0.00047419
16190.0 0.00047288
16210.0 0.00047155
16230.0 0.00047018
16250.0 0.00046887
16270.0 0.00046757
16290.0 0.00046622
16310.0 0.00046488
16330.0 0.00046359
16350.0 0.00046227
16370.0 0.00046089
16390.0 0.00045959
16410.0 0.0004583
16430.0 0.00045696
16450.0 0.00045564
16470.0 0.00045437
16490.0 0.00045304
16510.0 0.0004517
16530.0 0.00045041
16550.0 0.00044912
16570.0 0.00044778
16590.0 0.00044646
16610.0 0.0004452
16630.0 0.00044389
16650.0 0.00044257
16670.0 0.00044129
16690.0 0.00044002
16710.0 0.00043867
16730.0 0.00043737
16750.0 0.00043611
16770.0 0.0004348
16790.0 0.00043348
16810.0 0.00043222
16830.0 0.00043094
16850.0 0.00042963
16870.0 0.00042834
16890.0 0.00042709
16910.0 0.00042578
16930.0 0.00042445
16950.0 0.0004232
16970.0 0.00042192
16990.0 0.00042061
17010.0 0.00041933
17030.0 0.00041809
17050.0 0.00041679
17070.0 0.00041549
17090.0 0.00041423
17110.0 0.00041296
17130.0 0.00041163
17150.0 0.00041036
17170.0 0.00040912
17190.0 0.00040782
17210.0 0.00040653
17230.0 0.00040529
17250.0 0.00040402
17270.0 0.0004027
17290.0 0.00040144
17310.0 0.00040019
17330.0 0.00039889
17350.0 0.00039758
17370.0 0.00039635
17390.0 0.00039508
17410.0 0.00039379
17430.0 0.00039253
17450.0 0.00039129
17470.0 0.00038997
17490.0 0.00038868
17510.0 0.00038744
17530.0 0.00038617
17550.0 0.00038486
17570.0 0.00038361
17590.0 0.00038237
17610.0 0.00038107
17630.0 0.00037979
17650.0 0.00037855
17670.0 0.00037727
17690.0 0.00037594
17710.0 0.0003747
17730.0 0.00037345
17750.0 0.00037215
17770.0 0.00037088
17790.0 0.00036965
17810.0 0.00036836
17830.0 0.00036706
17850.0 0.0003658
17870.0 0.00036455
17890.0 0.00036324
17910.0 0.00036195
17930.0 0.00036072
17950.0 0.00035944
17970.0 0.00035814
17990.0 0.0003569
18010.0 0.00035564
18030.0 0.00035432
18050.0 0.00035304
18070.0 0.00035179
18090.0 0.00035051
18110.0 0.0003492
18130.0 0.00034796
18150.0 0.0003467
18170.0 0.00034539
18190.0 0.00034412
18210.0 0.00034287
18230.0 0.00034157
18250.0 0.00034025
18270.0 0.00033901
18290.0 0.00033774
18310.0 0.00033643
18330.0 0.00033516
18350.0 0.00033392
18370.0 0.00033261
18390.0 0.00033131
18410.0 0.00033005
18430.0 0.00032878
18450.0 0.00032745
18470.0 0.00032617
18490.0 0.00032492
18510.0 0.00032362
18530.0 0.00032232
18550.0 0.00032108
18570.0 0.00031979
18590.0 0.00031846
18610.0 0.00031719
18630.0 0.00031592
18650.0 0.00031461
18670.0 0.0003133
18690.0 0.00031205
18710.0 0.00031076
18730.0 0.00030945
18750.0 0.00030818
18770.0 0.00030692
18790.0 0.00030558
18810.0 0.00030427
18830.0 0.00030301
18850.0 0.00030171
18870.0 0.00030039
18890.0 0.00029912
18910.0 0.00029785
18930.0 0.00029653
18950.0 0.00029523
18970.0 0.00029396
18990.0 0.00029266
19010.0 0.0002913
19030.0 0.00029004
19050.0 0.00028876
19070.0 0.00028744
19090.0 0.00028614
19110.0 0.00028488
19130.0 0.00028356
19150.0 0.00028223
19170.0 0.00028095
19190.0 0.00027966
19210.0 0.00027832
19230.0 0.00027701
19250.0 0.00027575
19270.0 0.00027443
19290.0 0.00027311
19310.0 0.00027183
19330.0 0.00027054
19350.0 0.00026918
19370.0 0.00026788
19390.0 0.0002666
19410.0 0.00026528
19430.0 0.00026394
19450.0 0.00026267
19470.0 0.00026137
19490.0 0.00026003
19510.0 0.00025873
19530.0 0.00025745
19550.0 0.00025611
19570.0 0.00025476
19590.0 0.00025349
19610.0 0.00025218
19630.0 0.00025084
19650.0 0.00024954
19670.0 0.00024826
19690.0 0.00024692
19710.0 0.00024559
19730.0 0.0002443
19750.0 0.00024299
19770.0 0.00024162
19790.0 0.00024032
19810.0 0.00023904
19830.0 0.0002377
19850.0 0.00023638
19870.0 0.00023511
19890.0 0.00023381
19910.0 0.00023251
19930.0 0.0002313
19950.0 0.00023015
19970.0 0.00022906
19990.0 0.0002281
20010.0 0.0002273
20030.0 0.00022661
20050.0 0.00022604
20070.0 0.0002256
20090.0 0.00022524
20110.0 0.00022493
20130.0 0.00022467
20150.0 0.00022443
20170.0 0.0002242
20190.0 0.00022395
20210.0 0.00022371
20230.0 0.00022346
20250.0 0.00022319
20270.0 0.0002229
20290.0 0.0002226
20310.0 0.00022228
20330.0 0.00022192
20350.0 0.00022158
20370.0 0.00022121
20390.0 0.00022081
20410.0 0.0002204
20430.0 0.00021999
20450.0 0.00021955
20470.0 0.0002191
20490.0 0.00021866
20510.0 0.00021822
20530.0 0.00021776
20550.0 0.00021732
20570.0 0.00021691
20590.0 0.00021648
20610.0 0.00021606
20630.0 0.00021567
20650.0 0.00021529
20670.0 0.00021488
20690.0 0.0002145
20710.0 0.00021413
20730.0 0.00021373
20750.0 0.00021332
20770.0 0.00021291
20790.0 0.00021247
20810.0 0.00021198
20830.0 0.00021148
20850.0 0.00021095
20870.0 0.00021035
20890.0 0.00020972
20910.0 0.00020908
20930.0 0.00020839
20950.0 0.00020766
20970.0 0.00020691
20990.0 0.00020617
21010.0 0.00020536
21030.0 0.00020455
21050.0 0.00020377
21070.0 0.00020296
21090.0 0.00020214
21110.0 0.00020136
21130.0 0.0002006
21150.0 0.00019981
21170.0 0.00019905
21190.0 0.00019832
21210.0 0.00019756
21230.0 0.0001968
21250.0 0.00019606
21270.0 0.00019533
21290.0 0.00019456
21310.0 0.00019378
21330.0 0.00019303
21350.0 0.00019223
21370.0 0.0001914
21390.0 0.00019058
21410.0 0.00018974
21430.0 0.00018882
21450.0 0.00018792
21470.0 0.00018702
21490.0 0.00018608
21510.0 0.0001851
21530.0 0.00018415
21550.0 0.00018319
21570.0 0.00018216
21590.0 0.00018116
21610.0 0.00018017
21630.0 0.00017915
21650.0 0.0001781
21670.0 0.00017712
21690.0 0.00017613
21710.0 0.0001751
21730.0 0.00017411
21750.0 0.00017315
21770.0 0.00017214
21790.0 0.00017113
21810.0 0.00017017
21830.0 0.0001692
21850.0 0.00016819
21870.0 0.00016722
21890.0 0.00016628
21910.0 0.0001653
21930.0 0.00016432
21950.0 0.00016339
21970.0 0.00016246
21990.0 0.00016149
22010.0 0.00016058
22030.0 0.00015971
22050.0 0.00015884
22070.0 0.000158
22090.0 0.00015724
22110.0 0.0001565
22130.0 0.00015578
22150.0 0.00015512
22170.0 0.0001545
22190.0 0.00015389
22210.0 0.00015332
22230.0 0.00015281
22250.0 0.00015233
22270.0 0.00015185
22290.0 0.00015142
22310.0 0.00015102
22330.0 0.00015061
22350.0 0.00015021
22370.0 0.00014985
22390.0 0.00014947
22410.0 0.00014909
22430.0 0.00014872
22450.0 0.00014836
22470.0 0.00014798
22490.0 0.0001476
22510.0 0.00014723
22530.0 0.00014684
22550.0 0.00014644
22570.0 0.00014605
22590.0 0.00014567
22610.0 0.00014528
22630.0 0.0001449
22650.0 0.00014454
22670.0 0.00014419
22690.0 0.00014384
22710.0 0.00014352
22730.0 0.00014323
22750.0 0.00014293
22770.0 0.00014267
22790.0 0.00014246
22810.0 0.00014225
22830.0 0.00014208
22850.0 0.00014194
22870.0 0.00014183
22890.0 0.00014173
22910.0 0.00014167
22930.0 0.00014163
22950.0 0.00014161
22970.0 0.00014161
22990.0 0.00014164
23010.0 0.00014168
23030.0 0.00014173
23050.0 0.00014181
23070.0 0.00014191
23090.0 0.00014202
23110.0 0.00014205
23130.0 0.0001421
23150.0 0.00014217
23170.0 0.00014227
23190.0 0.0001424
23210.0 0.00014257
23230.0 0.00014277
23250.0 0.00014301
23270.0 0.00014327
23290.0 0.00014358
23310.0 0.00014393
23330.0 0.0001443
23350.0 0.00014468
23370.0 0.0001451
23390.0 0.00014553
23410.0 0.00014595
