#lamb flux
1010.0 6.3665e-07
1030.0 6.8537e-07
1050.0 7.6775e-07
1070.0 8.6043e-07
1090.0 9.5882e-07
1110.0 1.0608e-06
1130.0 1.1641e-06
1150.0 1.2727e-06
1170.0 1.3843e-06
1190.0 1.4887e-06
1210.0 1.5923e-06
1230.0 1.6963e-06
1250.0 1.7957e-06
1270.0 1.8873e-06
1290.0 1.9796e-06
1310.0 2.0664e-06
1330.0 2.1436e-06
1350.0 2.2175e-06
1370.0 2.2909e-06
1390.0 2.3593e-06
1410.0 2.4238e-06
1430.0 2.493e-06
1450.0 2.5641e-06
1470.0 2.6354e-06
1490.0 2.7127e-06
1510.0 2.8013e-06
1530.0 2.8923e-06
1550.0 2.9906e-06
1570.0 3.1013e-06
1590.0 3.2223e-06
1610.0 3.3502e-06
1630.0 3.4946e-06
1650.0 3.653e-06
1670.0 3.8197e-06
1690.0 3.9961e-06
1710.0 4.1868e-06
1730.0 4.3876e-06
1750.0 4.59e-06
1770.0 4.8016e-06
1790.0 5.0199e-06
1810.0 5.2363e-06
1830.0 5.4498e-06
1850.0 5.6664e-06
1870.0 5.8731e-06
1890.0 6.0655e-06
1910.0 6.247e-06
1930.0 6.4154e-06
1950.0 6.5591e-06
1970.0 6.6801e-06
1990.0 6.7829e-06
2010.0 6.8596e-06
2030.0 6.9073e-06
2050.0 6.9343e-06
2070.0 6.9407e-06
2090.0 6.9179e-06
2110.0 6.8747e-06
2130.0 6.817e-06
2150.0 6.7422e-06
2170.0 6.651e-06
2190.0 6.5548e-06
2210.0 6.4535e-06
2230.0 6.3458e-06
2250.0 6.2383e-06
2270.0 6.1377e-06
2290.0 6.0397e-06
2310.0 5.9461e-06
2330.0 5.8646e-06
2350.0 5.7948e-06
2370.0 5.7346e-06
2390.0 5.6895e-06
2410.0 5.6641e-06
2430.0 5.6545e-06
2450.0 5.6632e-06
2470.0 5.6972e-06
2490.0 5.7592e-06
2510.0 5.8446e-06
2530.0 5.9711e-06
2550.0 6.1633e-06
2570.0 6.4426e-06
2590.0 6.8412e-06
2610.0 7.4528e-06
2630.0 8.3042e-06
2650.0 9.3657e-06
2670.0 1.0663e-05
2690.0 1.2167e-05
2710.0 1.3694e-05
2730.0 1.5145e-05
2750.0 1.652e-05
2770.0 1.7689e-05
2790.0 1.8623e-05
2810.0 1.9393e-05
2830.0 2.005e-05
2850.0 2.0617e-05
2870.0 2.1171e-05
2890.0 2.1756e-05
2910.0 2.2389e-05
2930.0 2.3074e-05
2950.0 2.3833e-05
2970.0 2.467e-05
2990.0 2.557e-05
3010.0 3.2684e-05
3030.0 3.3976e-05
3050.0 3.5344e-05
3070.0 3.6735e-05
3090.0 3.8146e-05
3110.0 3.9498e-05
3130.0 4.0689e-05
3150.0 4.1706e-05
3170.0 4.233e-05
3190.0 4.513e-05
3210.0 5.6355e-05
3230.0 7.4195e-05
3250.0 8.2487e-05
3270.0 7.5969e-05
3290.0 6.4973e-05
3310.0 5.9175e-05
3330.0 5.6871e-05
3350.0 5.6791e-05
3370.0 5.737e-05
3390.0 5.8279e-05
3410.0 5.8909e-05
3430.0 5.7315e-05
3450.0 5.6926e-05
3470.0 5.6992e-05
3490.0 6.2978e-05
3510.0 7.9358e-05
3530.0 9.5628e-05
3550.0 0.00011091
3570.0 0.00012785
3590.0 0.00013729
3610.0 0.00013768
3630.0 0.00013627
3650.0 0.00014062
3670.0 0.0001569
3690.0 0.00018359
3710.0 0.00021032
3730.0 0.00023066
3750.0 0.00024766
3770.0 0.00024631
3790.0 0.00023086
3810.0 0.00021322
3830.0 0.00019309
3850.0 0.00018098
3870.0 0.00018209
3890.0 0.00020113
3910.0 0.00022812
3930.0 0.00025663
3950.0 0.00028755
3970.0 0.00030698
3990.0 0.00030267
4010.0 0.00028556
4030.0 0.0002531
4050.0 0.00022198
4070.0 0.00020592
4090.0 0.00020375
4110.0 0.00021225
4130.0 0.00021555
4150.0 0.00021668
4170.0 0.00022092
4190.0 0.00023041
4210.0 0.00023069
4230.0 0.00023264
4250.0 0.00023625
4270.0 0.00024332
4290.0 0.00025193
4310.0 0.00026079
4330.0 0.0002594
4350.0 0.00024845
4370.0 0.0002321
4390.0 0.00021025
4410.0 0.00018516
4430.0 0.0001687
4450.0 0.00016355
4470.0 0.00016763
4490.0 0.00017962
4510.0 0.00020371
4530.0 0.00024847
4550.0 0.00031649
4570.0 0.00037575
4590.0 0.00042953
4610.0 0.00049486
4630.0 0.00054082
4650.0 0.00053693
4670.0 0.00049568
4690.0 0.00043928
4710.0 0.00038429
4730.0 0.00033522
4750.0 0.00029229
4770.0 0.00026305
4790.0 0.00026416
4810.0 0.00027979
4830.0 0.0002909
4850.0 0.00029613
4870.0 0.00031125
4890.0 0.0003291
4910.0 0.00034583
4930.0 0.00036456
4950.0 0.00037811
4970.0 0.00037292
4990.0 0.00034671
5010.0 0.00030973
5030.0 0.0002721
5050.0 0.00024454
5070.0 0.00022706
5090.0 0.00021653
5110.0 0.00021442
5130.0 0.00021479
5150.0 0.00021624
5170.0 0.00022595
5190.0 0.00024516
5210.0 0.00027446
5230.0 0.00030531
5250.0 0.00033771
5270.0 0.00037272
5290.0 0.00040431
5310.0 0.00042657
5330.0 0.000439
5350.0 0.00044048
5370.0 0.00043824
5390.0 0.00044384
5410.0 0.00046258
5430.0 0.0004928
5450.0 0.00053116
5470.0 0.00056613
5490.0 0.00058385
5510.0 0.00058646
5530.0 0.0005822
5550.0 0.00057406
5570.0 0.00056111
5590.0 0.0005479
5610.0 0.00053473
5630.0 0.00051819
5650.0 0.00049257
5670.0 0.00046101
5690.0 0.00043523
5710.0 0.00041794
5730.0 0.00040128
5750.0 0.00039395
5770.0 0.00039868
5790.0 0.00040686
5810.0 0.00040957
5830.0 0.0004118
5850.0 0.00041241
5870.0 0.00040517
5890.0 0.00039979
5910.0 0.00039503
5930.0 0.0003757
5950.0 0.00034589
5970.0 0.00031653
5990.0 0.00029362
6010.0 0.00027778
6030.0 0.000268
6050.0 0.00026903
6070.0 0.00028045
6090.0 0.00028827
6110.0 0.00028905
6130.0 0.00028915
6150.0 0.0002921
6170.0 0.00029612
6190.0 0.00029728
6210.0 0.000292
6230.0 0.00027606
6250.0 0.00025436
6270.0 0.00023408
6290.0 0.00021862
6310.0 0.00021832
6330.0 0.00023376
6350.0 0.00025418
6370.0 0.00027117
6390.0 0.00029076
6410.0 0.00031633
6430.0 0.00033612
6450.0 0.00034764
6470.0 0.00035703
6490.0 0.00036573
6510.0 0.00037072
6530.0 0.00037285
6550.0 0.00037666
6570.0 0.00037521
6590.0 0.00036717
6610.0 0.00035611
6630.0 0.00034223
6650.0 0.00032372
6670.0 0.00030406
6690.0 0.00029011
6710.0 0.00028065
6730.0 0.00027035
6750.0 0.00026384
6770.0 0.00026591
6790.0 0.00026904
6810.0 0.00026668
6830.0 0.00026162
6850.0 0.00025925
6870.0 0.00025687
6890.0 0.00025172
6910.0 0.00025085
6930.0 0.00025119
6950.0 0.00024868
6970.0 0.0002451
6990.0 0.00024015
7010.0 0.00023352
7030.0 0.00022313
7050.0 0.00020738
7070.0 0.00019323
7090.0 0.0001913
7110.0 0.00019737
7130.0 0.0002001
7150.0 0.00019938
7170.0 0.00020318
7190.0 0.00021211
7210.0 0.00021878
7230.0 0.00022406
7250.0 0.0002292
7270.0 0.0002261
7290.0 0.00021935
7310.0 0.00021672
7330.0 0.00022158
7350.0 0.00023009
7370.0 0.00023575
7390.0 0.00024201
7410.0 0.00025146
7430.0 0.00025826
7450.0 0.00026071
7470.0 0.00025913
7490.0 0.00024763
7510.0 0.00023393
7530.0 0.00022862
7550.0 0.00022193
7570.0 0.00021522
7590.0 0.00021277
7610.0 0.00021181
7630.0 0.00021387
7650.0 0.00022335
7670.0 0.00023633
7690.0 0.00024839
7710.0 0.00025643
7730.0 0.00026324
7750.0 0.00026943
7770.0 0.0002745
7790.0 0.00027909
7810.0 0.00027935
7830.0 0.00027065
7850.0 0.0002597
7870.0 0.00025048
7890.0 0.00024361
7910.0 0.00024096
7930.0 0.00023562
7950.0 0.00022889
7970.0 0.00022111
7990.0 0.00021579
8010.0 0.0002022
8030.0 0.00020086
8050.0 0.00019908
8070.0 0.00019572
8090.0 0.00019281
8110.0 0.00019068
8130.0 0.00019024
8150.0 0.00018837
8170.0 0.00018522
8190.0 0.00017915
8210.0 0.00017004
8230.0 0.00016178
8250.0 0.00015801
8270.0 0.00015039
8290.0 0.00013544
8310.0 0.00011987
8330.0 0.00010942
8350.0 0.00010538
8370.0 0.00011069
8390.0 0.0001211
8410.0 0.00012886
8430.0 0.00013552
8450.0 0.00014519
8470.0 0.00015481
8490.0 0.00016617
8510.0 0.00017815
8530.0 0.00019001
8550.0 0.00019915
8570.0 0.00020568
8590.0 0.00021047
8610.0 0.00021412
8630.0 0.0002138
8650.0 0.00020933
8670.0 0.00020906
8690.0 0.00021707
8710.0 0.00022786
8730.0 0.00023152
8750.0 0.000228
8770.0 0.0002282
8790.0 0.00022745
8810.0 0.00021929
8830.0 0.00020265
8850.0 0.00018234
8870.0 0.00016731
8890.0 0.00016183
8910.0 0.00015651
8930.0 0.00014555
8950.0 0.00013518
8970.0 0.00013123
8990.0 0.00013201
9010.0 0.00013106
9030.0 0.00012932
9050.0 0.00012821
9070.0 0.00012752
9090.0 0.0001269
9110.0 0.00012629
9130.0 0.00012568
9150.0 0.00012509
9170.0 0.00012448
9190.0 0.00012393
9210.0 0.00012346
9230.0 0.00012283
9250.0 0.00012224
9270.0 0.00012166
9290.0 0.0001211
9310.0 0.00012055
9330.0 0.00012
9350.0 0.00011947
9370.0 0.00011894
9390.0 0.00011842
9410.0 0.0001179
9430.0 0.00011736
9450.0 0.00011671
9470.0 0.0001161
9490.0 0.00011574
9510.0 0.00011531
9530.0 0.00011488
9550.0 0.00011442
9570.0 0.00011396
9590.0 0.0001135
9610.0 0.00011304
9630.0 0.00011258
9650.0 0.00011212
9670.0 0.00011167
9690.0 0.00011122
9710.0 0.00011077
9730.0 0.00011033
9750.0 0.0001099
9770.0 0.00010945
9790.0 0.00010901
9810.0 0.00010859
9830.0 0.00010815
9850.0 0.0001077
9870.0 0.00010729
9890.0 0.00010686
9910.0 0.00010643
9930.0 0.00010601
9950.0 0.0001054
9970.0 0.00010503
9990.0 0.00010463
10010.0 0.00010423
10030.0 0.00010382
10050.0 0.00010341
10070.0 0.00010299
10090.0 0.00010258
10110.0 0.00010211
10130.0 0.00010148
10150.0 0.00010108
10170.0 0.00010071
10190.0 0.00010028
10210.0 9.9868e-05
10230.0 9.9451e-05
10250.0 9.8988e-05
10270.0 9.8523e-05
10290.0 9.808e-05
10310.0 9.7602e-05
10330.0 9.7093e-05
10350.0 9.6617e-05
10370.0 9.6139e-05
10390.0 9.5624e-05
10410.0 9.5109e-05
10430.0 9.4626e-05
10450.0 9.4105e-05
10470.0 9.3562e-05
10490.0 9.304e-05
10510.0 9.2515e-05
10530.0 9.1932e-05
10550.0 9.1365e-05
10570.0 9.0822e-05
10590.0 9.0243e-05
10610.0 8.9641e-05
10630.0 8.9066e-05
10650.0 8.8479e-05
10670.0 8.7841e-05
10690.0 8.7216e-05
10710.0 8.6603e-05
10730.0 8.5953e-05
10750.0 8.5266e-05
10770.0 8.4627e-05
10790.0 8.3967e-05
10810.0 8.3266e-05
10830.0 8.2573e-05
10850.0 8.1901e-05
10870.0 8.1162e-05
10890.0 8.0416e-05
10910.0 7.9696e-05
10930.0 7.8957e-05
10950.0 7.8175e-05
10970.0 7.7408e-05
10990.0 7.6669e-05
11010.0 7.7852e-05
11030.0 7.7027e-05
11050.0 7.6248e-05
11070.0 7.5471e-05
11090.0 7.4659e-05
11110.0 7.3914e-05
11130.0 7.32e-05
11150.0 7.2475e-05
11170.0 7.1769e-05
11190.0 7.1121e-05
11210.0 7.0476e-05
11230.0 6.9836e-05
11250.0 6.9245e-05
11270.0 6.8689e-05
11290.0 6.8134e-05
11310.0 6.7605e-05
11330.0 6.713e-05
11350.0 6.666e-05
11370.0 6.6193e-05
11390.0 6.5749e-05
11410.0 6.5312e-05
11430.0 6.4841e-05
11450.0 6.4363e-05
11470.0 6.3877e-05
11490.0 6.3351e-05
11510.0 6.277e-05
11530.0 6.2175e-05
11550.0 6.1544e-05
11570.0 6.0845e-05
11590.0 6.0111e-05
11610.0 5.9361e-05
11630.0 5.8547e-05
11650.0 5.7676e-05
11670.0 5.6811e-05
11690.0 5.5919e-05
11710.0 5.4971e-05
11730.0 5.4008e-05
11750.0 5.3058e-05
11770.0 5.2053e-05
11790.0 5.1013e-05
11810.0 4.9987e-05
11830.0 4.8945e-05
11850.0 4.7837e-05
11870.0 4.6748e-05
11890.0 4.5687e-05
11910.0 4.4595e-05
11930.0 4.3499e-05
11950.0 4.2456e-05
11970.0 4.1426e-05
11990.0 4.0384e-05
12010.0 3.9402e-05
12030.0 3.8478e-05
12050.0 3.7573e-05
12070.0 3.6702e-05
12090.0 3.5928e-05
12110.0 3.5196e-05
12130.0 3.4503e-05
12150.0 3.3884e-05
12170.0 3.3339e-05
12190.0 3.2831e-05
12210.0 3.2398e-05
12230.0 3.2043e-05
12250.0 3.1752e-05
12270.0 3.1526e-05
12290.0 3.1371e-05
12310.0 3.1278e-05
12330.0 3.1244e-05
12350.0 3.1266e-05
12370.0 3.1328e-05
12390.0 3.1432e-05
12410.0 3.1581e-05
12430.0 3.1741e-05
12450.0 3.1914e-05
12470.0 3.2107e-05
12490.0 3.2304e-05
12510.0 3.2485e-05
12530.0 3.2669e-05
12550.0 3.2848e-05
12570.0 3.3e-05
12590.0 3.3129e-05
12610.0 3.3241e-05
12630.0 3.332e-05
12650.0 3.3352e-05
12670.0 3.3348e-05
12690.0 3.3301e-05
12710.0 3.3202e-05
12730.0 3.3055e-05
12750.0 3.2855e-05
12770.0 3.2602e-05
12790.0 3.2306e-05
12810.0 3.1963e-05
12830.0 3.1572e-05
12850.0 3.1161e-05
12870.0 3.0726e-05
12890.0 3.0262e-05
12910.0 2.9791e-05
12930.0 2.9327e-05
12950.0 2.8852e-05
12970.0 2.8377e-05
12990.0 2.793e-05
13010.0 2.7495e-05
13030.0 2.7066e-05
13050.0 2.6659e-05
13070.0 2.6278e-05
13090.0 2.5903e-05
13110.0 2.5541e-05
13130.0 2.5204e-05
13150.0 2.4881e-05
13170.0 2.4561e-05
13190.0 2.4264e-05
13210.0 2.3985e-05
13230.0 2.3714e-05
13250.0 2.3454e-05
13270.0 2.3213e-05
13290.0 2.298e-05
13310.0 2.2751e-05
13330.0 2.2535e-05
13350.0 2.2329e-05
13370.0 2.2124e-05
13390.0 2.192e-05
13410.0 2.1727e-05
13430.0 2.1532e-05
13450.0 2.1334e-05
13470.0 2.1138e-05
13490.0 2.0944e-05
13510.0 2.0739e-05
13530.0 2.0533e-05
13550.0 2.033e-05
13570.0 2.0123e-05
13590.0 1.9908e-05
13610.0 1.9697e-05
13630.0 1.9489e-05
13650.0 1.9274e-05
13670.0 1.906e-05
13690.0 1.8852e-05
13710.0 1.8643e-05
13730.0 1.8429e-05
13750.0 1.8226e-05
13770.0 1.8027e-05
13790.0 1.7826e-05
13810.0 1.7629e-05
13830.0 1.7442e-05
13850.0 1.7255e-05
13870.0 1.7069e-05
13890.0 1.6894e-05
13910.0 1.6726e-05
13930.0 1.6559e-05
13950.0 1.6399e-05
13970.0 1.6254e-05
13990.0 1.6112e-05
14010.0 1.5974e-05
14030.0 1.5848e-05
14050.0 1.5728e-05
14070.0 1.5607e-05
14090.0 1.5495e-05
14110.0 1.5389e-05
14130.0 1.5285e-05
14150.0 1.5182e-05
14170.0 1.5086e-05
14190.0 1.4994e-05
14210.0 1.4901e-05
14230.0 1.4814e-05
14250.0 1.4732e-05
14270.0 1.4652e-05
14290.0 1.4574e-05
14310.0 1.4504e-05
14330.0 1.4437e-05
14350.0 1.4373e-05
14370.0 1.4314e-05
14390.0 1.426e-05
14410.0 1.4207e-05
14430.0 1.4157e-05
14450.0 1.411e-05
14470.0 1.4066e-05
14490.0 1.402e-05
14510.0 1.3977e-05
14530.0 1.3936e-05
14550.0 1.3893e-05
14570.0 1.385e-05
14590.0 1.3809e-05
14610.0 1.3768e-05
14630.0 1.3725e-05
14650.0 1.3687e-05
14670.0 1.3653e-05
14690.0 1.3625e-05
14710.0 1.3607e-05
14730.0 1.3605e-05
14750.0 1.3619e-05
14770.0 1.3657e-05
14790.0 1.3722e-05
14810.0 1.3814e-05
14830.0 1.3948e-05
14850.0 1.412e-05
14870.0 1.4323e-05
14890.0 1.4564e-05
14910.0 1.4842e-05
14930.0 1.5131e-05
14950.0 1.542e-05
14970.0 1.5711e-05
14990.0 1.5975e-05
15010.0 1.6198e-05
15030.0 1.6385e-05
15050.0 1.6535e-05
15070.0 1.6645e-05
15090.0 1.6729e-05
15110.0 1.6797e-05
15130.0 1.6853e-05
15150.0 1.6904e-05
15170.0 1.6952e-05
15190.0 1.7e-05
15210.0 1.7048e-05
15230.0 1.7096e-05
15250.0 1.7146e-05
15270.0 1.7197e-05
15290.0 1.7249e-05
15310.0 1.7302e-05
15330.0 1.7356e-05
15350.0 1.741e-05
15370.0 1.7466e-05
15390.0 1.7523e-05
15410.0 1.7581e-05
15430.0 1.7639e-05
15450.0 1.7699e-05
15470.0 1.7759e-05
15490.0 1.7821e-05
15510.0 1.7883e-05
15530.0 1.7946e-05
15550.0 1.801e-05
15570.0 1.8075e-05
15590.0 1.8141e-05
15610.0 1.8207e-05
15630.0 1.8274e-05
15650.0 1.8342e-05
15670.0 1.8411e-05
15690.0 1.848e-05
15710.0 1.8551e-05
15730.0 1.8622e-05
15750.0 1.8693e-05
15770.0 1.8766e-05
15790.0 1.8839e-05
15810.0 1.8912e-05
15830.0 1.8986e-05
15850.0 1.9061e-05
15870.0 1.9136e-05
15890.0 1.9212e-05
15910.0 1.9289e-05
15930.0 1.9366e-05
15950.0 1.9443e-05
15970.0 1.9521e-05
15990.0 1.9599e-05
16010.0 1.9678e-05
16030.0 1.9757e-05
16050.0 1.9836e-05
16070.0 1.9916e-05
16090.0 1.9996e-05
16110.0 2.0076e-05
16130.0 2.0157e-05
16150.0 2.0238e-05
16170.0 2.0319e-05
16190.0 2.04e-05
16210.0 2.0481e-05
16230.0 2.0563e-05
16250.0 2.0644e-05
16270.0 2.0726e-05
16290.0 2.0808e-05
16310.0 2.0889e-05
16330.0 2.0971e-05
16350.0 2.1053e-05
16370.0 2.1134e-05
16390.0 2.1215e-05
16410.0 2.1297e-05
16430.0 2.1378e-05
16450.0 2.1459e-05
16470.0 2.1539e-05
16490.0 2.162e-05
16510.0 2.17e-05
16530.0 2.178e-05
16550.0 2.1859e-05
16570.0 2.1938e-05
16590.0 2.2017e-05
16610.0 2.2095e-05
16630.0 2.2173e-05
16650.0 2.225e-05
16670.0 2.2326e-05
16690.0 2.2403e-05
16710.0 2.2478e-05
16730.0 2.2553e-05
16750.0 2.2627e-05
16770.0 2.27e-05
16790.0 2.2773e-05
16810.0 2.2845e-05
16830.0 2.2916e-05
16850.0 2.2987e-05
16870.0 2.3056e-05
16890.0 2.3125e-05
16910.0 2.3192e-05
16930.0 2.3259e-05
16950.0 2.3325e-05
16970.0 2.339e-05
16990.0 2.3454e-05
17010.0 2.3516e-05
17030.0 2.3578e-05
17050.0 2.3638e-05
17070.0 2.3698e-05
17090.0 2.3756e-05
17110.0 2.3813e-05
17130.0 2.3869e-05
17150.0 2.3923e-05
17170.0 2.3977e-05
17190.0 2.4029e-05
17210.0 2.4079e-05
17230.0 2.4129e-05
17250.0 2.4176e-05
17270.0 2.4223e-05
17290.0 2.4268e-05
17310.0 2.4312e-05
17330.0 2.4354e-05
17350.0 2.4395e-05
17370.0 2.4434e-05
17390.0 2.4472e-05
17410.0 2.4508e-05
17430.0 2.4542e-05
17450.0 2.4576e-05
17470.0 2.4607e-05
17490.0 2.4637e-05
17510.0 2.4665e-05
17530.0 2.4692e-05
17550.0 2.4716e-05
17570.0 2.474e-05
17590.0 2.4761e-05
17610.0 2.4781e-05
17630.0 2.4799e-05
17650.0 2.4816e-05
17670.0 2.4831e-05
17690.0 2.4844e-05
17710.0 2.4855e-05
17730.0 2.4865e-05
17750.0 2.4872e-05
17770.0 2.4878e-05
17790.0 2.4883e-05
17810.0 2.4885e-05
17830.0 2.4886e-05
17850.0 2.4885e-05
17870.0 2.4882e-05
17890.0 2.4877e-05
17910.0 2.4871e-05
17930.0 2.4863e-05
17950.0 2.4853e-05
17970.0 2.4841e-05
17990.0 2.4827e-05
18010.0 2.4812e-05
18030.0 2.4795e-05
18050.0 2.4776e-05
18070.0 2.4755e-05
18090.0 2.4733e-05
18110.0 2.4709e-05
18130.0 2.4683e-05
18150.0 2.4655e-05
18170.0 2.4626e-05
18190.0 2.4595e-05
18210.0 2.4562e-05
18230.0 2.4528e-05
18250.0 2.4491e-05
18270.0 2.4454e-05
18290.0 2.4414e-05
18310.0 2.4373e-05
18330.0 2.433e-05
18350.0 2.4286e-05
18370.0 2.4239e-05
18390.0 2.4192e-05
18410.0 2.4143e-05
18430.0 2.4092e-05
18450.0 2.4039e-05
18470.0 2.3985e-05
18490.0 2.393e-05
18510.0 2.3873e-05
18530.0 2.3815e-05
18550.0 2.3755e-05
18570.0 2.3693e-05
18590.0 2.3631e-05
18610.0 2.3566e-05
18630.0 2.3501e-05
18650.0 2.3434e-05
18670.0 2.3366e-05
18690.0 2.3296e-05
18710.0 2.3225e-05
18730.0 2.3153e-05
18750.0 2.3079e-05
18770.0 2.3005e-05
18790.0 2.2929e-05
18810.0 2.2852e-05
18830.0 2.2774e-05
18850.0 2.2694e-05
18870.0 2.2613e-05
18890.0 2.2532e-05
18910.0 2.2449e-05
18930.0 2.2365e-05
18950.0 2.228e-05
18970.0 2.2195e-05
18990.0 2.2108e-05
19010.0 2.202e-05
19030.0 2.1931e-05
19050.0 2.1842e-05
19070.0 2.1751e-05
19090.0 2.166e-05
19110.0 2.1568e-05
19130.0 2.1475e-05
19150.0 2.1381e-05
19170.0 2.1286e-05
19190.0 2.1191e-05
19210.0 2.1095e-05
19230.0 2.0998e-05
19250.0 2.09e-05
19270.0 2.0802e-05
19290.0 2.0704e-05
19310.0 2.0604e-05
19330.0 2.0504e-05
19350.0 2.0404e-05
19370.0 2.0303e-05
19390.0 2.0202e-05
19410.0 2.01e-05
19430.0 1.9997e-05
19450.0 1.9894e-05
19470.0 1.9791e-05
19490.0 1.9687e-05
19510.0 1.9583e-05
19530.0 1.9479e-05
19550.0 1.9374e-05
19570.0 1.9269e-05
19590.0 1.9164e-05
19610.0 1.9058e-05
19630.0 1.8952e-05
19650.0 1.8846e-05
19670.0 1.874e-05
19690.0 1.8633e-05
19710.0 1.8527e-05
19730.0 1.842e-05
19750.0 1.8313e-05
19770.0 1.8206e-05
19790.0 1.8099e-05
19810.0 1.7992e-05
19830.0 1.7884e-05
19850.0 1.7775e-05
19870.0 1.7666e-05
19890.0 1.7552e-05
19910.0 1.7433e-05
19930.0 1.7304e-05
19950.0 1.7161e-05
19970.0 1.6997e-05
19990.0 1.6807e-05
20010.0 1.6594e-05
20030.0 1.6351e-05
20050.0 1.6078e-05
20070.0 1.579e-05
20090.0 1.5489e-05
20110.0 1.5166e-05
20130.0 1.4845e-05
20150.0 1.4533e-05
20170.0 1.4217e-05
20190.0 1.3904e-05
20210.0 1.3607e-05
20230.0 1.3318e-05
20250.0 1.303e-05
20270.0 1.2757e-05
20290.0 1.25e-05
20310.0 1.2249e-05
20330.0 1.2005e-05
20350.0 1.1785e-05
20370.0 1.1575e-05
20390.0 1.1374e-05
20410.0 1.1189e-05
20430.0 1.102e-05
20450.0 1.0859e-05
20470.0 1.071e-05
20490.0 1.0575e-05
20510.0 1.0451e-05
20530.0 1.0336e-05
20550.0 1.0231e-05
20570.0 1.0136e-05
20590.0 1.0047e-05
20610.0 9.9654e-06
20630.0 9.8892e-06
20650.0 9.8174e-06
20670.0 9.7492e-06
20690.0 9.6835e-06
20710.0 9.6192e-06
20730.0 9.5555e-06
20750.0 9.4914e-06
20770.0 9.4262e-06
20790.0 9.3592e-06
20810.0 9.2896e-06
20830.0 9.2172e-06
20850.0 9.1417e-06
20870.0 9.0621e-06
20890.0 8.9785e-06
20910.0 8.8922e-06
20930.0 8.8019e-06
20950.0 8.7074e-06
20970.0 8.6107e-06
20990.0 8.5119e-06
21010.0 8.4087e-06
21030.0 8.3039e-06
21050.0 8.1991e-06
21070.0 8.0922e-06
21090.0 7.9829e-06
21110.0 7.8758e-06
21130.0 7.7694e-06
21150.0 7.6616e-06
21170.0 7.5552e-06
21190.0 7.4518e-06
21210.0 7.3479e-06
21230.0 7.2445e-06
21250.0 7.1451e-06
21270.0 7.0479e-06
21290.0 6.9513e-06
21310.0 6.8575e-06
21330.0 6.7681e-06
21350.0 6.6798e-06
21370.0 6.5938e-06
21390.0 6.512e-06
21410.0 6.4332e-06
21430.0 6.3557e-06
21450.0 6.2826e-06
21470.0 6.2134e-06
21490.0 6.1467e-06
21510.0 6.0829e-06
21530.0 6.0229e-06
21550.0 5.9657e-06
21570.0 5.9108e-06
21590.0 5.8588e-06
21610.0 5.8093e-06
21630.0 5.7617e-06
21650.0 5.7158e-06
21670.0 5.6718e-06
21690.0 5.629e-06
21710.0 5.5872e-06
21730.0 5.5464e-06
21750.0 5.5063e-06
21770.0 5.4666e-06
21790.0 5.4274e-06
21810.0 5.3885e-06
21830.0 5.3498e-06
21850.0 5.3113e-06
21870.0 5.273e-06
21890.0 5.235e-06
21910.0 5.1969e-06
21930.0 5.1589e-06
21950.0 5.1211e-06
21970.0 5.0833e-06
21990.0 5.0451e-06
22010.0 5.007e-06
22030.0 4.9687e-06
22050.0 4.9299e-06
22070.0 4.8905e-06
22090.0 4.851e-06
22110.0 4.8106e-06
22130.0 4.7692e-06
22150.0 4.7273e-06
22170.0 4.6847e-06
22190.0 4.6406e-06
22210.0 4.5955e-06
22230.0 4.5503e-06
22250.0 4.5038e-06
22270.0 4.4559e-06
22290.0 4.4077e-06
22310.0 4.3589e-06
22330.0 4.3081e-06
22350.0 4.2567e-06
22370.0 4.2053e-06
22390.0 4.1525e-06
22410.0 4.0978e-06
22430.0 4.0438e-06
22450.0 3.9892e-06
22470.0 3.9327e-06
22490.0 3.8759e-06
22510.0 3.8198e-06
22530.0 3.7617e-06
22550.0 3.7026e-06
22570.0 3.645e-06
22590.0 3.5874e-06
22610.0 3.5287e-06
22630.0 3.471e-06
