#lamb flux
1010.0 2.2292e-06
1030.0 2.3849e-06
1050.0 2.5883e-06
1070.0 2.9087e-06
1090.0 3.3699e-06
1110.0 3.849e-06
1130.0 4.336e-06
1150.0 4.8491e-06
1170.0 5.3735e-06
1190.0 5.852e-06
1210.0 6.3098e-06
1230.0 6.7433e-06
1250.0 7.1349e-06
1270.0 7.4469e-06
1290.0 7.7091e-06
1310.0 7.8875e-06
1330.0 7.9629e-06
1350.0 7.9626e-06
1370.0 7.8996e-06
1390.0 7.7606e-06
1410.0 7.559e-06
1430.0 7.332e-06
1450.0 7.0768e-06
1470.0 6.7983e-06
1490.0 6.5214e-06
1510.0 6.265e-06
1530.0 6.0137e-06
1550.0 5.7858e-06
1570.0 5.5959e-06
1590.0 5.4427e-06
1610.0 5.3328e-06
1630.0 5.3127e-06
1650.0 5.3515e-06
1670.0 5.4458e-06
1690.0 5.6038e-06
1710.0 5.838e-06
1730.0 6.149e-06
1750.0 6.5313e-06
1770.0 7.0051e-06
1790.0 7.5755e-06
1810.0 8.2387e-06
1830.0 9.0017e-06
1850.0 9.8854e-06
1870.0 1.0876e-05
1890.0 1.1971e-05
1910.0 1.3183e-05
1930.0 1.4513e-05
1950.0 1.5934e-05
1970.0 1.7447e-05
1990.0 1.9057e-05
2010.0 2.0734e-05
2030.0 2.2452e-05
2050.0 2.4218e-05
2070.0 2.6015e-05
2090.0 2.7781e-05
2110.0 2.952e-05
2130.0 3.1229e-05
2150.0 3.2864e-05
2170.0 3.4394e-05
2190.0 3.5846e-05
2210.0 3.7195e-05
2230.0 3.8405e-05
2250.0 3.9491e-05
2270.0 4.0482e-05
2290.0 4.1335e-05
2310.0 4.2049e-05
2330.0 4.2677e-05
2350.0 4.3218e-05
2370.0 4.3657e-05
2390.0 4.4048e-05
2410.0 4.4443e-05
2430.0 4.4825e-05
2450.0 4.5232e-05
2470.0 4.5743e-05
2490.0 4.6397e-05
2510.0 4.7153e-05
2530.0 4.8151e-05
2550.0 4.9553e-05
2570.0 5.1452e-05
2590.0 5.402e-05
2610.0 5.7827e-05
2630.0 6.2953e-05
2650.0 6.9172e-05
2670.0 7.6669e-05
2690.0 8.5352e-05
2710.0 9.4289e-05
2730.0 0.00010312
2750.0 0.00011222
2770.0 0.00012107
2790.0 0.00012953
2810.0 0.00013819
2830.0 0.00014758
2850.0 0.00015695
2870.0 0.00016674
2890.0 0.00017735
2910.0 0.00018844
2930.0 0.00019957
2950.0 0.00021147
2970.0 0.00022404
2990.0 0.00023671
3010.0 0.00024972
3030.0 0.00026355
3050.0 0.00027777
3070.0 0.00029161
3090.0 0.00030572
3110.0 0.00031947
3130.0 0.00033188
3150.0 0.00034265
3170.0 0.00035144
3190.0 0.00035786
3210.0 0.00036285
3230.0 0.00036699
3250.0 0.00037031
3270.0 0.00037383
3290.0 0.00037865
3310.0 0.00038575
3330.0 0.00039492
3350.0 0.00040551
3370.0 0.00041714
3390.0 0.00042719
3410.0 0.00043807
3430.0 0.00046516
3450.0 0.00048481
3470.0 0.000498
3490.0 0.00050936
3510.0 0.0005387
3530.0 0.00063845
3550.0 0.00073942
3570.0 0.00080917
3590.0 0.00089174
3610.0 0.00089292
3630.0 0.00083274
3650.0 0.0008871
3670.0 0.0010569
3690.0 0.0011855
3710.0 0.001231
3730.0 0.0012488
3750.0 0.0013282
3770.0 0.0013348
3790.0 0.0012748
3810.0 0.0012005
3830.0 0.0011301
3850.0 0.0011341
3870.0 0.0011915
3890.0 0.0012406
3910.0 0.0012749
3930.0 0.0012812
3950.0 0.0013676
3970.0 0.0014673
3990.0 0.0014201
4010.0 0.0012681
4030.0 0.0011352
4050.0 0.0011092
4070.0 0.0011584
4090.0 0.0011577
4110.0 0.0011182
4130.0 0.0011082
4150.0 0.0011505
4170.0 0.0012736
4190.0 0.0013589
4210.0 0.001297
4230.0 0.0012018
4250.0 0.001147
4270.0 0.0011129
4290.0 0.0011257
4310.0 0.0011577
4330.0 0.001101
4350.0 0.00097124
4370.0 0.00086209
4390.0 0.00078658
4410.0 0.0007363
4430.0 0.00074705
4450.0 0.00081799
4470.0 0.00089286
4490.0 0.00096348
4510.0 0.0010788
4530.0 0.0012944
4550.0 0.0015279
4570.0 0.0016687
4590.0 0.0017834
4610.0 0.0018981
4630.0 0.001936
4650.0 0.0017983
4670.0 0.0015362
4690.0 0.0013328
4710.0 0.0012658
4730.0 0.0012161
4750.0 0.0010771
4770.0 0.00096808
4790.0 0.0010013
4810.0 0.0010878
4830.0 0.0010721
4850.0 0.00096827
4870.0 0.00097314
4890.0 0.0010055
4910.0 0.0010349
4930.0 0.0010256
4950.0 0.001003
4970.0 0.00095876
4990.0 0.00088423
5010.0 0.00082195
5030.0 0.00079328
5050.0 0.00078024
5070.0 0.00077226
5090.0 0.00076554
5110.0 0.00076418
5130.0 0.00077822
5150.0 0.00082022
5170.0 0.00089995
5190.0 0.0010007
5210.0 0.0010939
5230.0 0.0011502
5250.0 0.0011808
5270.0 0.0012319
5290.0 0.0012776
5310.0 0.001282
5330.0 0.0012364
5350.0 0.001188
5370.0 0.0011897
5390.0 0.0012376
5410.0 0.0012787
5430.0 0.0012821
5450.0 0.0012684
5470.0 0.0012347
5490.0 0.001197
5510.0 0.0011808
5530.0 0.001188
5550.0 0.0012051
5570.0 0.0012148
5590.0 0.0011794
5610.0 0.0011136
5630.0 0.0010532
5650.0 0.0010055
5670.0 0.00097483
5690.0 0.00093389
5710.0 0.00090514
5730.0 0.0009156
5750.0 0.00091145
5770.0 0.00089398
5790.0 0.00090249
5810.0 0.00092752
5830.0 0.00094834
5850.0 0.00095484
5870.0 0.00093304
5890.0 0.00089416
5910.0 0.00085451
5930.0 0.00080075
5950.0 0.0007604
5970.0 0.00076338
5990.0 0.00078485
6010.0 0.00078853
6030.0 0.00076032
6050.0 0.0007533
6070.0 0.00078179
6090.0 0.00081334
6110.0 0.00081813
6130.0 0.00078369
6150.0 0.00073448
6170.0 0.00070507
6190.0 0.00068146
6210.0 0.00065832
6230.0 0.00064062
6250.0 0.00063731
6270.0 0.0006545
6290.0 0.00068279
6310.0 0.00071658
6330.0 0.00075213
6350.0 0.00077743
6370.0 0.00078531
6390.0 0.00078384
6410.0 0.00079183
6430.0 0.00080237
6450.0 0.00080327
6470.0 0.00080938
6490.0 0.0008182
6510.0 0.0008192
6530.0 0.00080886
6550.0 0.00078568
6570.0 0.00075837
6590.0 0.00073798
6610.0 0.0007223
6630.0 0.00070815
6650.0 0.00068402
6670.0 0.00065668
6690.0 0.00063623
6710.0 0.00062381
6730.0 0.000619
6750.0 0.00061228
6770.0 0.00060181
6790.0 0.00059181
6810.0 0.00058363
6830.0 0.0005821
6850.0 0.00057997
6870.0 0.00057393
6890.0 0.00057181
6910.0 0.00056168
6930.0 0.00054995
6950.0 0.0005486
6970.0 0.0005424
6990.0 0.00052822
7010.0 0.00051993
7030.0 0.00051186
7050.0 0.00050144
7070.0 0.00048937
7090.0 0.0004792
7110.0 0.0004845
7130.0 0.00050006
7150.0 0.00051586
7170.0 0.00052587
7190.0 0.0005234
7210.0 0.00051603
7230.0 0.00050936
7250.0 0.00050276
7270.0 0.00049595
7290.0 0.00048885
7310.0 0.00048458
7330.0 0.00049115
7350.0 0.00049623
7370.0 0.00049776
7390.0 0.00049272
7410.0 0.00048255
7430.0 0.00047831
7450.0 0.00047462
7470.0 0.00045493
7490.0 0.00043821
7510.0 0.00041898
7530.0 0.0004043
7550.0 0.00039924
7570.0 0.00040449
7590.0 0.0004012
7610.0 0.00039672
7630.0 0.00039394
7650.0 0.00039333
7670.0 0.00040069
7690.0 0.00041657
7710.0 0.00043135
7730.0 0.00044596
7750.0 0.0004571
7770.0 0.00046366
7790.0 0.00046225
7810.0 0.00045313
7830.0 0.00045697
7850.0 0.00045539
7870.0 0.00044256
7890.0 0.00042748
7910.0 0.00041411
7930.0 0.00040153
7950.0 0.0003934
7970.0 0.00039285
7990.0 0.00039725
8010.0 0.00039567
8030.0 0.0003911
8050.0 0.00038395
8070.0 0.00037653
8090.0 0.00036864
8110.0 0.00036944
8130.0 0.00037246
8150.0 0.00037231
8170.0 0.00036935
8190.0 0.00036286
8210.0 0.00034635
8230.0 0.00032328
8250.0 0.00030891
8270.0 0.00030023
8290.0 0.00029563
8310.0 0.00029721
8330.0 0.00030319
8350.0 0.00029716
8370.0 0.00029007
8390.0 0.00029431
8410.0 0.00030557
8430.0 0.00032322
8450.0 0.00033983
8470.0 0.00034525
8490.0 0.00034938
8510.0 0.00034887
8530.0 0.00034858
8550.0 0.00035164
8570.0 0.00035246
8590.0 0.00035274
8610.0 0.00036239
8630.0 0.00036577
8650.0 0.00035782
8670.0 0.00035726
8690.0 0.00035902
8710.0 0.00035599
8730.0 0.00035256
8750.0 0.00034204
8770.0 0.00033734
8790.0 0.00033421
8810.0 0.00033051
8830.0 0.00031376
8850.0 0.00028987
8870.0 0.00027196
8890.0 0.00026173
8910.0 0.00024584
8930.0 0.00022887
8950.0 0.00022145
8970.0 0.00022015
8990.0 0.00022075
9010.0 0.00021927
9030.0 0.00021771
9050.0 0.00021628
9070.0 0.00021492
9090.0 0.00021357
9110.0 0.00021222
9130.0 0.00021088
9150.0 0.00020954
9170.0 0.00020821
9190.0 0.00020687
9210.0 0.00020553
9230.0 0.00020421
9250.0 0.00020289
9270.0 0.00020158
9290.0 0.00020027
9310.0 0.00019896
9330.0 0.00019766
9350.0 0.00019636
9370.0 0.00019507
9390.0 0.00019379
9410.0 0.0001925
9430.0 0.00019122
9450.0 0.00018992
9470.0 0.00018865
9490.0 0.00018743
9510.0 0.00018618
9530.0 0.00018494
9550.0 0.0001837
9570.0 0.00018247
9590.0 0.00018125
9610.0 0.00018003
9630.0 0.00017881
9650.0 0.0001776
9670.0 0.00017641
9690.0 0.00017521
9710.0 0.00017402
9730.0 0.00017285
9750.0 0.00017167
9770.0 0.0001705
9790.0 0.00016934
9810.0 0.00016819
9830.0 0.00016701
9850.0 0.00016569
9870.0 0.00016459
9890.0 0.00016353
9910.0 0.00016245
9930.0 0.00016132
9950.0 0.00016025
9970.0 0.00015916
9990.0 0.00015804
10010.0 0.0001568
10030.0 0.00015566
10050.0 0.00015466
10070.0 0.00015365
10090.0 0.00015263
10110.0 0.00015155
10130.0 0.00015029
10150.0 0.00014928
10170.0 0.00014831
10190.0 0.00014728
10210.0 0.00014628
10230.0 0.00014529
10250.0 0.00014425
10270.0 0.00014322
10290.0 0.00014222
10310.0 0.00014119
10330.0 0.00014014
10350.0 0.00013913
10370.0 0.00013814
10390.0 0.00013711
10410.0 0.00013609
10430.0 0.00013512
10450.0 0.00013411
10470.0 0.0001331
10490.0 0.00013211
10510.0 0.00013114
10530.0 0.00013011
10550.0 0.00012911
10570.0 0.00012815
10590.0 0.00012715
10610.0 0.00012615
10630.0 0.00012519
10650.0 0.00012422
10670.0 0.00012321
10690.0 0.00012223
10710.0 0.00012127
10730.0 0.00012028
10750.0 0.00011927
10770.0 0.00011831
10790.0 0.00011735
10810.0 0.00011636
10830.0 0.00011538
10850.0 0.00011444
10870.0 0.00011344
10890.0 0.00011245
10910.0 0.0001115
10930.0 0.00011056
10950.0 0.0001096
10970.0 0.00010869
10990.0 0.00010783
11010.0 0.00010944
11030.0 0.00010868
11050.0 0.00010796
11070.0 0.00010723
11090.0 0.00010646
11110.0 0.00010572
11130.0 0.00010497
11150.0 0.00010419
11170.0 0.00010339
11190.0 0.00010263
11210.0 0.00010186
11230.0 0.00010107
11250.0 0.00010032
11270.0 9.9603e-05
11290.0 9.8879e-05
11310.0 9.8181e-05
11330.0 9.7547e-05
11350.0 9.6922e-05
11370.0 9.631e-05
11390.0 9.5738e-05
11410.0 9.519e-05
11430.0 9.4627e-05
11450.0 9.408e-05
11470.0 9.3549e-05
11490.0 9.3002e-05
11510.0 9.2426e-05
11530.0 9.1855e-05
11550.0 9.1266e-05
11570.0 9.0629e-05
11590.0 8.9968e-05
11610.0 8.9298e-05
11630.0 8.8574e-05
11650.0 8.7802e-05
11670.0 8.7037e-05
11690.0 8.6252e-05
11710.0 8.5424e-05
11730.0 8.4594e-05
11750.0 8.3791e-05
11770.0 8.296e-05
11790.0 8.2125e-05
11810.0 8.1327e-05
11830.0 8.0546e-05
11850.0 7.9743e-05
11870.0 7.8985e-05
11890.0 7.8271e-05
11910.0 7.7558e-05
11930.0 7.6863e-05
11950.0 7.6218e-05
11970.0 7.5593e-05
11990.0 7.4971e-05
12010.0 7.4394e-05
12030.0 7.3856e-05
12050.0 7.3335e-05
12070.0 7.2838e-05
12090.0 7.2402e-05
12110.0 7.1995e-05
12130.0 7.1617e-05
12150.0 7.1286e-05
12170.0 7.1004e-05
12190.0 7.0753e-05
12210.0 7.0551e-05
12230.0 7.0399e-05
12250.0 7.0292e-05
12270.0 7.0229e-05
12290.0 7.021e-05
12310.0 7.0228e-05
12330.0 7.0285e-05
12350.0 7.0374e-05
12370.0 7.0481e-05
12390.0 7.0609e-05
12410.0 7.0757e-05
12430.0 7.0896e-05
12450.0 7.1028e-05
12470.0 7.115e-05
12490.0 7.1249e-05
12510.0 7.1311e-05
12530.0 7.1338e-05
12550.0 7.132e-05
12570.0 7.1248e-05
12590.0 7.112e-05
12610.0 7.0927e-05
12630.0 7.0667e-05
12650.0 7.0355e-05
12670.0 6.9976e-05
12690.0 6.953e-05
12710.0 6.9042e-05
12730.0 6.8513e-05
12750.0 6.7913e-05
12770.0 6.7289e-05
12790.0 6.6656e-05
12810.0 6.599e-05
12830.0 6.5294e-05
12850.0 6.462e-05
12870.0 6.3947e-05
12890.0 6.3253e-05
12910.0 6.2573e-05
12930.0 6.1921e-05
12950.0 6.1253e-05
12970.0 6.0582e-05
12990.0 5.9951e-05
13010.0 5.9328e-05
13030.0 5.8696e-05
13050.0 5.8086e-05
13070.0 5.7508e-05
13090.0 5.6923e-05
13110.0 5.635e-05
13130.0 5.5813e-05
13150.0 5.5296e-05
13170.0 5.4778e-05
13190.0 5.4301e-05
13210.0 5.3862e-05
13230.0 5.3436e-05
13250.0 5.3032e-05
13270.0 5.2665e-05
13290.0 5.2314e-05
13310.0 5.197e-05
13330.0 5.165e-05
13350.0 5.1347e-05
13370.0 5.1042e-05
13390.0 5.0736e-05
13410.0 5.0448e-05
13430.0 5.0153e-05
13450.0 4.9847e-05
13470.0 4.9543e-05
13490.0 4.924e-05
13510.0 4.8913e-05
13530.0 4.8583e-05
13550.0 4.8258e-05
13570.0 4.7923e-05
13590.0 4.7574e-05
13610.0 4.723e-05
13630.0 4.6892e-05
13650.0 4.6536e-05
13670.0 4.6181e-05
13690.0 4.5835e-05
13710.0 4.5484e-05
13730.0 4.5113e-05
13750.0 4.4762e-05
13770.0 4.4411e-05
13790.0 4.4047e-05
13810.0 4.3682e-05
13830.0 4.3328e-05
13850.0 4.2959e-05
13870.0 4.2577e-05
13890.0 4.2203e-05
13910.0 4.1826e-05
13930.0 4.1427e-05
13950.0 4.1023e-05
13970.0 4.0632e-05
13990.0 4.0223e-05
14010.0 3.9801e-05
14030.0 3.9387e-05
14050.0 3.8971e-05
14070.0 3.8528e-05
14090.0 3.8096e-05
14110.0 3.7676e-05
14130.0 3.7248e-05
14150.0 3.6817e-05
14170.0 3.6414e-05
14190.0 3.6022e-05
14210.0 3.5629e-05
14230.0 3.5257e-05
14250.0 3.4912e-05
14270.0 3.457e-05
14290.0 3.4241e-05
14310.0 3.3944e-05
14330.0 3.3661e-05
14350.0 3.3384e-05
14370.0 3.3126e-05
14390.0 3.2888e-05
14410.0 3.2651e-05
14430.0 3.2423e-05
14450.0 3.2212e-05
14470.0 3.2008e-05
14490.0 3.1801e-05
14510.0 3.161e-05
14530.0 3.1431e-05
14550.0 3.1253e-05
14570.0 3.108e-05
14590.0 3.092e-05
14610.0 3.0764e-05
14630.0 3.0607e-05
14650.0 3.0463e-05
14670.0 3.0327e-05
14690.0 3.0194e-05
14710.0 3.0068e-05
14730.0 2.9958e-05
14750.0 2.9856e-05
14770.0 2.9763e-05
14790.0 2.9687e-05
14810.0 2.9629e-05
14830.0 2.9585e-05
14850.0 2.9563e-05
14870.0 2.9563e-05
14890.0 2.9584e-05
14910.0 2.9625e-05
14930.0 2.968e-05
14950.0 2.9744e-05
14970.0 2.9812e-05
14990.0 2.9876e-05
15010.0 2.9928e-05
15030.0 2.9968e-05
15050.0 2.9993e-05
15070.0 3.0004e-05
15090.0 3.0006e-05
15110.0 2.9999e-05
15130.0 2.9988e-05
15150.0 2.9977e-05
15170.0 2.9963e-05
15190.0 2.9948e-05
15210.0 2.9935e-05
15230.0 2.9922e-05
15250.0 2.9908e-05
15270.0 2.9895e-05
15290.0 2.9885e-05
15310.0 2.9874e-05
15330.0 2.9862e-05
15350.0 2.9853e-05
15370.0 2.9844e-05
15390.0 2.9833e-05
15410.0 2.9825e-05
15430.0 2.9817e-05
15450.0 2.981e-05
15470.0 2.9801e-05
15490.0 2.9796e-05
15510.0 2.979e-05
15530.0 2.9784e-05
15550.0 2.9779e-05
15570.0 2.9775e-05
15590.0 2.9771e-05
15610.0 2.9766e-05
15630.0 2.9764e-05
15650.0 2.9761e-05
15670.0 2.9758e-05
15690.0 2.9757e-05
15710.0 2.9757e-05
15730.0 2.9755e-05
15750.0 2.9754e-05
15770.0 2.9755e-05
15790.0 2.9756e-05
15810.0 2.9756e-05
15830.0 2.9757e-05
15850.0 2.976e-05
15870.0 2.9762e-05
15890.0 2.9764e-05
15910.0 2.9769e-05
15930.0 2.9772e-05
15950.0 2.9775e-05
15970.0 2.978e-05
15990.0 2.9785e-05
16010.0 2.979e-05
16030.0 2.9794e-05
16050.0 2.9801e-05
16070.0 2.9807e-05
16090.0 2.9813e-05
16110.0 2.982e-05
16130.0 2.9829e-05
16150.0 2.9835e-05
16170.0 2.9842e-05
16190.0 2.9851e-05
16210.0 2.9859e-05
16230.0 2.9866e-05
16250.0 2.9876e-05
16270.0 2.9886e-05
16290.0 2.9894e-05
16310.0 2.9903e-05
16330.0 2.9914e-05
16350.0 2.9924e-05
16370.0 2.9932e-05
16390.0 2.9943e-05
16410.0 2.9954e-05
16430.0 2.9964e-05
16450.0 2.9975e-05
16470.0 2.9987e-05
16490.0 2.9997e-05
16510.0 3.0007e-05
16530.0 3.0019e-05
16550.0 3.0031e-05
16570.0 3.0041e-05
16590.0 3.0051e-05
16610.0 3.0064e-05
16630.0 3.0075e-05
16650.0 3.0085e-05
16670.0 3.0097e-05
16690.0 3.0109e-05
16710.0 3.0119e-05
16730.0 3.013e-05
16750.0 3.0142e-05
16770.0 3.0152e-05
16790.0 3.0162e-05
16810.0 3.0173e-05
16830.0 3.0184e-05
16850.0 3.0194e-05
16870.0 3.0204e-05
16890.0 3.0215e-05
16910.0 3.0224e-05
16930.0 3.0232e-05
16950.0 3.0242e-05
16970.0 3.0251e-05
16990.0 3.0259e-05
17010.0 3.0267e-05
17030.0 3.0276e-05
17050.0 3.0283e-05
17070.0 3.029e-05
17090.0 3.0297e-05
17110.0 3.0304e-05
17130.0 3.0309e-05
17150.0 3.0314e-05
17170.0 3.0321e-05
17190.0 3.0325e-05
17210.0 3.0329e-05
17230.0 3.0334e-05
17250.0 3.0337e-05
17270.0 3.0338e-05
17290.0 3.0341e-05
17310.0 3.0343e-05
17330.0 3.0344e-05
17350.0 3.0343e-05
17370.0 3.0344e-05
17390.0 3.0344e-05
17410.0 3.0341e-05
17430.0 3.034e-05
17450.0 3.0338e-05
17470.0 3.0333e-05
17490.0 3.0328e-05
17510.0 3.0324e-05
17530.0 3.0319e-05
17550.0 3.0311e-05
17570.0 3.0305e-05
17590.0 3.0298e-05
17610.0 3.0288e-05
17630.0 3.0278e-05
17650.0 3.0269e-05
17670.0 3.0258e-05
17690.0 3.0243e-05
17710.0 3.0231e-05
17730.0 3.0218e-05
17750.0 3.0203e-05
17770.0 3.0187e-05
17790.0 3.0172e-05
17810.0 3.0154e-05
17830.0 3.0134e-05
17850.0 3.0115e-05
17870.0 3.0096e-05
17890.0 3.0073e-05
17910.0 3.005e-05
17930.0 3.0028e-05
17950.0 3.0004e-05
17970.0 2.9977e-05
17990.0 2.9952e-05
18010.0 2.9925e-05
18030.0 2.9895e-05
18050.0 2.9865e-05
18070.0 2.9836e-05
18090.0 2.9803e-05
18110.0 2.9769e-05
18130.0 2.9737e-05
18150.0 2.9702e-05
18170.0 2.9665e-05
18190.0 2.9628e-05
18210.0 2.9591e-05
18230.0 2.9551e-05
18250.0 2.9509e-05
18270.0 2.9468e-05
18290.0 2.9426e-05
18310.0 2.9381e-05
18330.0 2.9336e-05
18350.0 2.9291e-05
18370.0 2.9243e-05
18390.0 2.9194e-05
18410.0 2.9145e-05
18430.0 2.9094e-05
18450.0 2.9041e-05
18470.0 2.8988e-05
18490.0 2.8935e-05
18510.0 2.8879e-05
18530.0 2.8822e-05
18550.0 2.8765e-05
18570.0 2.8706e-05
18590.0 2.8645e-05
18610.0 2.8584e-05
18630.0 2.8523e-05
18650.0 2.8458e-05
18670.0 2.8393e-05
18690.0 2.8329e-05
18710.0 2.8262e-05
18730.0 2.8193e-05
18750.0 2.8125e-05
18770.0 2.8056e-05
18790.0 2.7983e-05
18810.0 2.791e-05
18830.0 2.7837e-05
18850.0 2.7763e-05
18870.0 2.7686e-05
18890.0 2.761e-05
18910.0 2.7533e-05
18930.0 2.7454e-05
18950.0 2.7374e-05
18970.0 2.7294e-05
18990.0 2.7212e-05
19010.0 2.7127e-05
19030.0 2.7044e-05
19050.0 2.696e-05
19070.0 2.6873e-05
19090.0 2.6786e-05
19110.0 2.67e-05
19130.0 2.661e-05
19150.0 2.6519e-05
19170.0 2.6429e-05
19190.0 2.6338e-05
19210.0 2.6244e-05
19230.0 2.6151e-05
19250.0 2.6058e-05
19270.0 2.5962e-05
19290.0 2.5866e-05
19310.0 2.577e-05
19330.0 2.5673e-05
19350.0 2.5572e-05
19370.0 2.5473e-05
19390.0 2.5374e-05
19410.0 2.5273e-05
19430.0 2.517e-05
19450.0 2.5069e-05
19470.0 2.4967e-05
19490.0 2.4862e-05
19510.0 2.4758e-05
19530.0 2.4654e-05
19550.0 2.4547e-05
19570.0 2.4439e-05
19590.0 2.4334e-05
19610.0 2.4226e-05
19630.0 2.4117e-05
19650.0 2.4009e-05
19670.0 2.3901e-05
19690.0 2.379e-05
19710.0 2.3679e-05
19730.0 2.3569e-05
19750.0 2.3458e-05
19770.0 2.3344e-05
19790.0 2.3232e-05
19810.0 2.312e-05
19830.0 2.3006e-05
19850.0 2.2891e-05
19870.0 2.2777e-05
19890.0 2.2657e-05
19910.0 2.2531e-05
19930.0 2.2398e-05
19950.0 2.2254e-05
19970.0 2.2089e-05
19990.0 2.1901e-05
20010.0 2.1695e-05
20030.0 2.1459e-05
20050.0 2.1194e-05
20070.0 2.0915e-05
20090.0 2.0622e-05
20110.0 2.0303e-05
20130.0 1.9984e-05
20150.0 1.9671e-05
20170.0 1.9353e-05
20190.0 1.9033e-05
20210.0 1.8729e-05
20230.0 1.8432e-05
20250.0 1.8133e-05
20270.0 1.785e-05
20290.0 1.7582e-05
20310.0 1.7319e-05
20330.0 1.7062e-05
20350.0 1.6831e-05
20370.0 1.6609e-05
20390.0 1.6394e-05
20410.0 1.6196e-05
20430.0 1.6013e-05
20450.0 1.5835e-05
20470.0 1.567e-05
20490.0 1.552e-05
20510.0 1.5379e-05
20530.0 1.5246e-05
20550.0 1.5124e-05
20570.0 1.5012e-05
20590.0 1.4906e-05
20610.0 1.4808e-05
20630.0 1.4717e-05
20650.0 1.4631e-05
20670.0 1.4549e-05
20690.0 1.4472e-05
20710.0 1.4398e-05
20730.0 1.4325e-05
20750.0 1.4253e-05
20770.0 1.4182e-05
20790.0 1.4109e-05
20810.0 1.4034e-05
20830.0 1.3956e-05
20850.0 1.3875e-05
20870.0 1.3788e-05
20890.0 1.3696e-05
20910.0 1.36e-05
20930.0 1.3497e-05
20950.0 1.3387e-05
20970.0 1.3272e-05
20990.0 1.3153e-05
21010.0 1.3025e-05
21030.0 1.2893e-05
21050.0 1.2758e-05
21070.0 1.2617e-05
21090.0 1.247e-05
21110.0 1.2325e-05
21130.0 1.2179e-05
21150.0 1.2028e-05
21170.0 1.1877e-05
21190.0 1.173e-05
21210.0 1.158e-05
21230.0 1.143e-05
21250.0 1.1285e-05
21270.0 1.1143e-05
21290.0 1.1001e-05
21310.0 1.0863e-05
21330.0 1.0732e-05
21350.0 1.0602e-05
21370.0 1.0474e-05
21390.0 1.0353e-05
21410.0 1.0236e-05
21430.0 1.0118e-05
21450.0 1.0006e-05
21470.0 9.8984e-06
21490.0 9.7922e-06
21510.0 9.6878e-06
21530.0 9.5881e-06
21550.0 9.49e-06
21570.0 9.3915e-06
21590.0 9.2959e-06
21610.0 9.2029e-06
21630.0 9.1095e-06
21650.0 9.0156e-06
21670.0 8.9261e-06
21690.0 8.8366e-06
21710.0 8.7464e-06
21730.0 8.6579e-06
21750.0 8.5715e-06
21770.0 8.4826e-06
21790.0 8.3945e-06
21810.0 8.3085e-06
21830.0 8.2223e-06
21850.0 8.1344e-06
21870.0 8.048e-06
21890.0 7.9632e-06
21910.0 7.8763e-06
21930.0 7.7892e-06
21950.0 7.704e-06
21970.0 7.6179e-06
21990.0 7.5292e-06
22010.0 7.4432e-06
22030.0 7.3581e-06
22050.0 7.2715e-06
22070.0 7.1854e-06
22090.0 7.1025e-06
22110.0 7.0191e-06
22130.0 6.9354e-06
22150.0 6.8547e-06
22170.0 6.7762e-06
22190.0 6.6971e-06
22210.0 6.6201e-06
22230.0 6.5476e-06
22250.0 6.476e-06
22270.0 6.4056e-06
22290.0 6.3389e-06
22310.0 6.2747e-06
22330.0 6.2104e-06
22350.0 6.1489e-06
22370.0 6.0904e-06
22390.0 6.0327e-06
22410.0 5.9753e-06
22430.0 5.9211e-06
22450.0 5.868e-06
22470.0 5.8147e-06
22490.0 5.7625e-06
22510.0 5.7121e-06
22530.0 5.6608e-06
22550.0 5.6094e-06
22570.0 5.5598e-06
22590.0 5.5105e-06
22610.0 5.4605e-06
22630.0 5.4115e-06
22650.0 5.3643e-06
22670.0 5.3166e-06
22690.0 5.2694e-06
