#lamb flux
1010.0 0.00010048
1030.0 0.00011256
1050.0 0.00012455
1070.0 0.0001381
1090.0 0.00015411
1110.0 0.00017051
1130.0 0.00018707
1150.0 0.0002045
1170.0 0.00022267
1190.0 0.00024024
1210.0 0.00025844
1230.0 0.00027771
1250.0 0.00029711
1270.0 0.0003167
1290.0 0.00033802
1310.0 0.00036014
1330.0 0.00038232
1350.0 0.00040546
1370.0 0.00042993
1390.0 0.00045456
1410.0 0.00047914
1430.0 0.00050498
1450.0 0.00053111
1470.0 0.00055671
1490.0 0.00058254
1510.0 0.00060939
1530.0 0.00063489
1550.0 0.00065975
1570.0 0.00068483
1590.0 0.00070935
1610.0 0.00073218
1630.0 0.00075463
1650.0 0.00077673
1670.0 0.00079713
1690.0 0.00081622
1710.0 0.000835
1730.0 0.00085276
1750.0 0.00086811
1770.0 0.00088295
1790.0 0.00089712
1810.0 0.00090961
1830.0 0.00092086
1850.0 0.00093248
1870.0 0.00094288
1890.0 0.00095208
1910.0 0.00096124
1930.0 0.00097057
1950.0 0.00097885
1970.0 0.00098684
1990.0 0.00099552
2010.0 0.0010039
2030.0 0.0010117
2050.0 0.00102
2070.0 0.0010287
2090.0 0.0010362
2110.0 0.0010433
2130.0 0.0010505
2150.0 0.0010568
2170.0 0.0010615
2190.0 0.001066
2210.0 0.0010694
2230.0 0.001071
2250.0 0.0010711
2270.0 0.0010705
2290.0 0.0010679
2310.0 0.0010631
2330.0 0.0010573
2350.0 0.0010499
2370.0 0.0010404
2390.0 0.0010294
2410.0 0.0010174
2430.0 0.0010031
2450.0 0.00098677
2470.0 0.0009687
2490.0 0.00094877
2510.0 0.00092709
2530.0 0.00090589
2550.0 0.00088842
2570.0 0.00087865
2590.0 0.00088093
2610.0 0.00090454
2630.0 0.00095221
2650.0 0.0010194
2670.0 0.0011063
2690.0 0.0012074
2710.0 0.0013025
2730.0 0.0013799
2750.0 0.0014363
2770.0 0.0014559
2790.0 0.0014345
2810.0 0.0013744
2830.0 0.0012741
2850.0 0.0011448
2870.0 0.00099349
2890.0 0.00082126
2910.0 0.00063685
2930.0 0.00045047
2950.0 0.00025385
2970.0 6.8989e-05
2990.0 6.8989e-05
3010.0 0.00014009
3030.0 0.00014009
3050.0 0.00014009
3070.0 0.00014009
3090.0 0.00014009
3110.0 0.00014009
3130.0 0.00014009
3150.0 0.00014009
3170.0 0.00014009
3190.0 0.00014009
3210.0 0.00014009
3230.0 0.0056948
3250.0 0.010145
3270.0 0.009516
3290.0 0.0088829
3310.0 0.0067521
3330.0 0.0065531
3350.0 0.0072372
3370.0 0.0082575
3390.0 0.0093806
3410.0 0.010585
3430.0 0.012173
3450.0 0.013727
3470.0 0.015336
3490.0 0.015927
3510.0 0.014466
3530.0 0.013913
3550.0 0.015395
3570.0 0.016532
3590.0 0.017917
3610.0 0.017494
3630.0 0.021193
3650.0 0.023138
3670.0 0.024436
3690.0 0.024278
3710.0 0.02198
3730.0 0.021705
3750.0 0.020618
3770.0 0.019914
3790.0 0.018754
3810.0 0.017837
3830.0 0.018407
3850.0 0.0097536
3870.0 0.013085
3890.0 0.01517
3910.0 0.018648
3930.0 0.023936
3950.0 0.025947
3970.0 0.028986
3990.0 0.034723
4010.0 0.029442
4030.0 0.02533
4050.0 0.018292
4070.0 0.017239
4090.0 0.025409
4110.0 0.02541
4130.0 0.027658
4150.0 0.026507
4170.0 0.0251
4190.0 0.022781
4210.0 0.030693
4230.0 0.032412
4250.0 0.035325
4270.0 0.033631
4290.0 0.033154
4310.0 0.036014
4330.0 0.0423
4350.0 0.044151
4370.0 0.043887
4390.0 0.040043
4410.0 0.036944
4430.0 0.0288
4450.0 0.023451
4470.0 0.025321
4490.0 0.02969
4510.0 0.030908
4530.0 0.031152
4550.0 0.031515
4570.0 0.044904
4590.0 0.067212
4610.0 0.078973
4630.0 0.079996
4650.0 0.086263
4670.0 0.10058
4690.0 0.10902
4710.0 0.090884
4730.0 0.069324
4750.0 0.054304
4770.0 0.046822
4790.0 0.042828
4810.0 0.040602
4830.0 0.045004
4850.0 0.053178
4870.0 0.058312
4890.0 0.060902
4910.0 0.057359
4930.0 0.062016
4950.0 0.07569
4970.0 0.08818
4990.0 0.091448
5010.0 0.084209
5030.0 0.069935
5050.0 0.053866
5070.0 0.042962
5090.0 0.038799
5110.0 0.038192
5130.0 0.038897
5150.0 0.038622
5170.0 0.036318
5190.0 0.034072
5210.0 0.033399
5230.0 0.037681
5250.0 0.044714
5270.0 0.053234
5290.0 0.060424
5310.0 0.064347
5330.0 0.070643
5350.0 0.078047
5370.0 0.080506
5390.0 0.072617
5410.0 0.064231
5430.0 0.06259
5450.0 0.072611
5470.0 0.089135
5490.0 0.1031
5510.0 0.10899
5530.0 0.1069
5550.0 0.10166
5570.0 0.097834
5590.0 0.093806
5610.0 0.091673
5630.0 0.090839
5650.0 0.090641
5670.0 0.088484
5690.0 0.079797
5710.0 0.067017
5730.0 0.059654
5750.0 0.056896
5770.0 0.057867
5790.0 0.05932
5810.0 0.061036
5830.0 0.061499
5850.0 0.058249
5870.0 0.054565
5890.0 0.052724
5910.0 0.054085
5930.0 0.055703
5950.0 0.05189
5970.0 0.045281
5990.0 0.036993
6010.0 0.029805
6030.0 0.027519
6050.0 0.029804
6070.0 0.031682
6090.0 0.030204
6110.0 0.026658
6130.0 0.02728
6150.0 0.031739
6170.0 0.036489
6190.0 0.040053
6210.0 0.04063
6230.0 0.039991
6250.0 0.03652
6270.0 0.030526
6290.0 0.025202
6310.0 0.022367
6330.0 0.021853
6350.0 0.022245
6370.0 0.022547
6390.0 0.025358
6410.0 0.03163
6430.0 0.039035
6450.0 0.043795
6470.0 0.04515
6490.0 0.044841
6510.0 0.045769
6530.0 0.04717
6550.0 0.04694
6570.0 0.048709
6590.0 0.049941
6610.0 0.050791
6630.0 0.049942
6650.0 0.04664
6670.0 0.042554
6690.0 0.038696
6710.0 0.036623
6730.0 0.036173
6750.0 0.036828
6770.0 0.037838
6790.0 0.039066
6810.0 0.039896
6830.0 0.039135
6850.0 0.037244
6870.0 0.034892
6890.0 0.034107
6910.0 0.033079
6930.0 0.034235
6950.0 0.036275
6970.0 0.037234
6990.0 0.037925
7010.0 0.03684
7030.0 0.033876
7050.0 0.029973
7070.0 0.026745
7090.0 0.025028
7110.0 0.024811
7130.0 0.024215
7150.0 0.021644
7170.0 0.020535
7190.0 0.022466
7210.0 0.025979
7230.0 0.029957
7250.0 0.031712
7270.0 0.031346
7290.0 0.02891
7310.0 0.026687
7330.0 0.025608
7350.0 0.02568
7370.0 0.026165
7390.0 0.027408
7410.0 0.030369
7430.0 0.035097
7450.0 0.039625
7470.0 0.041796
7490.0 0.040822
7510.0 0.038183
7530.0 0.033477
7550.0 0.030667
7570.0 0.027594
7590.0 0.026168
7610.0 0.027046
7630.0 0.029438
7650.0 0.032772
7670.0 0.03618
7690.0 0.038673
7710.0 0.041292
7730.0 0.044004
7750.0 0.046352
7770.0 0.046194
7790.0 0.046722
7810.0 0.047771
7830.0 0.047801
7850.0 0.046463
7870.0 0.045199
7890.0 0.045668
7910.0 0.044623
7930.0 0.044148
7950.0 0.04203
7970.0 0.041023
7990.0 0.039707
8010.0 0.040447
8030.0 0.040932
8050.0 0.041376
8070.0 0.041067
8090.0 0.040958
8110.0 0.039653
8130.0 0.039742
8150.0 0.03938
8170.0 0.038515
8190.0 0.037835
8210.0 0.037816
8230.0 0.037015
8250.0 0.036384
8270.0 0.033087
8290.0 0.027135
8310.0 0.020483
8330.0 0.015895
8350.0 0.014925
8370.0 0.017867
8390.0 0.021747
8410.0 0.023584
8430.0 0.024286
8450.0 0.025629
8470.0 0.027554
8490.0 0.030974
8510.0 0.035468
8530.0 0.040865
8550.0 0.045955
8570.0 0.050203
8590.0 0.053516
8610.0 0.055486
8630.0 0.055754
8650.0 0.055374
8670.0 0.05554
8690.0 0.058495
8710.0 0.062405
8730.0 0.065095
8750.0 0.065029
8770.0 0.066106
8790.0 0.066027
8810.0 0.062179
8830.0 0.058736
8850.0 0.05408
8870.0 0.050325
8890.0 0.049174
8910.0 0.049374
8930.0 0.04677
8950.0 0.043768
8970.0 0.042581
8990.0 0.042325
9010.0 0.04076
9030.0 0.039844
9050.0 0.039507
9070.0 0.039352
9090.0 0.039218
9110.0 0.03909
9130.0 0.03896
9150.0 0.038832
9170.0 0.038689
9190.0 0.038583
9210.0 0.038631
9230.0 0.038435
9250.0 0.038273
9270.0 0.03813
9290.0 0.038
9310.0 0.037873
9330.0 0.037751
9350.0 0.037639
9370.0 0.037527
9390.0 0.037412
9410.0 0.037303
9430.0 0.03719
9450.0 0.037029
9470.0 0.036886
9490.0 0.036826
9510.0 0.036743
9530.0 0.036652
9550.0 0.036559
9570.0 0.036462
9590.0 0.036363
9610.0 0.036264
9630.0 0.036165
9650.0 0.036067
9670.0 0.035968
9690.0 0.03587
9710.0 0.035773
9730.0 0.035676
9750.0 0.035579
9770.0 0.035482
9790.0 0.035386
9810.0 0.035289
9830.0 0.035192
9850.0 0.035096
9870.0 0.034999
9890.0 0.034901
9910.0 0.034803
9930.0 0.034701
9950.0 0.034333
9970.0 0.034313
9990.0 0.034277
10010.0 0.034231
10030.0 0.034163
10050.0 0.034075
10070.0 0.033984
10090.0 0.033892
10110.0 0.033781
10130.0 0.033675
10150.0 0.033571
10170.0 0.033459
10190.0 0.033335
10210.0 0.033222
10230.0 0.033111
10250.0 0.032988
10270.0 0.032864
10290.0 0.032749
10310.0 0.032622
10330.0 0.032484
10350.0 0.032356
10370.0 0.032228
10390.0 0.032086
10410.0 0.031943
10430.0 0.031811
10450.0 0.031666
10470.0 0.031512
10490.0 0.031365
10510.0 0.031216
10530.0 0.031047
10550.0 0.030883
10570.0 0.030727
10590.0 0.030557
10610.0 0.030379
10630.0 0.030211
10650.0 0.030037
10670.0 0.029845
10690.0 0.029657
10710.0 0.029473
10730.0 0.029275
10750.0 0.029064
10770.0 0.02887
10790.0 0.028667
10810.0 0.028449
10830.0 0.028234
10850.0 0.028025
10870.0 0.027792
10890.0 0.027554
10910.0 0.027322
10930.0 0.02708
10950.0 0.026816
10970.0 0.026549
10990.0 0.026284
11010.0 0.027735
11030.0 0.027415
11050.0 0.027105
11070.0 0.026787
11090.0 0.026449
11110.0 0.026138
11130.0 0.025839
11150.0 0.025534
11170.0 0.025234
11190.0 0.024957
11210.0 0.024675
11230.0 0.024387
11250.0 0.024113
11270.0 0.023846
11290.0 0.023567
11310.0 0.023288
11330.0 0.023029
11350.0 0.02276
11370.0 0.022482
11390.0 0.02221
11410.0 0.021936
11430.0 0.021636
11450.0 0.02133
11470.0 0.02102
11490.0 0.020689
11510.0 0.020329
11530.0 0.019968
11550.0 0.019595
11570.0 0.019191
11590.0 0.018777
11610.0 0.018366
11630.0 0.017932
11650.0 0.017482
11670.0 0.017051
11690.0 0.016622
11710.0 0.016184
11730.0 0.015758
11750.0 0.015358
11770.0 0.014955
11790.0 0.01456
11810.0 0.014191
11830.0 0.013835
11850.0 0.013476
11870.0 0.013141
11890.0 0.012829
11910.0 0.012519
11930.0 0.012218
11950.0 0.011938
11970.0 0.011667
11990.0 0.011395
12010.0 0.011142
12030.0 0.010904
12050.0 0.01067
12070.0 0.010446
12090.0 0.010247
12110.0 0.01006
12130.0 0.0098842
12150.0 0.0097292
12170.0 0.0095954
12190.0 0.0094748
12210.0 0.0093764
12230.0 0.0093013
12250.0 0.0092461
12270.0 0.0092124
12290.0 0.0092001
12310.0 0.0092068
12330.0 0.0092349
12350.0 0.0092824
12370.0 0.0093444
12390.0 0.0094236
12410.0 0.0095252
12430.0 0.0096332
12450.0 0.0097506
12470.0 0.0098828
12490.0 0.010022
12510.0 0.010158
12530.0 0.010301
12550.0 0.010447
12570.0 0.010582
12590.0 0.010707
12610.0 0.010825
12630.0 0.010927
12650.0 0.011002
12670.0 0.01106
12690.0 0.011094
12710.0 0.011101
12730.0 0.011082
12750.0 0.011037
12770.0 0.010965
12790.0 0.010872
12810.0 0.010757
12830.0 0.01062
12850.0 0.010474
12870.0 0.010318
12890.0 0.01015
12910.0 0.009979
12930.0 0.0098116
12950.0 0.0096406
12970.0 0.0094705
12990.0 0.0093116
13010.0 0.009158
13030.0 0.0090065
13050.0 0.0088629
13070.0 0.0087286
13090.0 0.0085948
13110.0 0.0084643
13130.0 0.0083402
13150.0 0.0082186
13170.0 0.0080944
13190.0 0.0079752
13210.0 0.0078606
13230.0 0.0077452
13250.0 0.007632
13270.0 0.007526
13290.0 0.0074236
13310.0 0.0073247
13330.0 0.0072358
13350.0 0.0071567
13370.0 0.0070858
13390.0 0.0070252
13410.0 0.0069771
13430.0 0.006938
13450.0 0.0069074
13470.0 0.0068841
13490.0 0.0068653
13510.0 0.0068488
13530.0 0.0068317
13550.0 0.0068113
13570.0 0.0067854
13590.0 0.0067515
13610.0 0.006709
13630.0 0.0066584
13650.0 0.0065967
13670.0 0.0065263
13690.0 0.0064504
13710.0 0.0063679
13730.0 0.0062778
13750.0 0.0061902
13770.0 0.0061036
13790.0 0.006017
13810.0 0.0059348
13830.0 0.0058607
13850.0 0.0057906
13870.0 0.0057264
13890.0 0.0056707
13910.0 0.0056218
13930.0 0.0055775
13950.0 0.005539
13970.0 0.0055061
13990.0 0.0054758
14010.0 0.0054474
14030.0 0.0054208
14050.0 0.0053947
14070.0 0.0053667
14090.0 0.0053375
14110.0 0.0053068
14130.0 0.0052726
14150.0 0.0052344
14170.0 0.0051945
14190.0 0.0051517
14210.0 0.0051047
14230.0 0.0050563
14250.0 0.005008
14270.0 0.0049575
14290.0 0.0049068
14310.0 0.0048603
14330.0 0.0048164
14350.0 0.004775
14370.0 0.0047389
14390.0 0.0047089
14410.0 0.004683
14430.0 0.0046625
14450.0 0.0046479
14470.0 0.0046379
14490.0 0.004632
14510.0 0.0046302
14530.0 0.0046317
14550.0 0.0046361
14570.0 0.0046435
14590.0 0.0046534
14610.0 0.0046664
14630.0 0.0046835
14650.0 0.0047041
14670.0 0.0047286
14690.0 0.0047589
14710.0 0.0047954
14730.0 0.0048354
14750.0 0.0048821
14770.0 0.0049363
14790.0 0.0049957
14810.0 0.0050602
14830.0 0.0051361
14850.0 0.0052186
14870.0 0.0053056
14890.0 0.0054007
14910.0 0.0055038
14930.0 0.0056062
14950.0 0.0057053
14970.0 0.0058029
14990.0 0.0058894
15010.0 0.0059606
15030.0 0.0060189
15050.0 0.0060643
15070.0 0.0060953
15090.0 0.0061175
15110.0 0.0061339
15130.0 0.0061463
15150.0 0.0061566
15170.0 0.0061659
15190.0 0.0061749
15210.0 0.0061839
15230.0 0.0061931
15250.0 0.0062024
15270.0 0.0062119
15290.0 0.0062216
15310.0 0.0062315
15330.0 0.0062416
15350.0 0.0062519
15370.0 0.0062624
15390.0 0.006273
15410.0 0.0062839
15430.0 0.0062949
15450.0 0.006306
15470.0 0.0063173
15490.0 0.0063288
15510.0 0.0063405
15530.0 0.0063523
15550.0 0.0063642
15570.0 0.0063763
15590.0 0.0063884
15610.0 0.0064007
15630.0 0.0064132
15650.0 0.0064258
15670.0 0.0064384
15690.0 0.0064512
15710.0 0.0064641
15730.0 0.0064771
15750.0 0.0064901
15770.0 0.0065033
15790.0 0.0065165
15810.0 0.0065298
15830.0 0.0065432
15850.0 0.0065566
15870.0 0.0065701
15890.0 0.0065836
15910.0 0.0065973
15930.0 0.0066109
15950.0 0.0066246
15970.0 0.0066383
15990.0 0.006652
16010.0 0.0066657
16030.0 0.0066794
16050.0 0.0066932
16070.0 0.006707
16090.0 0.0067207
16110.0 0.0067344
16130.0 0.0067482
16150.0 0.0067618
16170.0 0.0067754
16190.0 0.006789
16210.0 0.0068026
16230.0 0.006816
16250.0 0.0068295
16270.0 0.0068429
16290.0 0.0068562
16310.0 0.0068694
16330.0 0.0068825
16350.0 0.0068956
16370.0 0.0069084
16390.0 0.0069213
16410.0 0.006934
16430.0 0.0069466
16450.0 0.006959
16470.0 0.0069714
16490.0 0.0069835
16510.0 0.0069955
16530.0 0.0070074
16550.0 0.0070191
16570.0 0.0070306
16590.0 0.0070419
16610.0 0.0070532
16630.0 0.0070641
16650.0 0.0070749
16670.0 0.0070855
16690.0 0.0070959
16710.0 0.007106
16730.0 0.0071159
16750.0 0.0071256
16770.0 0.0071351
16790.0 0.0071442
16810.0 0.0071532
16830.0 0.007162
16850.0 0.0071704
16870.0 0.0071785
16890.0 0.0071865
16910.0 0.0071941
16930.0 0.0072013
16950.0 0.0072084
16970.0 0.0072151
16990.0 0.0072215
17010.0 0.0072276
17030.0 0.0072335
17050.0 0.007239
17070.0 0.0072441
17090.0 0.0072489
17110.0 0.0072534
17130.0 0.0072575
17150.0 0.0072613
17170.0 0.0072648
17190.0 0.0072679
17210.0 0.0072706
17230.0 0.007273
17250.0 0.007275
17270.0 0.0072765
17290.0 0.0072778
17310.0 0.0072787
17330.0 0.0072792
17350.0 0.0072792
17370.0 0.007279
17390.0 0.0072784
17410.0 0.0072772
17430.0 0.0072758
17450.0 0.007274
17470.0 0.0072717
17490.0 0.007269
17510.0 0.007266
17530.0 0.0072625
17550.0 0.0072585
17570.0 0.0072543
17590.0 0.0072496
17610.0 0.0072445
17630.0 0.007239
17650.0 0.0072331
17670.0 0.0072267
17690.0 0.0072199
17710.0 0.0072128
17730.0 0.0072052
17750.0 0.0071972
17770.0 0.0071888
17790.0 0.0071801
17810.0 0.0071709
17830.0 0.0071612
17850.0 0.0071512
17870.0 0.0071408
17890.0 0.0071299
17910.0 0.0071187
17930.0 0.0071071
17950.0 0.0070951
17970.0 0.0070826
17990.0 0.0070699
18010.0 0.0070567
18030.0 0.0070431
18050.0 0.0070291
18070.0 0.0070149
18090.0 0.0070001
18110.0 0.006985
18130.0 0.0069696
18150.0 0.0069539
18170.0 0.0069377
18190.0 0.0069212
18210.0 0.0069044
18230.0 0.0068871
18250.0 0.0068695
18270.0 0.0068517
18290.0 0.0068335
18310.0 0.0068149
18330.0 0.006796
18350.0 0.0067769
18370.0 0.0067574
18390.0 0.0067376
18410.0 0.0067175
18430.0 0.0066972
18450.0 0.0066764
18470.0 0.0066555
18490.0 0.0066343
18510.0 0.0066128
18530.0 0.006591
18550.0 0.006569
18570.0 0.0065467
18590.0 0.0065241
18610.0 0.0065014
18630.0 0.0064784
18650.0 0.0064552
18670.0 0.0064317
18690.0 0.0064081
18710.0 0.0063842
18730.0 0.0063601
18750.0 0.0063359
18770.0 0.0063115
18790.0 0.0062867
18810.0 0.0062619
18830.0 0.006237
18850.0 0.0062118
18870.0 0.0061864
18890.0 0.006161
18910.0 0.0061355
18930.0 0.0061097
18950.0 0.0060838
18970.0 0.0060578
18990.0 0.0060317
19010.0 0.0060054
19030.0 0.0059791
19050.0 0.0059527
19070.0 0.0059261
19090.0 0.0058995
19110.0 0.0058728
19130.0 0.005846
19150.0 0.0058191
19170.0 0.0057923
19190.0 0.0057653
19210.0 0.0057382
19230.0 0.0057111
19250.0 0.0056841
19270.0 0.0056569
19290.0 0.0056297
19310.0 0.0056026
19330.0 0.0055754
19350.0 0.0055481
19370.0 0.0055208
19390.0 0.0054936
19410.0 0.0054664
19430.0 0.0054391
19450.0 0.0054119
19470.0 0.0053847
19490.0 0.0053575
19510.0 0.0053303
19530.0 0.0053033
19550.0 0.0052761
19570.0 0.005249
19590.0 0.0052221
19610.0 0.0051951
19630.0 0.0051682
19650.0 0.0051413
19670.0 0.0051146
19690.0 0.0050878
19710.0 0.0050611
19730.0 0.0050346
19750.0 0.0050081
19770.0 0.0049816
19790.0 0.0049552
19810.0 0.004929
19830.0 0.0049026
19850.0 0.0048762
19870.0 0.0048494
19890.0 0.0048218
19910.0 0.0047922
19930.0 0.00476
19950.0 0.0047237
19970.0 0.0046808
19990.0 0.0046301
20010.0 0.0045727
20030.0 0.0045057
20050.0 0.0044297
20070.0 0.004349
20090.0 0.0042643
20110.0 0.0041727
20130.0 0.0040821
20150.0 0.0039942
20170.0 0.0039058
20190.0 0.0038184
20210.0 0.0037364
20230.0 0.003657
20250.0 0.0035783
20270.0 0.0035042
20290.0 0.0034348
20310.0 0.0033671
20330.0 0.0033011
20350.0 0.0032415
20370.0 0.0031843
20390.0 0.0031288
20410.0 0.0030771
20430.0 0.0030292
20450.0 0.0029823
20470.0 0.0029383
20490.0 0.002898
20510.0 0.0028601
20530.0 0.0028241
20550.0 0.0027913
20570.0 0.0027616
20590.0 0.0027336
20610.0 0.0027082
20630.0 0.0026854
20650.0 0.0026647
20670.0 0.0026458
20690.0 0.0026291
20710.0 0.0026142
20730.0 0.0026008
20750.0 0.0025888
20770.0 0.0025779
20790.0 0.002568
20810.0 0.0025589
20830.0 0.0025502
20850.0 0.0025417
20870.0 0.0025335
20890.0 0.0025252
20910.0 0.0025163
20930.0 0.002507
20950.0 0.002497
20970.0 0.0024861
20990.0 0.0024743
21010.0 0.0024615
21030.0 0.0024474
21050.0 0.0024323
21070.0 0.002416
21090.0 0.0023983
21110.0 0.0023797
21130.0 0.0023602
21150.0 0.0023393
21170.0 0.0023175
21190.0 0.0022954
21210.0 0.0022721
21230.0 0.0022478
21250.0 0.0022236
21270.0 0.0021991
21290.0 0.0021737
21310.0 0.0021483
21330.0 0.0021236
21350.0 0.0020985
21370.0 0.0020733
21390.0 0.0020491
21410.0 0.0020255
21430.0 0.0020017
21450.0 0.0019792
21470.0 0.0019582
21490.0 0.0019378
21510.0 0.0019186
21530.0 0.0019012
21550.0 0.0018851
21570.0 0.0018703
21590.0 0.0018572
21610.0 0.0018458
21630.0 0.001836
21650.0 0.0018278
21670.0 0.0018212
21690.0 0.001816
21710.0 0.0018123
21730.0 0.0018098
21750.0 0.0018081
21770.0 0.0018079
21790.0 0.0018083
21810.0 0.0018092
21830.0 0.0018104
21850.0 0.0018123
21870.0 0.001814
21890.0 0.0018152
21910.0 0.0018166
21930.0 0.0018176
21950.0 0.0018178
21970.0 0.0018175
21990.0 0.0018168
22010.0 0.0018151
22030.0 0.0018127
22050.0 0.0018097
22070.0 0.0018059
22090.0 0.0018014
22110.0 0.0017963
22130.0 0.0017906
22150.0 0.0017844
22170.0 0.0017778
22190.0 0.0017706
22210.0 0.0017631
22230.0 0.0017553
22250.0 0.001747
22270.0 0.0017384
22290.0 0.0017294
22310.0 0.00172
22330.0 0.00171
22350.0 0.0016994
22370.0 0.0016883
22390.0 0.0016764
22410.0 0.0016635
22430.0 0.00165
22450.0 0.0016356
22470.0 0.0016199
22490.0 0.0016032
22510.0 0.0015858
22530.0 0.001567
22550.0 0.0015467
22570.0 0.0015263
22590.0 0.001505
22610.0 0.0014824
22630.0 0.0014596
22650.0 0.0014371
22670.0 0.0014138
22690.0 0.0013904
22710.0 0.0013678
22730.0 0.0013456
22750.0 0.001323
22770.0 0.0013019
22790.0 0.0012821
22810.0 0.0012628
22830.0 0.0012444
22850.0 0.0012277
22870.0 0.001212
22890.0 0.001197
22910.0 0.0011833
22930.0 0.0011709
22950.0 0.0011592
22970.0 0.0011482
22990.0 0.0011385
23010.0 0.0011292
23030.0 0.0011204
23050.0 0.0011121
23070.0 0.0011042
23090.0 0.0010961
23110.0 0.0010882
23130.0 0.0010804
23150.0 0.0010725
23170.0 0.0010642
23190.0 0.0010559
23210.0 0.0010476
23230.0 0.0010389
23250.0 0.0010301
23270.0 0.0010215
23290.0 0.0010128
23310.0 0.0010039
23330.0 0.00099555
23350.0 0.00098748
23370.0 0.00097951
23390.0 0.00097186
23410.0 0.00096475
23430.0 0.00095779
23450.0 0.000951
23470.0 0.0009446
23490.0 0.00093843
23510.0 0.00093225
23530.0 0.00092624
23550.0 0.00092048
23570.0 0.0009147
23590.0 0.0009089
23610.0 0.0009033
23630.0 0.00089781
23650.0 0.00089227
23670.0 0.00088698
23690.0 0.00088203
23710.0 0.00087733
23730.0 0.00087302
23750.0 0.00086936
23770.0 0.00086634
23790.0 0.00086409
23810.0 0.00086278
23830.0 0.00086244
23850.0 0.00086336
23870.0 0.00086569
23890.0 0.00086918
23910.0 0.00087405
23930.0 0.00088061
23950.0 0.00088844
23970.0 0.00089714
23990.0 0.00090746
24010.0 0.00091897
24030.0 0.0009309
24050.0 0.00094354
24070.0 0.00095759
24090.0 0.00097139
24110.0 0.00098501
24130.0 0.00099926
24150.0 0.0010137
24170.0 0.0010274
24190.0 0.0010413
24210.0 0.0010557
24230.0 0.0010695
