#lamb flux
1010.0 3.5906e-06
1030.0 3.9606e-06
1050.0 4.3207e-06
1070.0 4.7267e-06
1090.0 5.2072e-06
1110.0 5.6971e-06
1130.0 6.1889e-06
1150.0 6.7042e-06
1170.0 7.2382e-06
1190.0 7.7509e-06
1210.0 8.2791e-06
1230.0 8.8363e-06
1250.0 9.3932e-06
1270.0 9.9522e-06
1290.0 1.0559e-05
1310.0 1.1187e-05
1330.0 1.1811e-05
1350.0 1.2461e-05
1370.0 1.3144e-05
1390.0 1.3827e-05
1410.0 1.4502e-05
1430.0 1.5209e-05
1450.0 1.5917e-05
1470.0 1.6603e-05
1490.0 1.7288e-05
1510.0 1.7995e-05
1530.0 1.8656e-05
1550.0 1.9292e-05
1570.0 1.9927e-05
1590.0 2.054e-05
1610.0 2.1099e-05
1630.0 2.1641e-05
1650.0 2.217e-05
1670.0 2.2647e-05
1690.0 2.3087e-05
1710.0 2.3518e-05
1730.0 2.3922e-05
1750.0 2.4264e-05
1770.0 2.4597e-05
1790.0 2.492e-05
1810.0 2.5208e-05
1830.0 2.5475e-05
1850.0 2.5768e-05
1870.0 2.6047e-05
1890.0 2.6314e-05
1910.0 2.6604e-05
1930.0 2.6925e-05
1950.0 2.7245e-05
1970.0 2.7587e-05
1990.0 2.7978e-05
2010.0 2.8393e-05
2030.0 2.8822e-05
2050.0 2.9298e-05
2070.0 2.9815e-05
2090.0 3.0327e-05
2110.0 3.0857e-05
2130.0 3.1414e-05
2150.0 3.1969e-05
2170.0 3.2501e-05
2190.0 3.3043e-05
2210.0 3.3573e-05
2230.0 3.4062e-05
2250.0 3.4521e-05
2270.0 3.4969e-05
2290.0 3.5364e-05
2310.0 3.5699e-05
2330.0 3.6005e-05
2350.0 3.6269e-05
2370.0 3.6467e-05
2390.0 3.6622e-05
2410.0 3.6749e-05
2430.0 3.6811e-05
2450.0 3.681e-05
2470.0 3.6769e-05
2490.0 3.6685e-05
2510.0 3.6555e-05
2530.0 3.647e-05
2550.0 3.657e-05
2570.0 3.7011e-05
2590.0 3.7985e-05
2610.0 3.9935e-05
2630.0 4.3002e-05
2650.0 4.7013e-05
2670.0 5.2015e-05
2690.0 5.7781e-05
2710.0 6.3358e-05
2730.0 6.8174e-05
2750.0 7.2042e-05
2770.0 7.4169e-05
2790.0 7.4322e-05
2810.0 7.2604e-05
2830.0 6.8937e-05
2850.0 6.3885e-05
2870.0 5.7791e-05
2890.0 5.0716e-05
2910.0 4.3085e-05
2930.0 3.5381e-05
2950.0 2.7207e-05
2970.0 1.8696e-05
2990.0 1.0272e-05
3010.0 4.4203e-06
3030.0 4.4203e-06
3050.0 4.4203e-06
3070.0 4.4203e-06
3090.0 4.4203e-06
3110.0 4.4203e-06
3130.0 4.4203e-06
3150.0 4.4203e-06
3170.0 4.4203e-06
3190.0 4.4203e-06
3210.0 7.6194e-05
3230.0 0.00032204
3250.0 0.00047247
3270.0 0.00041719
3290.0 0.00032507
3310.0 0.00024925
3330.0 0.00023338
3350.0 0.00024998
3370.0 0.00027706
3390.0 0.00030563
3410.0 0.00033602
3430.0 0.00037609
3450.0 0.00041372
3470.0 0.00045241
3490.0 0.0004573
3510.0 0.00038473
3530.0 0.00034736
3550.0 0.00043321
3570.0 0.00053564
3590.0 0.00059551
3610.0 0.0006103
3630.0 0.00067641
3650.0 0.00069072
3670.0 0.00071631
3690.0 0.00080612
3710.0 0.00088623
3730.0 0.00094777
3750.0 0.00097506
3770.0 0.00098607
3790.0 0.00095754
3810.0 0.00089229
3830.0 0.00080061
3850.0 0.00057122
3870.0 0.00052921
3890.0 0.00060063
3910.0 0.00080954
3930.0 0.0010368
3950.0 0.0011266
3970.0 0.0011776
3990.0 0.0013172
4010.0 0.0013268
4030.0 0.0011925
4050.0 0.00086912
4070.0 0.00073809
4090.0 0.00089696
4110.0 0.0009814
4130.0 0.0010609
4150.0 0.0010511
4170.0 0.00099971
4190.0 0.00093206
4210.0 0.0010558
4230.0 0.0011379
4250.0 0.0012216
4270.0 0.0012053
4290.0 0.0011601
4310.0 0.0011825
4330.0 0.0013409
4350.0 0.0014812
4370.0 0.0015072
4390.0 0.0014043
4410.0 0.0012619
4430.0 0.00099983
4450.0 0.00080627
4470.0 0.00081593
4490.0 0.00092208
4510.0 0.00098714
4530.0 0.0010021
4550.0 0.0010292
4570.0 0.0013965
4590.0 0.0020233
4610.0 0.0024023
4630.0 0.0025097
4650.0 0.0027646
4670.0 0.0031888
4690.0 0.0033431
4710.0 0.0028649
4730.0 0.0022108
4750.0 0.0017145
4770.0 0.0014377
4790.0 0.0012923
4810.0 0.0012321
4830.0 0.0013552
4850.0 0.0016297
4870.0 0.0018204
4890.0 0.0018736
4910.0 0.0018441
4930.0 0.0020389
4950.0 0.0024099
4970.0 0.0026848
4990.0 0.002713
5010.0 0.0024629
5030.0 0.0020327
5050.0 0.001611
5070.0 0.001338
5090.0 0.0012371
5110.0 0.0012345
5130.0 0.0012537
5150.0 0.0012372
5170.0 0.0011587
5190.0 0.001103
5210.0 0.0011321
5230.0 0.0013077
5250.0 0.0016088
5270.0 0.0019396
5290.0 0.0021828
5310.0 0.0023814
5330.0 0.0026821
5350.0 0.0029757
5370.0 0.0030324
5390.0 0.002805
5410.0 0.002578
5430.0 0.0026239
5450.0 0.0030804
5470.0 0.0037369
5490.0 0.004281
5510.0 0.0045449
5530.0 0.0045554
5550.0 0.0044438
5570.0 0.0043332
5590.0 0.0042201
5610.0 0.004177
5630.0 0.0042361
5650.0 0.0043078
5670.0 0.0041917
5690.0 0.0038146
5710.0 0.0033651
5730.0 0.0031084
5750.0 0.0030687
5770.0 0.0032114
5790.0 0.0033688
5810.0 0.0034999
5830.0 0.0035826
5850.0 0.0035222
5870.0 0.0034363
5890.0 0.0034725
5910.0 0.0036531
5930.0 0.0037827
5950.0 0.003622
5970.0 0.0032373
5990.0 0.0027143
6010.0 0.0022664
6030.0 0.0021413
6050.0 0.0023236
6070.0 0.0024476
6090.0 0.0022975
6110.0 0.0020657
6130.0 0.0021315
6150.0 0.0024381
6170.0 0.0027281
6190.0 0.002916
6210.0 0.002973
6230.0 0.0029315
6250.0 0.002666
6270.0 0.0022245
6290.0 0.0018491
6310.0 0.0016777
6330.0 0.0016715
6350.0 0.0017092
6370.0 0.0017793
6390.0 0.0020473
6410.0 0.0025211
6430.0 0.0029776
6450.0 0.0032208
6470.0 0.0033075
6490.0 0.0033361
6510.0 0.0033766
6530.0 0.0034259
6550.0 0.0034482
6570.0 0.0035574
6590.0 0.0036548
6610.0 0.0036759
6630.0 0.003543
6650.0 0.0032749
6670.0 0.0030016
6690.0 0.0028
6710.0 0.002675
6730.0 0.002584
6750.0 0.0025645
6770.0 0.0026349
6790.0 0.0027359
6810.0 0.0027923
6830.0 0.0027469
6850.0 0.0026039
6870.0 0.0024482
6890.0 0.0023896
6910.0 0.0023702
6930.0 0.0024427
6950.0 0.002536
6970.0 0.0025955
6990.0 0.0026198
7010.0 0.0025345
7030.0 0.002332
7050.0 0.0020777
7070.0 0.0018997
7090.0 0.0018435
7110.0 0.0018474
7130.0 0.0017593
7150.0 0.0015658
7170.0 0.0015107
7190.0 0.0016792
7210.0 0.0019518
7230.0 0.0022038
7250.0 0.0022966
7270.0 0.0022468
7290.0 0.0020936
7310.0 0.0019614
7330.0 0.0019218
7350.0 0.0019438
7370.0 0.0019762
7390.0 0.0020757
7410.0 0.0022992
7430.0 0.0026038
7450.0 0.0028706
7470.0 0.0029729
7490.0 0.0028507
7510.0 0.0026213
7530.0 0.0023792
7550.0 0.0021885
7570.0 0.0019865
7590.0 0.001876
7610.0 0.001877
7630.0 0.0019647
7650.0 0.002118
7670.0 0.0022941
7690.0 0.0024322
7710.0 0.0025431
7730.0 0.0026406
7750.0 0.0027135
7770.0 0.0026899
7790.0 0.0026909
7810.0 0.0026824
7830.0 0.0025971
7850.0 0.0024841
7870.0 0.0024071
7890.0 0.0024123
7910.0 0.0023749
7930.0 0.0023056
7950.0 0.0021845
7970.0 0.00209
7990.0 0.0019931
8010.0 0.001937
8030.0 0.0019314
8050.0 0.001919
8070.0 0.0018781
8090.0 0.0018467
8110.0 0.0017842
8130.0 0.00177
8150.0 0.0017391
8170.0 0.001687
8190.0 0.0016314
8210.0 0.0015909
8230.0 0.0015401
8250.0 0.0015105
8270.0 0.0013869
8290.0 0.0011538
8310.0 0.00089605
8330.0 0.00072037
8350.0 0.00067896
8370.0 0.00078233
8390.0 0.00091957
8410.0 0.00097685
8430.0 0.00099398
8450.0 0.0010454
8470.0 0.0011209
8490.0 0.0012421
8510.0 0.001393
8530.0 0.001559
8550.0 0.0016956
8570.0 0.0017965
8590.0 0.001868
8610.0 0.0018983
8630.0 0.0018775
8650.0 0.0018374
8670.0 0.0018263
8690.0 0.0019125
8710.0 0.002033
8730.0 0.0020948
8750.0 0.0020723
8770.0 0.0020871
8790.0 0.0020717
8810.0 0.0019478
8830.0 0.0018059
8850.0 0.0016293
8870.0 0.00149
8890.0 0.0014423
8910.0 0.0014239
8930.0 0.001331
8950.0 0.0012251
8970.0 0.0011766
8990.0 0.0011657
9010.0 0.0011268
9030.0 0.001103
9050.0 0.0010928
9070.0 0.0010879
9090.0 0.0010837
9110.0 0.0010797
9130.0 0.0010756
9150.0 0.0010717
9170.0 0.0010675
9190.0 0.0010644
9210.0 0.0010641
9230.0 0.0010587
9250.0 0.0010541
9270.0 0.00105
9290.0 0.0010461
9310.0 0.0010424
9330.0 0.0010388
9350.0 0.0010355
9370.0 0.0010321
9390.0 0.0010288
9410.0 0.0010255
9430.0 0.0010222
9450.0 0.0010173
9470.0 0.001013
9490.0 0.0010115
9510.0 0.0010091
9530.0 0.0010066
9550.0 0.0010039
9570.0 0.0010012
9590.0 0.00099839
9610.0 0.0009956
9630.0 0.00099279
9650.0 0.00099001
9670.0 0.00098729
9690.0 0.00098455
9710.0 0.00098183
9730.0 0.00097916
9750.0 0.00097649
9770.0 0.00097379
9790.0 0.00097114
9810.0 0.00096851
9830.0 0.00096586
9850.0 0.0009632
9870.0 0.00096058
9890.0 0.00095795
9910.0 0.00095527
9930.0 0.00095253
9950.0 0.00094417
9970.0 0.00094315
9990.0 0.00094177
10010.0 0.00094028
10030.0 0.00093825
10050.0 0.00093578
10070.0 0.00093326
10090.0 0.00093074
10110.0 0.00092769
10130.0 0.0009244
10150.0 0.00092164
10170.0 0.00091877
10190.0 0.00091554
10210.0 0.00091257
10230.0 0.00090963
10250.0 0.00090631
10270.0 0.00090298
10290.0 0.00089987
10310.0 0.00089642
10330.0 0.00089265
10350.0 0.00088919
10370.0 0.00088569
10390.0 0.00088181
10410.0 0.00087792
10430.0 0.00087431
10450.0 0.00087032
10470.0 0.00086609
10490.0 0.00086205
10510.0 0.00085797
10530.0 0.0008533
10550.0 0.00084877
10570.0 0.00084444
10590.0 0.00083976
10610.0 0.00083482
10630.0 0.00083013
10650.0 0.0008253
10670.0 0.00081996
10690.0 0.00081472
10710.0 0.00080959
10730.0 0.00080406
10750.0 0.00079816
10770.0 0.00079271
10790.0 0.00078702
10810.0 0.00078092
10830.0 0.00077488
10850.0 0.00076901
10870.0 0.00076245
10890.0 0.00075578
10910.0 0.00074931
10930.0 0.00074257
10950.0 0.00073529
10970.0 0.00072802
10990.0 0.00072089
11010.0 0.00077972
11030.0 0.00077151
11050.0 0.00076353
11070.0 0.00075537
11090.0 0.00074659
11110.0 0.00073843
11130.0 0.00073047
11150.0 0.00072223
11170.0 0.00071404
11190.0 0.00070635
11210.0 0.00069847
11230.0 0.00069038
11250.0 0.00068265
11270.0 0.00067511
11290.0 0.00066727
11310.0 0.00065948
11330.0 0.00065224
11350.0 0.00064479
11370.0 0.00063715
11390.0 0.0006297
11410.0 0.00062224
11430.0 0.00061409
11450.0 0.00060581
11470.0 0.00059744
11490.0 0.00058845
11510.0 0.00057869
11530.0 0.00056886
11550.0 0.00055866
11570.0 0.00054759
11590.0 0.00053622
11610.0 0.00052489
11630.0 0.00051289
11650.0 0.00050043
11670.0 0.00048845
11690.0 0.00047649
11710.0 0.00046424
11730.0 0.0004523
11750.0 0.00044101
11770.0 0.00042956
11790.0 0.00041827
11810.0 0.00040762
11830.0 0.00039728
11850.0 0.00038674
11870.0 0.00037679
11890.0 0.00036742
11910.0 0.00035805
11930.0 0.00034887
11950.0 0.00034028
11970.0 0.00033191
11990.0 0.00032353
12010.0 0.00031568
12030.0 0.00030832
12050.0 0.00030113
12070.0 0.00029423
12090.0 0.00028812
12110.0 0.00028239
12130.0 0.00027704
12150.0 0.00027233
12170.0 0.00026826
12190.0 0.00026464
12210.0 0.00026169
12230.0 0.00025944
12250.0 0.00025779
12270.0 0.0002568
12290.0 0.00025643
12310.0 0.00025659
12330.0 0.00025736
12350.0 0.00025867
12370.0 0.00026032
12390.0 0.0002624
12410.0 0.00026504
12430.0 0.00026774
12450.0 0.00027059
12470.0 0.00027374
12490.0 0.00027696
12510.0 0.00027997
12530.0 0.00028306
12550.0 0.00028613
12570.0 0.00028883
12590.0 0.0002912
12610.0 0.00029337
12630.0 0.00029506
12650.0 0.00029607
12670.0 0.00029662
12690.0 0.00029659
12710.0 0.00029587
12730.0 0.00029453
12750.0 0.00029255
12770.0 0.00028993
12790.0 0.0002868
12810.0 0.00028313
12830.0 0.00027894
12850.0 0.00027452
12870.0 0.00026987
12890.0 0.00026491
12910.0 0.0002599
12930.0 0.00025498
12950.0 0.00024995
12970.0 0.00024494
12990.0 0.00024023
13010.0 0.00023564
13030.0 0.00023111
13050.0 0.0002268
13070.0 0.00022274
13090.0 0.00021871
13110.0 0.00021479
13130.0 0.00021108
13150.0 0.00020747
13170.0 0.00020384
13190.0 0.00020038
13210.0 0.00019708
13230.0 0.0001938
13250.0 0.0001906
13270.0 0.0001876
13290.0 0.00018467
13310.0 0.00018181
13330.0 0.00017916
13350.0 0.00017671
13370.0 0.00017439
13390.0 0.00017225
13410.0 0.00017038
13430.0 0.00016868
13450.0 0.00016714
13470.0 0.00016577
13490.0 0.00016455
13510.0 0.0001634
13530.0 0.00016231
13550.0 0.00016126
13570.0 0.00016019
13590.0 0.00015905
13610.0 0.00015785
13630.0 0.00015658
13650.0 0.00015518
13670.0 0.00015369
13690.0 0.00015215
13710.0 0.00015053
13730.0 0.0001488
13750.0 0.00014713
13770.0 0.00014547
13790.0 0.00014382
13810.0 0.00014223
13830.0 0.00014077
13850.0 0.00013936
13870.0 0.00013803
13890.0 0.00013683
13910.0 0.00013573
13930.0 0.00013469
13950.0 0.00013372
13970.0 0.00013284
13990.0 0.00013197
14010.0 0.00013111
14030.0 0.00013027
14050.0 0.00012941
14070.0 0.00012848
14090.0 0.00012752
14110.0 0.00012652
14130.0 0.00012545
14150.0 0.00012429
14170.0 0.00012312
14190.0 0.00012192
14210.0 0.00012065
14230.0 0.00011939
14250.0 0.00011817
14270.0 0.00011694
14290.0 0.00011576
14310.0 0.00011471
14330.0 0.00011374
14350.0 0.00011287
14370.0 0.00011213
14390.0 0.00011154
14410.0 0.00011104
14430.0 0.00011067
14450.0 0.00011041
14470.0 0.00011024
14490.0 0.00011015
14510.0 0.00011014
14530.0 0.00011017
14550.0 0.00011026
14570.0 0.0001104
14590.0 0.0001106
14610.0 0.00011085
14630.0 0.0001112
14650.0 0.00011164
14670.0 0.00011219
14690.0 0.00011289
14710.0 0.00011377
14730.0 0.00011478
14750.0 0.00011599
14770.0 0.00011743
14790.0 0.00011906
14810.0 0.00012087
14830.0 0.00012303
14850.0 0.0001254
14870.0 0.00012793
14890.0 0.00013071
14910.0 0.00013371
14930.0 0.00013671
14950.0 0.00013962
14970.0 0.00014249
14990.0 0.00014505
15010.0 0.0001472
15030.0 0.00014899
15050.0 0.00015044
15070.0 0.0001515
15090.0 0.00015233
15110.0 0.000153
15130.0 0.00015356
15150.0 0.00015408
15170.0 0.00015457
15190.0 0.00015506
15210.0 0.00015555
15230.0 0.00015605
15250.0 0.00015656
15270.0 0.00015708
15290.0 0.00015761
15310.0 0.00015815
15330.0 0.00015869
15350.0 0.00015925
15370.0 0.00015982
15390.0 0.00016039
15410.0 0.00016098
15430.0 0.00016157
15450.0 0.00016217
15470.0 0.00016278
15490.0 0.0001634
15510.0 0.00016403
15530.0 0.00016466
15550.0 0.0001653
15570.0 0.00016595
15590.0 0.00016661
15610.0 0.00016727
15630.0 0.00016794
15650.0 0.00016862
15670.0 0.0001693
15690.0 0.00016999
15710.0 0.00017069
15730.0 0.00017139
15750.0 0.0001721
15770.0 0.00017281
15790.0 0.00017353
15810.0 0.00017425
15830.0 0.00017498
15850.0 0.00017571
15870.0 0.00017645
15890.0 0.00017719
15910.0 0.00017793
15930.0 0.00017868
15950.0 0.00017943
15970.0 0.00018019
15990.0 0.00018094
16010.0 0.0001817
16030.0 0.00018246
16050.0 0.00018323
16070.0 0.00018399
16090.0 0.00018476
16110.0 0.00018553
16130.0 0.0001863
16150.0 0.00018707
16170.0 0.00018784
16190.0 0.00018861
16210.0 0.00018938
16230.0 0.00019015
16250.0 0.00019091
16270.0 0.00019168
16290.0 0.00019245
16310.0 0.00019321
16330.0 0.00019398
16350.0 0.00019474
16370.0 0.00019549
16390.0 0.00019625
16410.0 0.000197
16430.0 0.00019774
16450.0 0.00019849
16470.0 0.00019923
16490.0 0.00019996
16510.0 0.00020069
16530.0 0.00020142
16550.0 0.00020214
16570.0 0.00020285
16590.0 0.00020356
16610.0 0.00020426
16630.0 0.00020495
16650.0 0.00020564
16670.0 0.00020632
16690.0 0.00020699
16710.0 0.00020766
16730.0 0.00020831
16750.0 0.00020896
16770.0 0.0002096
16790.0 0.00021023
16810.0 0.00021085
16830.0 0.00021146
16850.0 0.00021206
16870.0 0.00021265
16890.0 0.00021323
16910.0 0.0002138
16930.0 0.00021436
16950.0 0.0002149
16970.0 0.00021544
16990.0 0.00021596
17010.0 0.00021647
17030.0 0.00021697
17050.0 0.00021745
17070.0 0.00021792
17090.0 0.00021838
17110.0 0.00021882
17130.0 0.00021925
17150.0 0.00021967
17170.0 0.00022007
17190.0 0.00022046
17210.0 0.00022083
17230.0 0.00022119
17250.0 0.00022154
17270.0 0.00022186
17290.0 0.00022217
17310.0 0.00022247
17330.0 0.00022275
17350.0 0.00022302
17370.0 0.00022327
17390.0 0.0002235
17410.0 0.00022372
17430.0 0.00022392
17450.0 0.0002241
17470.0 0.00022426
17490.0 0.00022441
17510.0 0.00022455
17530.0 0.00022466
17550.0 0.00022476
17570.0 0.00022484
17590.0 0.0002249
17610.0 0.00022495
17630.0 0.00022498
17650.0 0.00022499
17670.0 0.00022498
17690.0 0.00022496
17710.0 0.00022492
17730.0 0.00022486
17750.0 0.00022478
17770.0 0.00022468
17790.0 0.00022457
17810.0 0.00022444
17830.0 0.00022429
17850.0 0.00022413
17870.0 0.00022395
17890.0 0.00022375
17910.0 0.00022353
17930.0 0.0002233
17950.0 0.00022305
17970.0 0.00022278
17990.0 0.00022249
18010.0 0.00022219
18030.0 0.00022187
18050.0 0.00022153
18070.0 0.00022118
18090.0 0.00022081
18110.0 0.00022043
18130.0 0.00022003
18150.0 0.00021961
18170.0 0.00021917
18190.0 0.00021872
18210.0 0.00021826
18230.0 0.00021778
18250.0 0.00021728
18270.0 0.00021677
18290.0 0.00021625
18310.0 0.00021571
18330.0 0.00021515
18350.0 0.00021459
18370.0 0.000214
18390.0 0.00021341
18410.0 0.0002128
18430.0 0.00021218
18450.0 0.00021154
18470.0 0.00021089
18490.0 0.00021023
18510.0 0.00020955
18530.0 0.00020887
18550.0 0.00020817
18570.0 0.00020746
18590.0 0.00020674
18610.0 0.000206
18630.0 0.00020526
18650.0 0.00020451
18670.0 0.00020374
18690.0 0.00020297
18710.0 0.00020218
18730.0 0.00020139
18750.0 0.00020059
18770.0 0.00019977
18790.0 0.00019895
18810.0 0.00019812
18830.0 0.00019728
18850.0 0.00019644
18870.0 0.00019558
18890.0 0.00019472
18910.0 0.00019385
18930.0 0.00019298
18950.0 0.00019209
18970.0 0.0001912
18990.0 0.00019031
19010.0 0.00018941
19030.0 0.0001885
19050.0 0.00018759
19070.0 0.00018667
19090.0 0.00018575
19110.0 0.00018482
19130.0 0.00018389
19150.0 0.00018296
19170.0 0.00018202
19190.0 0.00018108
19210.0 0.00018013
19230.0 0.00017918
19250.0 0.00017823
19270.0 0.00017728
19290.0 0.00017632
19310.0 0.00017536
19330.0 0.0001744
19350.0 0.00017344
19370.0 0.00017247
19390.0 0.00017151
19410.0 0.00017054
19430.0 0.00016958
19450.0 0.00016861
19470.0 0.00016764
19490.0 0.00016667
19510.0 0.00016571
19530.0 0.00016474
19550.0 0.00016377
19570.0 0.0001628
19590.0 0.00016184
19610.0 0.00016087
19630.0 0.00015991
19650.0 0.00015895
19670.0 0.00015799
19690.0 0.00015703
19710.0 0.00015607
19730.0 0.00015512
19750.0 0.00015417
19770.0 0.00015321
19790.0 0.00015227
19810.0 0.00015132
19830.0 0.00015037
19850.0 0.00014942
19870.0 0.00014846
19890.0 0.00014747
19910.0 0.00014643
19930.0 0.0001453
19950.0 0.00014405
19970.0 0.0001426
19990.0 0.00014092
20010.0 0.00013903
20030.0 0.00013685
20050.0 0.0001344
20070.0 0.00013182
20090.0 0.00012911
20110.0 0.0001262
20130.0 0.00012333
20150.0 0.00012053
20170.0 0.00011772
20190.0 0.00011494
20210.0 0.00011233
20230.0 0.00010981
20250.0 0.0001073
20270.0 0.00010495
20290.0 0.00010275
20310.0 0.00010061
20330.0 9.8545e-05
20350.0 9.6689e-05
20370.0 9.4925e-05
20390.0 9.3237e-05
20410.0 9.1678e-05
20430.0 9.0252e-05
20450.0 8.8879e-05
20470.0 8.7608e-05
20490.0 8.6454e-05
20510.0 8.538e-05
20530.0 8.4371e-05
20550.0 8.3451e-05
20570.0 8.2613e-05
20590.0 8.1825e-05
20610.0 8.1097e-05
20630.0 8.0427e-05
20650.0 7.9799e-05
20670.0 7.9207e-05
20690.0 7.8652e-05
20710.0 7.8123e-05
20730.0 7.7612e-05
20750.0 7.7114e-05
20770.0 7.6625e-05
20790.0 7.6137e-05
20810.0 7.5645e-05
20830.0 7.5147e-05
20850.0 7.4639e-05
20870.0 7.4113e-05
20890.0 7.3569e-05
20910.0 7.3011e-05
20930.0 7.2431e-05
20950.0 7.1827e-05
20970.0 7.1207e-05
20990.0 7.0572e-05
21010.0 6.9906e-05
21030.0 6.9225e-05
21050.0 6.8536e-05
21070.0 6.7829e-05
21090.0 6.7098e-05
21110.0 6.6373e-05
21130.0 6.5645e-05
21150.0 6.4899e-05
21170.0 6.4154e-05
21190.0 6.3421e-05
21210.0 6.2677e-05
21230.0 6.1927e-05
21250.0 6.1199e-05
21270.0 6.0479e-05
21290.0 5.9756e-05
21310.0 5.9048e-05
21330.0 5.8369e-05
21350.0 5.7692e-05
21370.0 5.7028e-05
21390.0 5.6394e-05
21410.0 5.5782e-05
21430.0 5.5175e-05
21450.0 5.4603e-05
21470.0 5.4064e-05
21490.0 5.3546e-05
21510.0 5.3053e-05
21530.0 5.2597e-05
21550.0 5.2169e-05
21570.0 5.1764e-05
21590.0 5.1393e-05
21610.0 5.1051e-05
21630.0 5.0735e-05
21650.0 5.0446e-05
21670.0 5.0183e-05
21690.0 4.9943e-05
21710.0 4.9725e-05
21730.0 4.9526e-05
21750.0 4.9342e-05
21770.0 4.9177e-05
21790.0 4.9025e-05
21810.0 4.888e-05
21830.0 4.8744e-05
21850.0 4.8618e-05
21870.0 4.8492e-05
21890.0 4.8363e-05
21910.0 4.8238e-05
21930.0 4.8111e-05
21950.0 4.7975e-05
21970.0 4.7835e-05
21990.0 4.7691e-05
22010.0 4.7535e-05
22030.0 4.7369e-05
22050.0 4.7196e-05
22070.0 4.7012e-05
22090.0 4.6818e-05
22110.0 4.6615e-05
22130.0 4.6403e-05
22150.0 4.6183e-05
22170.0 4.5956e-05
22190.0 4.572e-05
22210.0 4.5476e-05
22230.0 4.5229e-05
22250.0 4.4973e-05
22270.0 4.4709e-05
22290.0 4.4439e-05
22310.0 4.4162e-05
22330.0 4.387e-05
22350.0 4.3567e-05
22370.0 4.3254e-05
22390.0 4.2923e-05
22410.0 4.2567e-05
22430.0 4.2201e-05
22450.0 4.1814e-05
22470.0 4.1397e-05
22490.0 4.0957e-05
22510.0 4.0505e-05
22530.0 4.0015e-05
22550.0 3.9495e-05
22570.0 3.8969e-05
22590.0 3.8424e-05
22610.0 3.7849e-05
22630.0 3.7266e-05
22650.0 3.6693e-05
22670.0 3.6098e-05
22690.0 3.5498e-05
22710.0 3.4918e-05
22730.0 3.4347e-05
22750.0 3.3764e-05
22770.0 3.3214e-05
22790.0 3.2695e-05
22810.0 3.2185e-05
22830.0 3.1696e-05
22850.0 3.1248e-05
22870.0 3.0821e-05
22890.0 3.0409e-05
