#lamb flux
1010.0 1.2728e-07
1030.0 1.4215e-07
1050.0 1.5892e-07
1070.0 1.7789e-07
1090.0 1.9966e-07
1110.0 2.2216e-07
1130.0 2.4503e-07
1150.0 2.6921e-07
1170.0 2.9444e-07
1190.0 3.1881e-07
1210.0 3.4391e-07
1230.0 3.7027e-07
1250.0 3.9665e-07
1270.0 4.2291e-07
1290.0 4.5113e-07
1310.0 4.8e-07
1330.0 5.0853e-07
1350.0 5.3802e-07
1370.0 5.6902e-07
1390.0 6.0008e-07
1410.0 6.3105e-07
1430.0 6.6379e-07
1450.0 6.9715e-07
1470.0 7.3018e-07
1490.0 7.6399e-07
1510.0 7.9974e-07
1530.0 8.3439e-07
1550.0 8.6894e-07
1570.0 9.0461e-07
1590.0 9.404e-07
1610.0 9.7489e-07
1630.0 1.01e-06
1650.0 1.0456e-06
1670.0 1.0798e-06
1690.0 1.1131e-06
1710.0 1.1467e-06
1730.0 1.1796e-06
1750.0 1.2098e-06
1770.0 1.2396e-06
1790.0 1.2686e-06
1810.0 1.2953e-06
1830.0 1.3199e-06
1850.0 1.3445e-06
1870.0 1.3665e-06
1890.0 1.3856e-06
1910.0 1.4033e-06
1930.0 1.4196e-06
1950.0 1.4324e-06
1970.0 1.4428e-06
1990.0 1.4519e-06
2010.0 1.4583e-06
2030.0 1.4614e-06
2050.0 1.4631e-06
2070.0 1.4631e-06
2090.0 1.4594e-06
2110.0 1.4533e-06
2130.0 1.4458e-06
2150.0 1.4357e-06
2170.0 1.4226e-06
2190.0 1.4083e-06
2210.0 1.3923e-06
2230.0 1.3736e-06
2250.0 1.3531e-06
2270.0 1.332e-06
2290.0 1.3088e-06
2310.0 1.2837e-06
2330.0 1.2579e-06
2350.0 1.2313e-06
2370.0 1.2031e-06
2390.0 1.1741e-06
2410.0 1.1451e-06
2430.0 1.1145e-06
2450.0 1.0824e-06
2470.0 1.0493e-06
2490.0 1.0146e-06
2510.0 9.7834e-07
2530.0 9.4249e-07
2550.0 9.0984e-07
2570.0 8.8427e-07
2590.0 8.6991e-07
2610.0 8.7489e-07
2630.0 9.0212e-07
2650.0 9.4798e-07
2670.0 1.0128e-06
2690.0 1.093e-06
2710.0 1.1724e-06
2730.0 1.2432e-06
2750.0 1.3074e-06
2770.0 1.3551e-06
2790.0 1.3842e-06
2810.0 1.4014e-06
2830.0 1.4112e-06
2850.0 1.4111e-06
2870.0 1.4072e-06
2890.0 1.4034e-06
2910.0 1.3992e-06
2930.0 1.3941e-06
2950.0 1.3915e-06
2970.0 1.3913e-06
2990.0 1.3918e-06
3010.0 3.1791e-06
3030.0 3.1921e-06
3050.0 3.2086e-06
3070.0 3.2225e-06
3090.0 3.2327e-06
3110.0 3.2265e-06
3130.0 3.1917e-06
3150.0 3.1237e-06
3170.0 3.0027e-06
3190.0 3.0087e-06
3210.0 3.5482e-06
3230.0 4.5653e-06
3250.0 6.6708e-06
3270.0 7.5307e-06
3290.0 9.5688e-06
3310.0 8.9556e-06
3330.0 9.465e-06
3350.0 1.0356e-05
3370.0 1.1504e-05
3390.0 1.284e-05
3410.0 1.4253e-05
3430.0 1.5879e-05
3450.0 1.7659e-05
3470.0 1.9552e-05
3490.0 2.1311e-05
3510.0 2.3087e-05
3530.0 2.5049e-05
3550.0 2.578e-05
3570.0 2.5489e-05
3590.0 2.6845e-05
3610.0 2.6537e-05
3630.0 3.0736e-05
3650.0 3.4048e-05
3670.0 3.6131e-05
3690.0 3.3808e-05
3710.0 2.8203e-05
3730.0 2.587e-05
3750.0 2.3121e-05
3770.0 2.0732e-05
3790.0 1.8414e-05
3810.0 1.7708e-05
3830.0 2.0011e-05
3850.0 9.0613e-06
3870.0 1.9448e-05
3890.0 2.4736e-05
3910.0 2.6883e-05
3930.0 3.095e-05
3950.0 3.3432e-05
3970.0 3.8439e-05
3990.0 4.7163e-05
4010.0 3.5382e-05
4030.0 2.9093e-05
4050.0 2.5861e-05
4070.0 2.6607e-05
4090.0 3.7477e-05
4110.0 3.5829e-05
4130.0 3.6939e-05
4150.0 3.5072e-05
4170.0 3.3512e-05
4190.0 3.1384e-05
4210.0 4.3821e-05
4230.0 4.6679e-05
4250.0 4.9105e-05
4270.0 4.6181e-05
4290.0 4.7992e-05
4310.0 5.4072e-05
4330.0 6.2415e-05
4350.0 6.191e-05
4370.0 5.9275e-05
4390.0 5.06e-05
4410.0 4.5821e-05
4430.0 3.7681e-05
4450.0 3.3149e-05
4470.0 3.6902e-05
4490.0 4.5287e-05
4510.0 4.7706e-05
4530.0 5.1791e-05
4550.0 5.624e-05
4570.0 7.4474e-05
4590.0 0.00010713
4610.0 0.00013134
4630.0 0.00013101
4650.0 0.00012743
4670.0 0.00013885
4690.0 0.00015393
4710.0 0.00012683
4730.0 9.501e-05
4750.0 7.6075e-05
4770.0 7.0343e-05
4790.0 6.9859e-05
4810.0 6.6524e-05
4830.0 7.2673e-05
4850.0 8.415e-05
4870.0 9.6008e-05
4890.0 9.4528e-05
4910.0 8.3135e-05
4930.0 8.7567e-05
4950.0 0.00011146
4970.0 0.0001409
4990.0 0.00014711
5010.0 0.00013274
5030.0 0.00010701
5050.0 7.9084e-05
5070.0 6.3395e-05
5090.0 5.7527e-05
5110.0 5.6502e-05
5130.0 5.8313e-05
5150.0 5.8017e-05
5170.0 5.8215e-05
5190.0 5.5911e-05
5210.0 5.5845e-05
5230.0 6.1275e-05
5250.0 6.7348e-05
5270.0 8.1451e-05
5290.0 9.5778e-05
5310.0 9.8057e-05
5330.0 0.00010272
5350.0 0.00011577
5370.0 0.00012657
5390.0 0.00011759
5410.0 0.00010369
5430.0 9.933e-05
5450.0 0.00011483
5470.0 0.00014698
5490.0 0.00017969
5510.0 0.00019594
5530.0 0.00019675
5550.0 0.00018818
5570.0 0.0001818
5590.0 0.0001781
5610.0 0.0001803
5630.0 0.0001819
5650.0 0.00018254
5670.0 0.00018492
5690.0 0.00017826
5710.0 0.00015397
5730.0 0.00013399
5750.0 0.00012093
5770.0 0.00012407
5790.0 0.00013314
5810.0 0.00014341
5830.0 0.00014937
5850.0 0.00014624
5870.0 0.00013665
5890.0 0.00012524
5910.0 0.0001279
5930.0 0.00013992
5950.0 0.00013826
5970.0 0.00012621
5990.0 0.00010956
6010.0 8.9842e-05
6030.0 7.7893e-05
6050.0 8.0292e-05
6070.0 8.9481e-05
6090.0 9.2028e-05
6110.0 8.1823e-05
6130.0 7.8781e-05
6150.0 8.8055e-05
6170.0 0.00010444
6190.0 0.0001209
6210.0 0.00012488
6230.0 0.00012042
6250.0 0.00011072
6270.0 9.5115e-05
6290.0 7.9372e-05
6310.0 6.8136e-05
6330.0 6.4491e-05
6350.0 6.7382e-05
6370.0 6.8799e-05
6390.0 7.2932e-05
6410.0 8.6303e-05
6430.0 0.00010961
6450.0 0.00013324
6470.0 0.00014365
6490.0 0.00014049
6510.0 0.00014143
6530.0 0.00014755
6550.0 0.00014709
6570.0 0.00015098
6590.0 0.00015208
6610.0 0.00015242
6630.0 0.00015403
6650.0 0.00015
6670.0 0.00013976
6690.0 0.0001237
6710.0 0.00011004
6730.0 0.00010997
6750.0 0.00011732
6770.0 0.00012333
6790.0 0.00012612
6810.0 0.00012649
6830.0 0.000124
6850.0 0.00012061
6870.0 0.00011347
6890.0 0.00010956
6910.0 0.00010368
6930.0 0.00010398
6950.0 0.00011209
6970.0 0.00011758
6990.0 0.00012195
7010.0 0.00012098
7030.0 0.00011292
7050.0 9.8871e-05
7070.0 8.2829e-05
7090.0 7.2275e-05
7110.0 7.0838e-05
7130.0 7.4261e-05
7150.0 7.1346e-05
7170.0 6.5891e-05
7190.0 6.7243e-05
7210.0 7.4624e-05
7230.0 8.6591e-05
7250.0 9.5936e-05
7270.0 9.8355e-05
7290.0 9.0685e-05
7310.0 8.1486e-05
7330.0 7.5731e-05
7350.0 7.5154e-05
7370.0 7.7208e-05
7390.0 8.016e-05
7410.0 8.6462e-05
7430.0 9.9946e-05
7450.0 0.00011555
7470.0 0.00012755
7490.0 0.00013073
7510.0 0.00012467
7530.0 0.00010293
7550.0 8.7388e-05
7570.0 7.4231e-05
7590.0 6.7169e-05
7610.0 6.9904e-05
7630.0 7.8836e-05
7650.0 8.8928e-05
7670.0 9.8125e-05
7690.0 0.00010403
7710.0 0.00011012
7730.0 0.00011656
7750.0 0.00012234
7770.0 0.00012233
7790.0 0.00012171
7810.0 0.00012395
7830.0 0.00012694
7850.0 0.00012393
7870.0 0.00011854
7890.0 0.0001133
7910.0 0.00010599
7930.0 0.00010295
7950.0 9.8924e-05
7970.0 9.6993e-05
7990.0 9.5374e-05
8010.0 9.8422e-05
8030.0 9.8634e-05
8050.0 9.9856e-05
8070.0 9.8389e-05
8090.0 9.7703e-05
8110.0 9.3202e-05
8130.0 9.2249e-05
8150.0 8.9912e-05
8170.0 8.7032e-05
8190.0 8.5289e-05
8210.0 8.5405e-05
8230.0 8.1538e-05
8250.0 7.7501e-05
8270.0 6.8046e-05
8290.0 5.4469e-05
8310.0 4.0675e-05
8330.0 3.0687e-05
8350.0 2.7692e-05
8370.0 3.2355e-05
8390.0 3.8811e-05
8410.0 4.2646e-05
8430.0 4.5229e-05
8450.0 4.7299e-05
8470.0 4.9647e-05
8490.0 5.5014e-05
8510.0 6.2042e-05
8530.0 7.1898e-05
8550.0 8.2907e-05
8570.0 9.2752e-05
8590.0 0.00010051
8610.0 0.00010598
8630.0 0.00010834
8650.0 0.00010807
8670.0 0.00010777
8690.0 0.00011148
8710.0 0.00011542
8730.0 0.00011878
8750.0 0.00011721
8770.0 0.00011775
8790.0 0.00011613
8810.0 0.00010809
8830.0 0.00010343
8850.0 9.6512e-05
8870.0 9.0965e-05
8890.0 8.7779e-05
8910.0 8.8627e-05
8930.0 8.3629e-05
8950.0 7.9312e-05
8970.0 7.744e-05
8990.0 7.5913e-05
9010.0 7.3346e-05
9030.0 7.1634e-05
9050.0 7.1146e-05
9070.0 7.0915e-05
9090.0 7.0702e-05
9110.0 7.0498e-05
9130.0 7.0283e-05
9150.0 7.0068e-05
9170.0 6.9793e-05
9190.0 6.9504e-05
9210.0 6.9722e-05
9230.0 6.9367e-05
9250.0 6.9077e-05
9270.0 6.8814e-05
9290.0 6.8568e-05
9310.0 6.8329e-05
9330.0 6.8095e-05
9350.0 6.7871e-05
9370.0 6.7647e-05
9390.0 6.7417e-05
9410.0 6.7192e-05
9430.0 6.6962e-05
9450.0 6.6682e-05
9470.0 6.6417e-05
9490.0 6.6237e-05
9510.0 6.603e-05
9530.0 6.5815e-05
9550.0 6.5596e-05
9570.0 6.5373e-05
9590.0 6.5147e-05
9610.0 6.4919e-05
9630.0 6.4691e-05
9650.0 6.4463e-05
9670.0 6.4233e-05
9690.0 6.4004e-05
9710.0 6.3775e-05
9730.0 6.3544e-05
9750.0 6.3314e-05
9770.0 6.3086e-05
9790.0 6.2855e-05
9810.0 6.2624e-05
9830.0 6.2394e-05
9850.0 6.2164e-05
9870.0 6.1931e-05
9890.0 6.1698e-05
9910.0 6.1466e-05
9930.0 6.1226e-05
9950.0 6.0514e-05
9970.0 6.0421e-05
9990.0 6.0301e-05
10010.0 6.0164e-05
10030.0 5.9988e-05
10050.0 5.9777e-05
10070.0 5.9555e-05
10090.0 5.9342e-05
10110.0 5.9099e-05
10130.0 5.8874e-05
10150.0 5.864e-05
10170.0 5.839e-05
10190.0 5.8125e-05
10210.0 5.788e-05
10230.0 5.764e-05
10250.0 5.7382e-05
10270.0 5.7125e-05
10290.0 5.6884e-05
10310.0 5.6625e-05
10330.0 5.635e-05
10350.0 5.6095e-05
10370.0 5.5839e-05
10390.0 5.5564e-05
10410.0 5.529e-05
10430.0 5.5034e-05
10450.0 5.4759e-05
10470.0 5.4473e-05
10490.0 5.42e-05
10510.0 5.3926e-05
10530.0 5.3622e-05
10550.0 5.3328e-05
10570.0 5.3048e-05
10590.0 5.275e-05
10610.0 5.2441e-05
10630.0 5.2148e-05
10650.0 5.185e-05
10670.0 5.1525e-05
10690.0 5.1209e-05
10710.0 5.0902e-05
10730.0 5.0575e-05
10750.0 5.0228e-05
10770.0 4.9911e-05
10790.0 4.9583e-05
10810.0 4.9233e-05
10830.0 4.8889e-05
10850.0 4.8558e-05
10870.0 4.8188e-05
10890.0 4.781e-05
10910.0 4.7441e-05
10930.0 4.705e-05
10950.0 4.6614e-05
10970.0 4.6161e-05
10990.0 4.5697e-05
11010.0 4.4222e-05
11030.0 4.3643e-05
11050.0 4.3084e-05
11070.0 4.252e-05
11090.0 4.1925e-05
11110.0 4.1383e-05
11130.0 4.0869e-05
11150.0 4.0349e-05
11170.0 3.9843e-05
11190.0 3.938e-05
11210.0 3.8912e-05
11230.0 3.8435e-05
11250.0 3.7983e-05
11270.0 3.7545e-05
11290.0 3.7087e-05
11310.0 3.6631e-05
11330.0 3.6211e-05
11350.0 3.5779e-05
11370.0 3.5336e-05
11390.0 3.4911e-05
11410.0 3.4491e-05
11430.0 3.4035e-05
11450.0 3.3579e-05
11470.0 3.3129e-05
11490.0 3.2652e-05
11510.0 3.2136e-05
11530.0 3.1628e-05
11550.0 3.1104e-05
11570.0 3.0534e-05
11590.0 2.995e-05
11610.0 2.937e-05
11630.0 2.8749e-05
11650.0 2.8096e-05
11670.0 2.7469e-05
11690.0 2.6838e-05
11710.0 2.6183e-05
11730.0 2.5542e-05
11750.0 2.494e-05
11770.0 2.4325e-05
11790.0 2.372e-05
11810.0 2.3158e-05
11830.0 2.262e-05
11850.0 2.2076e-05
11870.0 2.1575e-05
11890.0 2.1117e-05
11910.0 2.0667e-05
11930.0 2.0234e-05
11950.0 1.9841e-05
11970.0 1.9463e-05
11990.0 1.9086e-05
12010.0 1.8739e-05
12030.0 1.8416e-05
12050.0 1.8099e-05
12070.0 1.7792e-05
12090.0 1.7523e-05
12110.0 1.7268e-05
12130.0 1.7025e-05
12150.0 1.6811e-05
12170.0 1.6626e-05
12190.0 1.6454e-05
12210.0 1.6313e-05
12230.0 1.6208e-05
12250.0 1.6132e-05
12270.0 1.6088e-05
12290.0 1.608e-05
12310.0 1.6108e-05
12330.0 1.6173e-05
12350.0 1.6276e-05
12370.0 1.6412e-05
12390.0 1.6584e-05
12410.0 1.6802e-05
12430.0 1.7042e-05
12450.0 1.7308e-05
12470.0 1.7607e-05
12490.0 1.7926e-05
12510.0 1.8245e-05
12530.0 1.858e-05
12550.0 1.8925e-05
12570.0 1.9253e-05
12590.0 1.9563e-05
12610.0 1.9865e-05
12630.0 2.0137e-05
12650.0 2.0362e-05
12670.0 2.0556e-05
12690.0 2.0709e-05
12710.0 2.0813e-05
12730.0 2.0872e-05
12750.0 2.0886e-05
12770.0 2.0852e-05
12790.0 2.0779e-05
12810.0 2.0666e-05
12830.0 2.0514e-05
12850.0 2.0342e-05
12870.0 2.0149e-05
12890.0 1.9931e-05
12910.0 1.9703e-05
12930.0 1.9477e-05
12950.0 1.9238e-05
12970.0 1.8994e-05
12990.0 1.8764e-05
13010.0 1.8537e-05
13030.0 1.8306e-05
13050.0 1.8082e-05
13070.0 1.7869e-05
13090.0 1.765e-05
13110.0 1.743e-05
13130.0 1.7218e-05
13150.0 1.7007e-05
13170.0 1.6787e-05
13190.0 1.6577e-05
13210.0 1.6379e-05
13230.0 1.6182e-05
13250.0 1.5995e-05
13270.0 1.583e-05
13290.0 1.5682e-05
13310.0 1.5551e-05
13330.0 1.545e-05
13350.0 1.5377e-05
13370.0 1.5331e-05
13390.0 1.5313e-05
13410.0 1.5319e-05
13430.0 1.5344e-05
13450.0 1.5384e-05
13470.0 1.5429e-05
13490.0 1.5471e-05
13510.0 1.5505e-05
13530.0 1.5519e-05
13550.0 1.5509e-05
13570.0 1.5469e-05
13590.0 1.5394e-05
13610.0 1.5287e-05
13630.0 1.515e-05
13650.0 1.4978e-05
13670.0 1.4779e-05
13690.0 1.4566e-05
13710.0 1.4336e-05
13730.0 1.4085e-05
13750.0 1.3847e-05
13770.0 1.3615e-05
13790.0 1.3384e-05
13810.0 1.3168e-05
13830.0 1.2975e-05
13850.0 1.2795e-05
13870.0 1.263e-05
13890.0 1.2489e-05
13910.0 1.2367e-05
13930.0 1.2257e-05
13950.0 1.2164e-05
13970.0 1.2088e-05
13990.0 1.202e-05
14010.0 1.1961e-05
14030.0 1.191e-05
14050.0 1.1864e-05
14070.0 1.1819e-05
14090.0 1.1776e-05
14110.0 1.1733e-05
14130.0 1.1687e-05
14150.0 1.1636e-05
14170.0 1.1582e-05
14190.0 1.1524e-05
14210.0 1.1458e-05
14230.0 1.1389e-05
14250.0 1.1318e-05
14270.0 1.1242e-05
14290.0 1.1164e-05
14310.0 1.1091e-05
14330.0 1.102e-05
14350.0 1.0953e-05
14370.0 1.0892e-05
14390.0 1.084e-05
14410.0 1.0794e-05
14430.0 1.0755e-05
14450.0 1.0725e-05
14470.0 1.0702e-05
14490.0 1.0684e-05
14510.0 1.0671e-05
14530.0 1.0663e-05
14550.0 1.0658e-05
14570.0 1.0657e-05
14590.0 1.066e-05
14610.0 1.0666e-05
14630.0 1.0678e-05
14650.0 1.0697e-05
14670.0 1.0721e-05
14690.0 1.0755e-05
14710.0 1.0801e-05
14730.0 1.0853e-05
14750.0 1.0917e-05
14770.0 1.0995e-05
14790.0 1.1084e-05
14810.0 1.1184e-05
14830.0 1.1305e-05
14850.0 1.1441e-05
14870.0 1.1585e-05
14890.0 1.1746e-05
14910.0 1.1921e-05
14930.0 1.2095e-05
14950.0 1.2261e-05
14970.0 1.2423e-05
14990.0 1.2561e-05
15010.0 1.2667e-05
15030.0 1.2746e-05
15050.0 1.2798e-05
15070.0 1.282e-05
15090.0 1.2825e-05
15110.0 1.2817e-05
15130.0 1.2801e-05
15150.0 1.278e-05
15170.0 1.2756e-05
15190.0 1.2732e-05
15210.0 1.2707e-05
15230.0 1.2682e-05
15250.0 1.2656e-05
15270.0 1.2631e-05
15290.0 1.2606e-05
15310.0 1.258e-05
15330.0 1.2555e-05
15350.0 1.253e-05
15370.0 1.2504e-05
15390.0 1.2478e-05
15410.0 1.2453e-05
15430.0 1.2427e-05
15450.0 1.2402e-05
15470.0 1.2376e-05
15490.0 1.235e-05
15510.0 1.2325e-05
15530.0 1.2299e-05
15550.0 1.2273e-05
15570.0 1.2248e-05
15590.0 1.2222e-05
15610.0 1.2196e-05
15630.0 1.217e-05
15650.0 1.2144e-05
15670.0 1.2118e-05
15690.0 1.2092e-05
15710.0 1.2066e-05
15730.0 1.204e-05
15750.0 1.2014e-05
15770.0 1.1988e-05
15790.0 1.1962e-05
15810.0 1.1936e-05
15830.0 1.191e-05
15850.0 1.1884e-05
15870.0 1.1858e-05
15890.0 1.1832e-05
15910.0 1.1806e-05
15930.0 1.178e-05
15950.0 1.1753e-05
15970.0 1.1727e-05
15990.0 1.1701e-05
16010.0 1.1675e-05
16030.0 1.1648e-05
16050.0 1.1622e-05
16070.0 1.1596e-05
16090.0 1.157e-05
16110.0 1.1544e-05
16130.0 1.1518e-05
16150.0 1.1491e-05
16170.0 1.1465e-05
16190.0 1.1439e-05
16210.0 1.1412e-05
16230.0 1.1386e-05
16250.0 1.1359e-05
16270.0 1.1333e-05
16290.0 1.1307e-05
16310.0 1.128e-05
16330.0 1.1254e-05
16350.0 1.1228e-05
16370.0 1.1201e-05
16390.0 1.1175e-05
16410.0 1.1148e-05
16430.0 1.1122e-05
16450.0 1.1095e-05
16470.0 1.1069e-05
16490.0 1.1042e-05
16510.0 1.1016e-05
16530.0 1.0989e-05
16550.0 1.0963e-05
16570.0 1.0936e-05
16590.0 1.091e-05
16610.0 1.0883e-05
16630.0 1.0857e-05
16650.0 1.083e-05
16670.0 1.0804e-05
16690.0 1.0777e-05
16710.0 1.075e-05
16730.0 1.0724e-05
16750.0 1.0697e-05
16770.0 1.0671e-05
16790.0 1.0644e-05
16810.0 1.0617e-05
16830.0 1.0591e-05
16850.0 1.0564e-05
16870.0 1.0537e-05
16890.0 1.0511e-05
16910.0 1.0484e-05
16930.0 1.0457e-05
16950.0 1.043e-05
16970.0 1.0403e-05
16990.0 1.0377e-05
17010.0 1.035e-05
17030.0 1.0323e-05
17050.0 1.0296e-05
17070.0 1.0269e-05
17090.0 1.0243e-05
17110.0 1.0216e-05
17130.0 1.0189e-05
17150.0 1.0162e-05
17170.0 1.0135e-05
17190.0 1.0108e-05
17210.0 1.0081e-05
17230.0 1.0054e-05
17250.0 1.0027e-05
17270.0 1e-05
17290.0 9.9734e-06
17310.0 9.9465e-06
17330.0 9.9194e-06
17350.0 9.8922e-06
17370.0 9.8654e-06
17390.0 9.8384e-06
17410.0 9.8112e-06
17430.0 9.7842e-06
17450.0 9.7573e-06
17470.0 9.73e-06
17490.0 9.7028e-06
17510.0 9.6759e-06
17530.0 9.6488e-06
17550.0 9.6215e-06
17570.0 9.5945e-06
17590.0 9.5675e-06
17610.0 9.5402e-06
17630.0 9.513e-06
17650.0 9.486e-06
17670.0 9.4588e-06
17690.0 9.4313e-06
17710.0 9.4043e-06
17730.0 9.3772e-06
17750.0 9.3499e-06
17770.0 9.3227e-06
17790.0 9.2957e-06
17810.0 9.2684e-06
17830.0 9.2411e-06
17850.0 9.2139e-06
17870.0 9.1868e-06
17890.0 9.1594e-06
17910.0 9.1322e-06
17930.0 9.1052e-06
17950.0 9.0779e-06
17970.0 9.0507e-06
17990.0 9.0236e-06
18010.0 8.9965e-06
18030.0 8.9691e-06
18050.0 8.9419e-06
18070.0 8.9149e-06
18090.0 8.8877e-06
18110.0 8.8604e-06
18130.0 8.8334e-06
18150.0 8.8064e-06
18170.0 8.7792e-06
18190.0 8.7521e-06
18210.0 8.7252e-06
18230.0 8.698e-06
18250.0 8.6708e-06
18270.0 8.6439e-06
18290.0 8.617e-06
18310.0 8.5899e-06
18330.0 8.5629e-06
18350.0 8.5362e-06
18370.0 8.5092e-06
18390.0 8.4822e-06
18410.0 8.4555e-06
18430.0 8.4287e-06
18450.0 8.4017e-06
18470.0 8.375e-06
18490.0 8.3484e-06
18510.0 8.3216e-06
18530.0 8.2949e-06
18550.0 8.2684e-06
18570.0 8.2418e-06
18590.0 8.2151e-06
18610.0 8.1887e-06
18630.0 8.1623e-06
18650.0 8.1358e-06
18670.0 8.1093e-06
18690.0 8.0831e-06
18710.0 8.0569e-06
18730.0 8.0305e-06
18750.0 8.0044e-06
18770.0 7.9784e-06
18790.0 7.9521e-06
18810.0 7.926e-06
18830.0 7.9002e-06
18850.0 7.8742e-06
18870.0 7.8482e-06
18890.0 7.8225e-06
18910.0 7.7969e-06
18930.0 7.7711e-06
18950.0 7.7454e-06
18970.0 7.7199e-06
18990.0 7.6944e-06
19010.0 7.6687e-06
19030.0 7.6435e-06
19050.0 7.6182e-06
19070.0 7.5929e-06
19090.0 7.5677e-06
19110.0 7.5428e-06
19130.0 7.5177e-06
19150.0 7.4926e-06
19170.0 7.4678e-06
19190.0 7.443e-06
19210.0 7.4181e-06
19230.0 7.3934e-06
19250.0 7.369e-06
19270.0 7.3445e-06
19290.0 7.32e-06
19310.0 7.2957e-06
19330.0 7.2715e-06
19350.0 7.2471e-06
19370.0 7.223e-06
19390.0 7.1991e-06
19410.0 7.1751e-06
19430.0 7.1511e-06
19450.0 7.1275e-06
19470.0 7.1039e-06
19490.0 7.0802e-06
19510.0 7.0567e-06
19530.0 7.0334e-06
19550.0 7.0099e-06
19570.0 6.9865e-06
19590.0 6.9635e-06
19610.0 6.9405e-06
19630.0 6.9174e-06
19650.0 6.8946e-06
19670.0 6.8719e-06
19690.0 6.8491e-06
19710.0 6.8265e-06
19730.0 6.804e-06
19750.0 6.7816e-06
19770.0 6.7592e-06
19790.0 6.737e-06
19810.0 6.7149e-06
19830.0 6.6926e-06
19850.0 6.6702e-06
19870.0 6.6474e-06
19890.0 6.6233e-06
19910.0 6.5967e-06
19930.0 6.5666e-06
19950.0 6.5309e-06
19970.0 6.4863e-06
19990.0 6.4312e-06
20010.0 6.3669e-06
20030.0 6.2894e-06
20050.0 6.1994e-06
20070.0 6.1025e-06
20090.0 5.9997e-06
20110.0 5.8867e-06
20130.0 5.7746e-06
20150.0 5.6655e-06
20170.0 5.555e-06
20190.0 5.4452e-06
20210.0 5.3423e-06
20230.0 5.2425e-06
20250.0 5.1429e-06
20270.0 5.049e-06
20290.0 4.9611e-06
20310.0 4.8748e-06
20330.0 4.7903e-06
20350.0 4.7144e-06
20370.0 4.6414e-06
20390.0 4.5702e-06
20410.0 4.5041e-06
20430.0 4.4434e-06
20450.0 4.3838e-06
20470.0 4.3283e-06
20490.0 4.2785e-06
20510.0 4.2324e-06
20530.0 4.1894e-06
20550.0 4.1517e-06
20570.0 4.119e-06
20590.0 4.0896e-06
20610.0 4.0646e-06
20630.0 4.0443e-06
20650.0 4.0277e-06
20670.0 4.0148e-06
20690.0 4.0058e-06
20710.0 3.9999e-06
20730.0 3.9972e-06
20750.0 3.9972e-06
20770.0 3.9988e-06
20790.0 4.0025e-06
20810.0 4.0079e-06
20830.0 4.0139e-06
20850.0 4.02e-06
20870.0 4.0268e-06
20890.0 4.0332e-06
20910.0 4.0378e-06
20930.0 4.0414e-06
20950.0 4.0436e-06
20970.0 4.0433e-06
20990.0 4.0406e-06
21010.0 4.0356e-06
21030.0 4.0276e-06
21050.0 4.0168e-06
21070.0 4.0031e-06
21090.0 3.9861e-06
21110.0 3.9667e-06
21130.0 3.9449e-06
21150.0 3.92e-06
21170.0 3.893e-06
21190.0 3.8648e-06
21210.0 3.8341e-06
21230.0 3.8013e-06
21250.0 3.7684e-06
21270.0 3.7348e-06
21290.0 3.6996e-06
21310.0 3.6644e-06
21330.0 3.6305e-06
21350.0 3.5958e-06
21370.0 3.5614e-06
21390.0 3.5287e-06
21410.0 3.4973e-06
21430.0 3.4659e-06
21450.0 3.4372e-06
21470.0 3.411e-06
21490.0 3.3865e-06
21510.0 3.3643e-06
21530.0 3.3454e-06
21550.0 3.3292e-06
21570.0 3.3157e-06
21590.0 3.3056e-06
21610.0 3.2987e-06
21630.0 3.295e-06
21650.0 3.2948e-06
21670.0 3.2972e-06
21690.0 3.3025e-06
21710.0 3.311e-06
21730.0 3.3216e-06
21750.0 3.3337e-06
21770.0 3.3488e-06
21790.0 3.3653e-06
21810.0 3.3819e-06
21830.0 3.3994e-06
21850.0 3.418e-06
21870.0 3.4358e-06
21890.0 3.4523e-06
21910.0 3.4689e-06
21930.0 3.4843e-06
21950.0 3.4976e-06
21970.0 3.5096e-06
21990.0 3.5206e-06
22010.0 3.5288e-06
22030.0 3.5349e-06
22050.0 3.5394e-06
22070.0 3.5417e-06
22090.0 3.5418e-06
22110.0 3.5401e-06
22130.0 3.5365e-06
22150.0 3.5309e-06
22170.0 3.5236e-06
22190.0 3.5145e-06
22210.0 3.5035e-06
22230.0 3.4911e-06
22250.0 3.477e-06
22270.0 3.461e-06
22290.0 3.4438e-06
22310.0 3.4251e-06
22330.0 3.404e-06
22350.0 3.3814e-06
22370.0 3.3577e-06
22390.0 3.3318e-06
22410.0 3.3033e-06
22430.0 3.2741e-06
22450.0 3.2434e-06
22470.0 3.2099e-06
22490.0 3.175e-06
22510.0 3.1395e-06
22530.0 3.1013e-06
22550.0 3.061e-06
22570.0 3.0211e-06
22590.0 2.9803e-06
22610.0 2.9376e-06
22630.0 2.895e-06
