#lamb flux
1010.0 6.3123e-07
1030.0 6.7203e-07
1050.0 7.1916e-07
1070.0 7.7228e-07
1090.0 8.3266e-07
1110.0 8.9473e-07
1130.0 9.5738e-07
1150.0 1.0232e-06
1170.0 1.0912e-06
1190.0 1.1561e-06
1210.0 1.222e-06
1230.0 1.2904e-06
1250.0 1.3577e-06
1270.0 1.4234e-06
1290.0 1.4931e-06
1310.0 1.5631e-06
1330.0 1.6307e-06
1350.0 1.6994e-06
1370.0 1.7707e-06
1390.0 1.8407e-06
1410.0 1.9091e-06
1430.0 1.9809e-06
1450.0 2.0532e-06
1470.0 2.1236e-06
1490.0 2.1951e-06
1510.0 2.2709e-06
1530.0 2.3433e-06
1550.0 2.4151e-06
1570.0 2.4896e-06
1590.0 2.5643e-06
1610.0 2.6362e-06
1630.0 2.7102e-06
1650.0 2.786e-06
1670.0 2.8595e-06
1690.0 2.9319e-06
1710.0 3.0066e-06
1730.0 3.0814e-06
1750.0 3.1514e-06
1770.0 3.2228e-06
1790.0 3.2948e-06
1810.0 3.3637e-06
1830.0 3.4304e-06
1850.0 3.5001e-06
1870.0 3.5668e-06
1890.0 3.6298e-06
1910.0 3.6927e-06
1930.0 3.7557e-06
1950.0 3.814e-06
1970.0 3.8699e-06
1990.0 3.9267e-06
2010.0 3.9806e-06
2030.0 4.0304e-06
2050.0 4.0807e-06
2070.0 4.131e-06
2090.0 4.1759e-06
2110.0 4.2192e-06
2130.0 4.2631e-06
2150.0 4.3046e-06
2170.0 4.3423e-06
2190.0 4.3815e-06
2210.0 4.4203e-06
2230.0 4.4561e-06
2250.0 4.4913e-06
2270.0 4.529e-06
2290.0 4.5649e-06
2310.0 4.5986e-06
2330.0 4.6346e-06
2350.0 4.6718e-06
2370.0 4.7074e-06
2390.0 4.7446e-06
2410.0 4.7859e-06
2430.0 4.8268e-06
2450.0 4.8684e-06
2470.0 4.9144e-06
2490.0 4.9666e-06
2510.0 5.0261e-06
2530.0 5.1099e-06
2550.0 5.246e-06
2570.0 5.4654e-06
2590.0 5.8052e-06
2610.0 6.3586e-06
2630.0 7.1559e-06
2650.0 8.1625e-06
2670.0 9.395e-06
2690.0 1.0818e-05
2710.0 1.2251e-05
2730.0 1.3603e-05
2750.0 1.4898e-05
2770.0 1.6027e-05
2790.0 1.6975e-05
2810.0 1.7821e-05
2830.0 1.8631e-05
2850.0 1.937e-05
2870.0 2.0105e-05
2890.0 2.0884e-05
2910.0 2.1692e-05
2930.0 2.2504e-05
2950.0 2.3374e-05
2970.0 2.4296e-05
2990.0 2.5225e-05
3010.0 8.9257e-05
3030.0 9.2666e-05
3050.0 9.6057e-05
3070.0 9.9116e-05
3090.0 0.00010171
3110.0 0.00010312
3130.0 0.00010251
3150.0 9.8967e-05
3170.0 9.0666e-05
3190.0 7.7447e-05
3210.0 5.9559e-05
3230.0 3.9486e-05
3250.0 6.0534e-05
3270.0 3.7856e-05
3290.0 8.714e-05
3310.0 3.4351e-05
3330.0 3.4006e-05
3350.0 4.0727e-05
3370.0 4.8766e-05
3390.0 5.7557e-05
3410.0 6.6365e-05
3430.0 7.5647e-05
3450.0 8.5017e-05
3470.0 9.3661e-05
3490.0 9.9713e-05
3510.0 0.00011973
3530.0 0.00015505
3550.0 0.00015104
3570.0 0.00012455
3590.0 0.00016859
3610.0 0.00010911
3630.0 0.00017768
3650.0 0.00020696
3670.0 0.00026316
3690.0 0.00024434
3710.0 0.00016361
3730.0 0.00021116
3750.0 0.00021622
3770.0 0.00023206
3790.0 0.00022518
3810.0 0.00023182
3830.0 0.00036434
3850.0 0.00044723
3870.0 0.0005515
3890.0 0.00053597
3910.0 0.00047903
3930.0 0.0004852
3950.0 0.00052409
3970.0 0.00057787
3990.0 0.00037053
4010.0 0.00020057
4030.0 0.00035667
4050.0 0.00047178
4070.0 0.00050471
4090.0 0.00035303
4110.0 0.00022345
4130.0 0.00036751
4150.0 0.0003752
4170.0 0.00034925
4190.0 0.00031691
4210.0 0.00044855
4230.0 0.00033046
4250.0 0.00035803
4270.0 0.00035569
4290.0 0.000337
4310.0 0.000432
4330.0 0.00046681
4350.0 0.00038894
4370.0 0.00032834
4390.0 0.00040017
4410.0 0.00040984
4430.0 0.00030134
4450.0 0.00027342
4470.0 0.00033791
4490.0 0.00025853
4510.0 0.00036087
4530.0 0.00037505
4550.0 0.00044508
4570.0 0.00062747
4590.0 0.00062053
4610.0 0.000492
4630.0 0.0007852
4650.0 0.0010464
4670.0 0.00099789
4690.0 0.00070565
4710.0 0.00074829
4730.0 0.0008476
4750.0 0.00069826
4770.0 0.00053381
4790.0 0.00036027
4810.0 0.00049175
4830.0 0.00057915
4850.0 0.00050907
4870.0 0.000214
4890.0 0.00057767
4910.0 0.00075736
4930.0 0.00082314
4950.0 0.00084818
4970.0 0.00059579
4990.0 0.00069334
5010.0 0.00080531
5030.0 0.0008632
5050.0 0.00080584
5070.0 0.00056984
5090.0 0.00046233
5110.0 0.00044695
5130.0 0.00042466
5150.0 0.00044234
5170.0 0.00039471
5190.0 0.00047059
5210.0 0.00047802
5230.0 0.00052991
5250.0 0.00062972
5270.0 0.00052251
5290.0 0.00054382
5310.0 0.00079996
5330.0 0.00092034
5350.0 0.00077304
5370.0 0.0006956
5390.0 0.00080773
5410.0 0.00096467
5430.0 0.0010285
5450.0 0.0010828
5470.0 0.0010909
5490.0 0.0011244
5510.0 0.001347
5530.0 0.0014003
5550.0 0.0014798
5570.0 0.001555
5590.0 0.0015296
5610.0 0.0014333
5630.0 0.0014004
5650.0 0.0014496
5670.0 0.0014175
5690.0 0.0012146
5710.0 0.0012025
5730.0 0.0012054
5750.0 0.0012544
5770.0 0.0010814
5790.0 0.0010325
5810.0 0.0010587
5830.0 0.0011436
5850.0 0.0010656
5870.0 0.0010717
5890.0 0.0012509
5910.0 0.0011682
5930.0 0.00096555
5950.0 0.00087302
5970.0 0.00095232
5990.0 0.00086552
6010.0 0.00079156
6030.0 0.00077624
6050.0 0.00071095
6070.0 0.00055088
6090.0 0.0005239
6110.0 0.00067211
6130.0 0.00075423
6150.0 0.00077904
6170.0 0.00075764
6190.0 0.00072262
6210.0 0.00075345
6230.0 0.00091434
6250.0 0.00084486
6270.0 0.00075961
6290.0 0.00069049
6310.0 0.00062542
6330.0 0.00058017
6350.0 0.00051854
6370.0 0.00052556
6390.0 0.00061155
6410.0 0.00075934
6430.0 0.00089757
6450.0 0.00090103
6470.0 0.00091108
6490.0 0.0011127
6510.0 0.0012775
6530.0 0.0012139
6550.0 0.0011518
6570.0 0.0011684
6590.0 0.0011516
6610.0 0.0012189
6630.0 0.0011366
6650.0 0.00098754
6670.0 0.00091098
6690.0 0.0009031
6710.0 0.001069
6730.0 0.00095182
6750.0 0.00078288
6770.0 0.00070672
6790.0 0.00075082
6810.0 0.00086224
6830.0 0.00085821
6850.0 0.00076971
6870.0 0.00079721
6890.0 0.00079231
6910.0 0.00074461
6930.0 0.0008267
6950.0 0.00076902
6970.0 0.00071639
6990.0 0.00071414
7010.0 0.00071938
7030.0 0.00069876
7050.0 0.00066908
7070.0 0.00071763
7090.0 0.00066839
7110.0 0.00056672
7130.0 0.00048677
7150.0 0.00047802
7170.0 0.00060355
7190.0 0.00063987
7210.0 0.00060672
7230.0 0.00063808
7250.0 0.00061974
7270.0 0.00060453
7290.0 0.00065489
7310.0 0.00071788
7330.0 0.00069944
7350.0 0.00064892
7370.0 0.00060029
7390.0 0.00060209
7410.0 0.00069179
7430.0 0.00077892
7450.0 0.00082931
7470.0 0.00084119
7490.0 0.00093574
7510.0 0.00092454
7530.0 0.00083695
7550.0 0.00079213
7570.0 0.00068441
7590.0 0.00065146
7610.0 0.00062911
7630.0 0.00057939
7650.0 0.0006223
7670.0 0.00068926
7690.0 0.00075023
7710.0 0.00085586
7730.0 0.00089749
7750.0 0.00093229
7770.0 0.00096886
7790.0 0.0010507
7810.0 0.0010582
7830.0 0.00094951
7850.0 0.00095315
7870.0 0.00091758
7890.0 0.00093929
7910.0 0.00088446
7930.0 0.00087783
7950.0 0.00073696
7970.0 0.00073919
7990.0 0.00071419
8010.0 0.00077573
8030.0 0.00077222
8050.0 0.00082
8070.0 0.0007864
8090.0 0.00078932
8110.0 0.00077675
8130.0 0.00076752
8150.0 0.00072028
8170.0 0.00070621
8190.0 0.00070392
8210.0 0.00071031
8230.0 0.0006209
8250.0 0.0005673
8270.0 0.00050104
8290.0 0.00042572
8310.0 0.00037476
8330.0 0.00029665
8350.0 0.00024001
8370.0 0.00023157
8390.0 0.00022436
8410.0 0.00023464
8430.0 0.0003016
8450.0 0.00032824
8470.0 0.00035303
8490.0 0.00041284
8510.0 0.00044896
8530.0 0.00051017
8550.0 0.00060307
8570.0 0.00066197
8590.0 0.00069573
8610.0 0.00077218
8630.0 0.00087784
8650.0 0.0008999
8670.0 0.00091801
8690.0 0.00095194
8710.0 0.00093278
8730.0 0.00090269
8750.0 0.00083119
8770.0 0.00083084
8790.0 0.00081846
8810.0 0.00075213
8830.0 0.00075249
8850.0 0.00068865
8870.0 0.00065615
8890.0 0.00058741
8910.0 0.00065431
8930.0 0.00059141
8950.0 0.00059251
8970.0 0.00060459
8990.0 0.00058672
9010.0 0.00060236
9030.0 0.0005718
9050.0 0.00056903
9070.0 0.00056928
9090.0 0.00056941
9110.0 0.00056993
9130.0 0.0005699
9150.0 0.00056958
9170.0 0.0005677
9190.0 0.00056355
9210.0 0.00057246
9230.0 0.00056994
9250.0 0.00056849
9270.0 0.00056725
9290.0 0.00056616
9310.0 0.00056514
9330.0 0.00056415
9350.0 0.00056316
9370.0 0.00056214
9390.0 0.00056106
9410.0 0.00055995
9430.0 0.00055881
9450.0 0.00055761
9470.0 0.00055636
9490.0 0.0005551
9510.0 0.0005538
9530.0 0.00055245
9550.0 0.0005511
9570.0 0.00054974
9590.0 0.00054834
9610.0 0.00054692
9630.0 0.00054552
9650.0 0.0005441
9670.0 0.00054264
9690.0 0.00054121
9710.0 0.00053979
9730.0 0.00053834
9750.0 0.00053691
9770.0 0.00053553
9790.0 0.00053412
9810.0 0.00053271
9830.0 0.00053135
9850.0 0.00053001
9870.0 0.00052864
9890.0 0.00052732
9910.0 0.00052605
9930.0 0.00052476
9950.0 0.00052268
9970.0 0.00052173
9990.0 0.00052077
10010.0 0.00051975
10030.0 0.00051872
10050.0 0.00051751
10070.0 0.0005153
10090.0 0.00051469
10110.0 0.00051406
10130.0 0.00051335
10150.0 0.00051262
10170.0 0.00051183
10190.0 0.000511
10210.0 0.00051023
10230.0 0.00050949
10250.0 0.00050874
10270.0 0.00050804
10290.0 0.00050741
10310.0 0.00050678
10330.0 0.00050616
10350.0 0.00050562
10370.0 0.00050512
10390.0 0.00050463
10410.0 0.00050418
10430.0 0.00050381
10450.0 0.00050343
10470.0 0.00050309
10490.0 0.0005028
10510.0 0.00050255
10530.0 0.00050229
10550.0 0.00050209
10570.0 0.00050194
10590.0 0.00050181
10610.0 0.0005017
10630.0 0.00050164
10650.0 0.00050161
10670.0 0.00050159
10690.0 0.00050161
10710.0 0.00050167
10730.0 0.00050175
10750.0 0.00050183
10770.0 0.00050198
10790.0 0.00050215
10810.0 0.00050232
10830.0 0.0005025
10850.0 0.00050268
10870.0 0.00050276
10890.0 0.00050265
10910.0 0.00050222
10930.0 0.00050122
10950.0 0.00049921
10970.0 0.00049599
10990.0 0.00049144
11010.0 0.00049996
11030.0 0.00049123
11050.0 0.00048099
11070.0 0.00046912
11090.0 0.00045536
11110.0 0.00044164
11130.0 0.00042791
11150.0 0.00041385
11170.0 0.00040019
11190.0 0.00038775
11210.0 0.00037576
11230.0 0.00036434
11250.0 0.00035424
11270.0 0.00034522
11290.0 0.00033679
11310.0 0.00032927
11330.0 0.00032295
11350.0 0.0003171
11370.0 0.00031166
11390.0 0.00030677
11410.0 0.00030217
11430.0 0.00029738
11450.0 0.00029264
11470.0 0.00028792
11490.0 0.00028287
11510.0 0.00027738
11530.0 0.00027186
11550.0 0.00026614
11570.0 0.00025993
11590.0 0.00025357
11610.0 0.00024729
11630.0 0.00024067
11650.0 0.00023384
11670.0 0.00022735
11690.0 0.00022093
11710.0 0.00021441
11730.0 0.00020813
11750.0 0.0002023
11770.0 0.00019645
11790.0 0.00019075
11810.0 0.0001855
11830.0 0.00018048
11850.0 0.00017542
11870.0 0.00017075
11890.0 0.00016643
11910.0 0.00016214
11930.0 0.00015795
11950.0 0.00015407
11970.0 0.00015027
11990.0 0.00014639
12010.0 0.00014273
12030.0 0.00013924
12050.0 0.00013573
12070.0 0.00013227
12090.0 0.00012917
12110.0 0.00012619
12130.0 0.00012333
12150.0 0.0001208
12170.0 0.00011864
12190.0 0.00011669
12210.0 0.00011519
12230.0 0.0001142
12250.0 0.00011367
12270.0 0.00011367
12290.0 0.00011424
12310.0 0.00011533
12330.0 0.00011699
12350.0 0.00011918
12370.0 0.00012176
12390.0 0.00012474
12410.0 0.0001282
12430.0 0.00013171
12450.0 0.0001353
12470.0 0.00013901
12490.0 0.00014264
12510.0 0.00014598
12530.0 0.0001492
12550.0 0.0001522
12570.0 0.00015481
12590.0 0.00015706
12610.0 0.00015905
12630.0 0.00016066
12650.0 0.00016188
12670.0 0.00016282
12690.0 0.00016347
12710.0 0.00016384
12730.0 0.00016398
12750.0 0.00016386
12770.0 0.00016355
12790.0 0.00016307
12810.0 0.0001624
12830.0 0.00016151
12850.0 0.00016051
12870.0 0.00015936
12890.0 0.00015797
12910.0 0.00015641
12930.0 0.00015473
12950.0 0.00015277
12970.0 0.00015054
12990.0 0.00014825
13010.0 0.00014576
13030.0 0.00014301
13050.0 0.00014016
13070.0 0.00013733
13090.0 0.00013431
13110.0 0.00013123
13130.0 0.00012831
13150.0 0.00012547
13170.0 0.00012263
13190.0 0.00012011
13210.0 0.00011791
13230.0 0.00011592
13250.0 0.00011424
13270.0 0.00011296
13290.0 0.00011199
13310.0 0.00011131
13330.0 0.00011096
13350.0 0.00011087
13370.0 0.00011097
13390.0 0.00011121
13410.0 0.00011152
13430.0 0.00011183
13450.0 0.00011209
13470.0 0.00011223
13490.0 0.00011222
13510.0 0.00011202
13530.0 0.00011161
13550.0 0.00011104
13570.0 0.00011028
13590.0 0.00010934
13610.0 0.00010832
13630.0 0.00010726
13650.0 0.00010611
13670.0 0.00010498
13690.0 0.00010391
13710.0 0.00010288
13730.0 0.00010187
13750.0 0.00010101
13770.0 0.00010021
13790.0 9.9455e-05
13810.0 9.875e-05
13830.0 9.8103e-05
13850.0 9.7442e-05
13870.0 9.6758e-05
13890.0 9.6069e-05
13910.0 9.5349e-05
13930.0 9.4556e-05
13950.0 9.3721e-05
13970.0 9.289e-05
13990.0 9.2012e-05
14010.0 9.1112e-05
14030.0 9.0251e-05
14050.0 8.9424e-05
14070.0 8.8607e-05
14090.0 8.7879e-05
14110.0 8.7244e-05
14130.0 8.6682e-05
14150.0 8.6207e-05
14170.0 8.5842e-05
14190.0 8.5566e-05
14210.0 8.5379e-05
14230.0 8.5286e-05
14250.0 8.5275e-05
14270.0 8.5359e-05
14290.0 8.5541e-05
14310.0 8.5792e-05
14330.0 8.6125e-05
14350.0 8.6555e-05
14370.0 8.7046e-05
14390.0 8.7569e-05
14410.0 8.8171e-05
14430.0 8.8813e-05
14450.0 8.9445e-05
14470.0 9.0087e-05
14490.0 9.0769e-05
14510.0 9.1409e-05
14530.0 9.2018e-05
14550.0 9.2653e-05
14570.0 9.3302e-05
14590.0 9.3939e-05
14610.0 9.4636e-05
14630.0 9.544e-05
14650.0 9.6304e-05
14670.0 9.7257e-05
14690.0 9.8385e-05
14710.0 9.9692e-05
14730.0 0.00010106
14750.0 0.00010261
14770.0 0.00010437
14790.0 0.00010622
14810.0 0.00010813
14830.0 0.00011027
14850.0 0.00011244
14870.0 0.00011452
14890.0 0.0001166
14910.0 0.00011864
14930.0 0.00012043
14950.0 0.00012195
14970.0 0.00012325
14990.0 0.00012419
15010.0 0.00012475
15030.0 0.00012501
15050.0 0.00012499
15070.0 0.00012471
15090.0 0.00012428
15110.0 0.00012375
15130.0 0.00012315
15150.0 0.00012252
15170.0 0.00012187
15190.0 0.00012121
15210.0 0.00012056
15230.0 0.0001199
15250.0 0.00011924
15270.0 0.00011858
15290.0 0.00011793
15310.0 0.00011728
15330.0 0.00011662
15350.0 0.00011598
15370.0 0.00011534
15390.0 0.00011468
15410.0 0.00011404
15430.0 0.0001134
15450.0 0.00011276
15470.0 0.00011212
15490.0 0.00011149
15510.0 0.00011086
15530.0 0.00011023
15550.0 0.0001096
15570.0 0.00010899
15590.0 0.00010836
15610.0 0.00010774
15630.0 0.00010713
15650.0 0.00010652
15670.0 0.00010591
15690.0 0.0001053
15710.0 0.00010471
15730.0 0.0001041
15750.0 0.0001035
15770.0 0.00010292
15790.0 0.00010233
15810.0 0.00010173
15830.0 0.00010115
15850.0 0.00010058
15870.0 0.0001
15890.0 9.9424e-05
15910.0 9.8862e-05
15930.0 9.8297e-05
15950.0 9.7728e-05
15970.0 9.717e-05
15990.0 9.662e-05
16010.0 9.6064e-05
16030.0 9.551e-05
16050.0 9.4973e-05
16070.0 9.4434e-05
16090.0 9.3891e-05
16110.0 9.336e-05
16130.0 9.2836e-05
16150.0 9.2301e-05
16170.0 9.1774e-05
16190.0 9.126e-05
16210.0 9.0744e-05
16230.0 9.0225e-05
16250.0 8.9718e-05
16270.0 8.9219e-05
16290.0 8.8711e-05
16310.0 8.821e-05
16330.0 8.772e-05
16350.0 8.7228e-05
16370.0 8.6728e-05
16390.0 8.6248e-05
16410.0 8.577e-05
16430.0 8.5287e-05
16450.0 8.481e-05
16470.0 8.4346e-05
16490.0 8.3875e-05
16510.0 8.3404e-05
16530.0 8.2944e-05
16550.0 8.2488e-05
16570.0 8.2026e-05
16590.0 8.1569e-05
16610.0 8.1127e-05
16630.0 8.068e-05
16650.0 8.0232e-05
16670.0 7.9796e-05
16690.0 7.9363e-05
16710.0 7.8919e-05
16730.0 7.8486e-05
16750.0 7.8063e-05
16770.0 7.7635e-05
16790.0 7.7205e-05
16810.0 7.6791e-05
16830.0 7.6377e-05
16850.0 7.5957e-05
16870.0 7.5546e-05
16890.0 7.5143e-05
16910.0 7.4731e-05
16930.0 7.432e-05
16950.0 7.3924e-05
16970.0 7.3528e-05
16990.0 7.3126e-05
17010.0 7.2733e-05
17030.0 7.2349e-05
17050.0 7.1957e-05
17070.0 7.1567e-05
17090.0 7.1187e-05
17110.0 7.0807e-05
17130.0 7.0419e-05
17150.0 7.0044e-05
17170.0 6.9675e-05
17190.0 6.93e-05
17210.0 6.8927e-05
17230.0 6.8566e-05
17250.0 6.8201e-05
17270.0 6.783e-05
17290.0 6.747e-05
17310.0 6.7116e-05
17330.0 6.6754e-05
17350.0 6.6394e-05
17370.0 6.6049e-05
17390.0 6.5698e-05
17410.0 6.5345e-05
17430.0 6.5e-05
17450.0 6.4662e-05
17470.0 6.431e-05
17490.0 6.3966e-05
17510.0 6.3632e-05
17530.0 6.3294e-05
17550.0 6.2953e-05
17570.0 6.2622e-05
17590.0 6.2296e-05
17610.0 6.1961e-05
17630.0 6.1631e-05
17650.0 6.1309e-05
17670.0 6.0984e-05
17690.0 6.065e-05
17710.0 6.0333e-05
17730.0 6.0017e-05
17750.0 5.9694e-05
17770.0 5.9377e-05
17790.0 5.907e-05
17810.0 5.8753e-05
17830.0 5.8435e-05
17850.0 5.8128e-05
17870.0 5.7822e-05
17890.0 5.7508e-05
17910.0 5.72e-05
17930.0 5.6903e-05
17950.0 5.6599e-05
17970.0 5.6294e-05
17990.0 5.5999e-05
18010.0 5.5704e-05
18030.0 5.5398e-05
18050.0 5.5102e-05
18070.0 5.4813e-05
18090.0 5.4518e-05
18110.0 5.4221e-05
18130.0 5.3937e-05
18150.0 5.3651e-05
18170.0 5.3359e-05
18190.0 5.3073e-05
18210.0 5.2795e-05
18230.0 5.2506e-05
18250.0 5.2218e-05
18270.0 5.1943e-05
18290.0 5.1665e-05
18310.0 5.1382e-05
18330.0 5.1106e-05
18350.0 5.0837e-05
18370.0 5.0558e-05
18390.0 5.0282e-05
18410.0 5.0014e-05
18430.0 4.9745e-05
18450.0 4.9467e-05
18470.0 4.92e-05
18490.0 4.8938e-05
18510.0 4.867e-05
18530.0 4.8403e-05
18550.0 4.8146e-05
18570.0 4.7883e-05
18590.0 4.7615e-05
18610.0 4.7356e-05
18630.0 4.7101e-05
18650.0 4.6839e-05
18670.0 4.6578e-05
18690.0 4.633e-05
18710.0 4.6075e-05
18730.0 4.5818e-05
18750.0 4.5568e-05
18770.0 4.5322e-05
18790.0 4.5064e-05
18810.0 4.4812e-05
18830.0 4.4569e-05
18850.0 4.4322e-05
18870.0 4.4071e-05
18890.0 4.383e-05
18910.0 4.3591e-05
18930.0 4.3343e-05
18950.0 4.31e-05
18970.0 4.2865e-05
18990.0 4.2624e-05
19010.0 4.2376e-05
19030.0 4.2143e-05
19050.0 4.191e-05
19070.0 4.167e-05
19090.0 4.1435e-05
19110.0 4.1209e-05
19130.0 4.0972e-05
19150.0 4.0735e-05
19170.0 4.0508e-05
19190.0 4.028e-05
19210.0 4.0045e-05
19230.0 3.9815e-05
19250.0 3.9595e-05
19270.0 3.9367e-05
19290.0 3.9139e-05
19310.0 3.8919e-05
19330.0 3.8698e-05
19350.0 3.8467e-05
19370.0 3.8246e-05
19390.0 3.8029e-05
19410.0 3.7807e-05
19430.0 3.7583e-05
19450.0 3.7371e-05
19470.0 3.7155e-05
19490.0 3.6934e-05
19510.0 3.6719e-05
19530.0 3.6509e-05
19550.0 3.629e-05
19570.0 3.6072e-05
19590.0 3.5864e-05
19610.0 3.5654e-05
19630.0 3.5439e-05
19650.0 3.5231e-05
19670.0 3.5027e-05
19690.0 3.4814e-05
19710.0 3.4603e-05
19730.0 3.4401e-05
19750.0 3.4195e-05
19770.0 3.3982e-05
19790.0 3.3779e-05
19810.0 3.3579e-05
19830.0 3.3372e-05
19850.0 3.3165e-05
19870.0 3.2962e-05
19890.0 3.2745e-05
19910.0 3.2507e-05
19930.0 3.2255e-05
19950.0 3.197e-05
19970.0 3.1623e-05
19990.0 3.1213e-05
20010.0 3.0758e-05
20030.0 3.0221e-05
20050.0 2.9612e-05
20070.0 2.8977e-05
20090.0 2.8321e-05
20110.0 2.7613e-05
20130.0 2.6932e-05
20150.0 2.6293e-05
20170.0 2.5664e-05
20190.0 2.506e-05
20210.0 2.4521e-05
20230.0 2.4022e-05
20250.0 2.3547e-05
20270.0 2.3131e-05
20290.0 2.2774e-05
20310.0 2.2455e-05
20330.0 2.2181e-05
20350.0 2.1978e-05
20370.0 2.1823e-05
20390.0 2.1719e-05
20410.0 2.1672e-05
20430.0 2.1678e-05
20450.0 2.1741e-05
20470.0 2.1861e-05
20490.0 2.2031e-05
20510.0 2.2254e-05
20530.0 2.2537e-05
20550.0 2.2861e-05
20570.0 2.3214e-05
20590.0 2.3617e-05
20610.0 2.4052e-05
20630.0 2.4494e-05
20650.0 2.4954e-05
20670.0 2.5444e-05
20690.0 2.591e-05
20710.0 2.6357e-05
20730.0 2.68e-05
20750.0 2.7219e-05
20770.0 2.759e-05
20790.0 2.7938e-05
20810.0 2.826e-05
20830.0 2.8539e-05
20850.0 2.8783e-05
20870.0 2.9008e-05
20890.0 2.9206e-05
20910.0 2.9374e-05
20930.0 2.9529e-05
20950.0 2.9673e-05
20970.0 2.9799e-05
20990.0 2.9913e-05
21010.0 3.0021e-05
21030.0 3.0114e-05
21050.0 3.019e-05
21070.0 3.0249e-05
21090.0 3.029e-05
21110.0 3.0307e-05
21130.0 3.0302e-05
21150.0 3.0272e-05
21170.0 3.0218e-05
21190.0 3.0145e-05
21210.0 3.0048e-05
21230.0 2.9928e-05
21250.0 2.9799e-05
21270.0 2.9658e-05
21290.0 2.9504e-05
21310.0 2.9345e-05
21330.0 2.9193e-05
21350.0 2.9037e-05
21370.0 2.8884e-05
21390.0 2.8743e-05
21410.0 2.8613e-05
21430.0 2.8487e-05
21450.0 2.8381e-05
21470.0 2.8292e-05
21490.0 2.8216e-05
21510.0 2.8156e-05
21530.0 2.8117e-05
21550.0 2.8094e-05
21570.0 2.8088e-05
21590.0 2.8102e-05
21610.0 2.8133e-05
21630.0 2.8185e-05
21650.0 2.8258e-05
21670.0 2.8347e-05
21690.0 2.8457e-05
21710.0 2.859e-05
21730.0 2.8743e-05
21750.0 2.8911e-05
21770.0 2.9111e-05
21790.0 2.9333e-05
21810.0 2.9569e-05
21830.0 2.9828e-05
21850.0 3.0117e-05
21870.0 3.0419e-05
21890.0 3.0729e-05
21910.0 3.1069e-05
21930.0 3.1424e-05
21950.0 3.1778e-05
21970.0 3.2146e-05
21990.0 3.2538e-05
22010.0 3.2915e-05
22030.0 3.3285e-05
22050.0 3.3662e-05
22070.0 3.4029e-05
22090.0 3.4365e-05
22110.0 3.469e-05
22130.0 3.4999e-05
22150.0 3.5269e-05
22170.0 3.5504e-05
22190.0 3.571e-05
22210.0 3.587e-05
22230.0 3.5978e-05
22250.0 3.604e-05
22270.0 3.605e-05
22290.0 3.6006e-05
22310.0 3.5909e-05
22330.0 3.575e-05
22350.0 3.5534e-05
22370.0 3.5272e-05
22390.0 3.495e-05
22410.0 3.4564e-05
22430.0 3.4149e-05
22450.0 3.3694e-05
22470.0 3.3182e-05
22490.0 3.2641e-05
22510.0 3.2091e-05
22530.0 3.1493e-05
22550.0 3.0865e-05
22570.0 3.0252e-05
22590.0 2.9631e-05
22610.0 2.8987e-05
22630.0 2.8355e-05
22650.0 2.7757e-05
22670.0 2.7147e-05
