#lamb flux
1010.0 1.1247e-07
1030.0 1.2541e-07
1050.0 1.4029e-07
1070.0 1.5705e-07
1090.0 1.7607e-07
1110.0 1.9559e-07
1130.0 2.1523e-07
1150.0 2.3581e-07
1170.0 2.5703e-07
1190.0 2.7716e-07
1210.0 2.9756e-07
1230.0 3.1863e-07
1250.0 3.3928e-07
1270.0 3.5934e-07
1290.0 3.8053e-07
1310.0 4.017e-07
1330.0 4.2201e-07
1350.0 4.4254e-07
1370.0 4.6374e-07
1390.0 4.8441e-07
1410.0 5.0446e-07
1430.0 5.2542e-07
1450.0 5.4638e-07
1470.0 5.6663e-07
1490.0 5.8709e-07
1510.0 6.0871e-07
1530.0 6.2918e-07
1550.0 6.4936e-07
1570.0 6.7024e-07
1590.0 6.9113e-07
1610.0 7.1108e-07
1630.0 7.3162e-07
1650.0 7.527e-07
1670.0 7.7306e-07
1690.0 7.9313e-07
1710.0 8.1396e-07
1730.0 8.3486e-07
1750.0 8.5447e-07
1770.0 8.7461e-07
1790.0 8.9512e-07
1810.0 9.1488e-07
1830.0 9.3422e-07
1850.0 9.547e-07
1870.0 9.7452e-07
1890.0 9.9354e-07
1910.0 1.0128e-06
1930.0 1.0324e-06
1950.0 1.051e-06
1970.0 1.069e-06
1990.0 1.0876e-06
2010.0 1.1057e-06
2030.0 1.1227e-06
2050.0 1.1401e-06
2070.0 1.1576e-06
2090.0 1.1736e-06
2110.0 1.1891e-06
2130.0 1.2048e-06
2150.0 1.2196e-06
2170.0 1.2331e-06
2190.0 1.2468e-06
2210.0 1.2601e-06
2230.0 1.2719e-06
2250.0 1.283e-06
2270.0 1.2943e-06
2290.0 1.3043e-06
2310.0 1.3128e-06
2330.0 1.3211e-06
2350.0 1.329e-06
2370.0 1.3356e-06
2390.0 1.3423e-06
2410.0 1.3504e-06
2430.0 1.3592e-06
2450.0 1.3697e-06
2470.0 1.3843e-06
2490.0 1.4039e-06
2510.0 1.4267e-06
2530.0 1.457e-06
2550.0 1.5008e-06
2570.0 1.563e-06
2590.0 1.6525e-06
2610.0 1.7967e-06
2630.0 2.0055e-06
2650.0 2.2721e-06
2670.0 2.6047e-06
2690.0 2.9947e-06
2710.0 3.3856e-06
2730.0 3.7456e-06
2750.0 4.0752e-06
2770.0 4.3336e-06
2790.0 4.5105e-06
2810.0 4.6264e-06
2830.0 4.6945e-06
2850.0 4.714e-06
2870.0 4.7073e-06
2890.0 4.6868e-06
2910.0 4.6564e-06
2930.0 4.6192e-06
2950.0 4.5818e-06
2970.0 4.545e-06
2990.0 4.5074e-06
3010.0 0.00012702
3030.0 0.00012604
3050.0 0.00012507
3070.0 0.00012404
3090.0 0.00012296
3110.0 0.00012171
3130.0 0.00012015
3150.0 0.00011819
3170.0 0.00011563
3190.0 0.00011253
3210.0 0.0001091
3230.0 0.00010549
3250.0 0.00010202
3270.0 9.9477e-05
3290.0 9.7787e-05
3310.0 9.7592e-05
3330.0 9.8588e-05
3350.0 0.00010065
3370.0 0.0001038
3390.0 0.0001079
3410.0 0.00011246
3430.0 0.00011765
3450.0 0.00012369
3470.0 0.00013034
3490.0 0.00013746
3510.0 0.00014554
3530.0 0.00015431
3550.0 0.00016356
3570.0 0.00017368
3590.0 0.00018509
3610.0 0.00019763
3630.0 0.00021049
3650.0 0.00022414
3670.0 0.0002367
3690.0 0.00024625
3710.0 0.0002514
3730.0 0.00024971
3750.0 0.00024096
3770.0 0.00023641
3790.0 0.00022275
3810.0 0.00018097
3830.0 0.0001644
3850.0 0.00019152
3870.0 0.00015665
3890.0 0.00014861
3910.0 0.00019725
3930.0 0.00025392
3950.0 0.00027463
3970.0 0.00031248
3990.0 0.00028275
4010.0 0.00041119
4030.0 0.00038463
4050.0 0.00034769
4070.0 0.00037106
4090.0 0.00035609
4110.0 0.00038047
4130.0 0.00044921
4150.0 0.00053535
4170.0 0.00046213
4190.0 0.00042778
4210.0 0.00045713
4230.0 0.00055206
4250.0 0.00063087
4270.0 0.00067094
4290.0 0.00063266
4310.0 0.00060192
4330.0 0.00062623
4350.0 0.00077755
4370.0 0.00092006
4390.0 0.00077976
4410.0 0.0005206
4430.0 0.00040279
4450.0 0.00035668
4470.0 0.00029994
4490.0 0.00040098
4510.0 0.00062134
4530.0 0.00073084
4550.0 0.00075782
4570.0 0.00076629
4590.0 0.00087263
4610.0 0.0014269
4630.0 0.0018951
4650.0 0.0018303
4670.0 0.0016591
4690.0 0.0017569
4710.0 0.0018636
4730.0 0.001523
4750.0 0.0010049
4770.0 0.00075589
4790.0 0.00079952
4810.0 0.00079253
4830.0 0.00076899
4850.0 0.00085532
4870.0 0.0011275
4890.0 0.0013136
4910.0 0.0010431
4930.0 0.00096367
4950.0 0.0010958
4970.0 0.0014805
4990.0 0.0019761
5010.0 0.0022114
5030.0 0.0017725
5050.0 0.0010795
5070.0 0.00075799
5090.0 0.00062385
5110.0 0.00061496
5130.0 0.00069702
5150.0 0.0006936
5170.0 0.00067125
5190.0 0.0006284
5210.0 0.00064519
5230.0 0.00074178
5250.0 0.00083742
5270.0 0.00084373
5290.0 0.00094502
5310.0 0.0011707
5330.0 0.0012164
5350.0 0.0012034
5370.0 0.0013435
5390.0 0.0015941
5410.0 0.0014244
5430.0 0.0011256
5450.0 0.0010882
5470.0 0.0012553
5490.0 0.0016039
5510.0 0.0020132
5530.0 0.0023002
5550.0 0.002123
5570.0 0.0018984
5590.0 0.0016065
5610.0 0.0015736
5630.0 0.0016557
5650.0 0.0016011
5670.0 0.0015111
5690.0 0.0012864
5710.0 0.0012789
5730.0 0.0012202
5750.0 0.00071902
5770.0 0.00056938
5790.0 0.00067869
5810.0 0.00077812
5830.0 0.0010489
5850.0 0.001276
5870.0 0.0013369
5890.0 0.0012716
5910.0 0.0012225
5930.0 0.0012032
5950.0 0.0012526
5970.0 0.0014732
5990.0 0.0012768
6010.0 0.0010128
6030.0 0.00082854
6050.0 0.00072713
6070.0 0.0008101
6090.0 0.00092353
6110.0 0.00097255
6130.0 0.00090225
6150.0 0.00075575
6170.0 0.00070792
6190.0 0.00087351
6210.0 0.0012201
6230.0 0.0016133
6250.0 0.0016735
6270.0 0.0013608
6290.0 0.0011456
6310.0 0.0008885
6330.0 0.00067157
6350.0 0.00063156
6370.0 0.00066904
6390.0 0.00080644
6410.0 0.00099189
6430.0 0.0011786
6450.0 0.0014243
6470.0 0.0015968
6490.0 0.0019503
6510.0 0.002186
6530.0 0.0021249
6550.0 0.0019506
6570.0 0.0017179
6590.0 0.0016632
6610.0 0.0014155
6630.0 0.0013831
6650.0 0.0013008
6670.0 0.0012351
6690.0 0.001086
6710.0 0.0010105
6730.0 0.00068648
6750.0 0.00071101
6770.0 0.00086616
6790.0 0.0010773
6810.0 0.00090227
6830.0 0.00092596
6850.0 0.00084174
6870.0 0.00080194
6890.0 0.00073409
6910.0 0.00078301
6930.0 0.0007314
6950.0 0.00081593
6970.0 0.00082601
6990.0 0.00091948
7010.0 0.00094434
7030.0 0.00096273
7050.0 0.00086354
7070.0 0.0007859
7090.0 0.00078026
7110.0 0.00077162
7130.0 0.00083917
7150.0 0.0009313
7170.0 0.0010203
7190.0 0.0010516
7210.0 0.00096408
7230.0 0.00098013
7250.0 0.0010884
7270.0 0.0012297
7290.0 0.001426
7310.0 0.0014391
7330.0 0.0012973
7350.0 0.0011561
7370.0 0.00095009
7390.0 0.00098102
7410.0 0.0011369
7430.0 0.0012687
7450.0 0.0013676
7470.0 0.0013634
7490.0 0.001329
7510.0 0.0017499
7530.0 0.0015871
7550.0 0.0014003
7570.0 0.0010032
7590.0 0.000575
7610.0 0.00046713
7630.0 0.00057572
7650.0 0.00071061
7670.0 0.00096963
7690.0 0.0010976
7710.0 0.0010688
7730.0 0.0010691
7750.0 0.0012532
7770.0 0.0012646
7790.0 0.0011861
7810.0 0.0010677
7830.0 0.0010948
7850.0 0.0010964
7870.0 0.0010385
7890.0 0.00086447
7910.0 0.00064695
7930.0 0.00060953
7950.0 0.00054832
7970.0 0.00049682
7990.0 0.00047957
8010.0 0.00047888
8030.0 0.00046697
8050.0 0.00048258
8070.0 0.00049405
8090.0 0.00053745
8110.0 0.00050424
8130.0 0.00038779
8150.0 0.00037138
8170.0 0.00029973
8190.0 0.00027005
8210.0 0.00035042
8230.0 0.00038992
8250.0 0.00029439
8270.0 0.00025707
8290.0 0.00025543
8310.0 0.00018854
8330.0 0.00011944
8350.0 9.0966e-05
8370.0 6.7674e-05
8390.0 0.00010608
8410.0 0.00013133
8430.0 0.00016246
8450.0 0.00018106
8470.0 0.00023264
8490.0 0.00021168
8510.0 0.00019464
8530.0 0.00016885
8550.0 0.00027229
8570.0 0.00037069
8590.0 0.0003515
8610.0 0.00045757
8630.0 0.00051752
8650.0 0.00044726
8670.0 0.00050054
8690.0 0.00058174
8710.0 0.00052879
8730.0 0.00053089
8750.0 0.00046099
8770.0 0.00043143
8790.0 0.00044755
8810.0 0.00044823
8830.0 0.00032481
8850.0 0.00023016
8870.0 0.00018517
8890.0 0.00022942
8910.0 0.0002879
8930.0 0.00033744
8950.0 0.00038338
8970.0 0.00038111
8990.0 0.0003361
9010.0 0.00027492
9030.0 0.00025319
9050.0 0.00025863
9070.0 0.00026346
9090.0 0.00026721
9110.0 0.00027128
9130.0 0.00027438
9150.0 0.0002768
9170.0 0.00027937
9190.0 0.00028213
9210.0 0.00028501
9230.0 0.00028806
9250.0 0.00029122
9270.0 0.00029448
9290.0 0.00029785
9310.0 0.00030128
9330.0 0.0003048
9350.0 0.00030843
9370.0 0.00031213
9390.0 0.0003159
9410.0 0.00031977
9430.0 0.00032375
9450.0 0.00032777
9470.0 0.00033188
9490.0 0.0003361
9510.0 0.00034038
9530.0 0.00034473
9550.0 0.00034919
9570.0 0.00035373
9590.0 0.00035834
9610.0 0.00036302
9630.0 0.00036779
9650.0 0.00037264
9670.0 0.00037754
9690.0 0.00038253
9710.0 0.0003876
9730.0 0.00039272
9750.0 0.00039791
9770.0 0.00040319
9790.0 0.00040852
9810.0 0.0004139
9830.0 0.00041936
9850.0 0.00042488
9870.0 0.00043043
9890.0 0.00043604
9910.0 0.00044172
9930.0 0.00044743
9950.0 0.00045318
9970.0 0.00045899
9990.0 0.00046484
10010.0 0.00043589
10030.0 0.00044124
10050.0 0.0004466
10070.0 0.00045194
10090.0 0.00045736
10110.0 0.0004628
10130.0 0.00046825
10150.0 0.0004737
10170.0 0.00047914
10190.0 0.0004846
10210.0 0.00049004
10230.0 0.00049547
10250.0 0.00050089
10270.0 0.0005063
10290.0 0.00051168
10310.0 0.00051704
10330.0 0.00052238
10350.0 0.00052768
10370.0 0.00053294
10390.0 0.00053817
10410.0 0.00054335
10430.0 0.00054847
10450.0 0.00055355
10470.0 0.00055857
10490.0 0.00056353
10510.0 0.00056842
10530.0 0.00057325
10550.0 0.000578
10570.0 0.00058267
10590.0 0.00058726
10610.0 0.00059177
10630.0 0.00059619
10650.0 0.00060051
10670.0 0.00060475
10690.0 0.00060888
10710.0 0.00061291
10730.0 0.00061684
10750.0 0.00062066
10770.0 0.00062436
10790.0 0.00062795
10810.0 0.00063141
10830.0 0.00063473
10850.0 0.00063787
10870.0 0.00064075
10890.0 0.00064323
10910.0 0.00064512
10930.0 0.00064609
10950.0 0.0006456
10970.0 0.00064331
10990.0 0.00063905
11010.0 0.00063945
11030.0 0.00062972
11050.0 0.00061782
11070.0 0.00060351
11090.0 0.0005862
11110.0 0.00056823
11130.0 0.00054944
11150.0 0.00052917
11170.0 0.00050831
11190.0 0.00048818
11210.0 0.00046753
11230.0 0.00044654
11250.0 0.00042671
11270.0 0.00040789
11290.0 0.00038926
11310.0 0.00037183
11330.0 0.00035664
11350.0 0.0003424
11370.0 0.00032931
11390.0 0.00031798
11410.0 0.000308
11430.0 0.0002986
11450.0 0.00029029
11470.0 0.00028287
11490.0 0.00027569
11510.0 0.00026851
11530.0 0.00026158
11550.0 0.00025453
11570.0 0.00024691
11590.0 0.00023898
11610.0 0.00023092
11630.0 0.00022222
11650.0 0.00021303
11670.0 0.00020406
11690.0 0.00019508
11710.0 0.00018592
11730.0 0.00017714
11750.0 0.00016906
11770.0 0.00016119
11790.0 0.00015385
11810.0 0.00014738
11830.0 0.00014157
11850.0 0.00013618
11870.0 0.00013159
11890.0 0.00012768
11910.0 0.00012413
11930.0 0.00012094
11950.0 0.00011813
11970.0 0.00011549
11990.0 0.00011287
12010.0 0.00011032
12030.0 0.00010779
12050.0 0.00010514
12070.0 0.00010235
12090.0 9.9642e-05
12110.0 9.687e-05
12130.0 9.4055e-05
12150.0 9.1378e-05
12170.0 8.8915e-05
12190.0 8.658e-05
12210.0 8.4596e-05
12230.0 8.3053e-05
12250.0 8.1937e-05
12270.0 8.1324e-05
12290.0 8.1253e-05
12310.0 8.1679e-05
12330.0 8.268e-05
12350.0 8.4204e-05
12370.0 8.6107e-05
12390.0 8.8438e-05
12410.0 9.1291e-05
12430.0 9.4219e-05
12450.0 9.7267e-05
12470.0 0.00010052
12490.0 0.00010376
12510.0 0.00010673
12530.0 0.00010964
12550.0 0.00011239
12570.0 0.0001147
12590.0 0.00011663
12610.0 0.00011825
12630.0 0.00011941
12650.0 0.00012001
12670.0 0.00012021
12690.0 0.00011995
12710.0 0.00011924
12730.0 0.00011815
12750.0 0.00011663
12770.0 0.00011477
12790.0 0.00011266
12810.0 0.00011025
12830.0 0.00010757
12850.0 0.00010481
12870.0 0.00010193
12890.0 9.8851e-05
12910.0 9.5731e-05
12930.0 9.2642e-05
12950.0 8.942e-05
12970.0 8.6123e-05
12990.0 8.2955e-05
13010.0 7.9791e-05
13030.0 7.6561e-05
13050.0 7.3409e-05
13070.0 7.0407e-05
13090.0 6.7364e-05
13110.0 6.4385e-05
13130.0 6.1598e-05
13150.0 5.8932e-05
13170.0 5.6307e-05
13190.0 5.3944e-05
13210.0 5.1842e-05
13230.0 4.9908e-05
13250.0 4.8222e-05
13270.0 4.6858e-05
13290.0 4.5759e-05
13310.0 4.4941e-05
13330.0 4.4457e-05
13350.0 4.4276e-05
13370.0 4.4401e-05
13390.0 4.4843e-05
13410.0 4.5508e-05
13430.0 4.6419e-05
13450.0 4.7577e-05
13470.0 4.8872e-05
13490.0 5.0245e-05
13510.0 5.1807e-05
13530.0 5.3388e-05
13550.0 5.4894e-05
13570.0 5.6379e-05
13590.0 5.7827e-05
13610.0 5.9106e-05
13630.0 6.0212e-05
13650.0 6.1217e-05
13670.0 6.2036e-05
13690.0 6.2645e-05
13710.0 6.309e-05
13730.0 6.3375e-05
13750.0 6.3455e-05
13770.0 6.3379e-05
13790.0 6.3154e-05
13810.0 6.2786e-05
13830.0 6.2305e-05
13850.0 6.1702e-05
13870.0 6.0981e-05
13890.0 6.0186e-05
13910.0 5.9318e-05
13930.0 5.8347e-05
13950.0 5.7314e-05
13970.0 5.6279e-05
13990.0 5.5179e-05
14010.0 5.4035e-05
14030.0 5.2913e-05
14050.0 5.1802e-05
14070.0 5.0651e-05
14090.0 4.9564e-05
14110.0 4.8555e-05
14130.0 4.7591e-05
14150.0 4.6695e-05
14170.0 4.5937e-05
14190.0 4.5288e-05
14210.0 4.4746e-05
14230.0 4.4349e-05
14250.0 4.4098e-05
14270.0 4.3985e-05
14290.0 4.4029e-05
14310.0 4.4211e-05
14330.0 4.4527e-05
14350.0 4.4989e-05
14370.0 4.5563e-05
14390.0 4.6217e-05
14410.0 4.6993e-05
14430.0 4.7855e-05
14450.0 4.875e-05
14470.0 4.9697e-05
14490.0 5.0732e-05
14510.0 5.1758e-05
14530.0 5.2775e-05
14550.0 5.3843e-05
14570.0 5.4935e-05
14590.0 5.6e-05
14610.0 5.7109e-05
14630.0 5.8297e-05
14650.0 5.9494e-05
14670.0 6.0727e-05
14690.0 6.2077e-05
14710.0 6.3539e-05
14730.0 6.5013e-05
14750.0 6.6624e-05
14770.0 6.8395e-05
14790.0 7.0236e-05
14810.0 7.2139e-05
14830.0 7.4268e-05
14850.0 7.6455e-05
14870.0 7.8619e-05
14890.0 8.084e-05
14910.0 8.3088e-05
14930.0 8.5166e-05
14950.0 8.7047e-05
14970.0 8.8775e-05
14990.0 9.0195e-05
15010.0 9.1268e-05
15030.0 9.2058e-05
15050.0 9.2581e-05
15070.0 9.2853e-05
15090.0 9.2971e-05
15110.0 9.2981e-05
15130.0 9.2924e-05
15150.0 9.2841e-05
15170.0 9.2734e-05
15190.0 9.2616e-05
15210.0 9.2504e-05
15230.0 9.2395e-05
15250.0 9.2277e-05
15270.0 9.2163e-05
15290.0 9.2062e-05
15310.0 9.1955e-05
15330.0 9.1845e-05
15350.0 9.1745e-05
15370.0 9.1648e-05
15390.0 9.1538e-05
15410.0 9.1436e-05
15430.0 9.1341e-05
15450.0 9.1241e-05
15470.0 9.1137e-05
15490.0 9.1044e-05
15510.0 9.0952e-05
15530.0 9.0851e-05
15550.0 9.0755e-05
15570.0 9.0665e-05
15590.0 9.0566e-05
15610.0 9.0463e-05
15630.0 9.0373e-05
15650.0 9.028e-05
15670.0 9.0179e-05
15690.0 9.0083e-05
15710.0 8.9995e-05
15730.0 8.9895e-05
15750.0 8.9793e-05
15770.0 8.97e-05
15790.0 8.9604e-05
15810.0 8.9495e-05
15830.0 8.9396e-05
15850.0 8.9301e-05
15870.0 8.9197e-05
15890.0 8.9091e-05
15910.0 8.8993e-05
15930.0 8.8889e-05
15950.0 8.8775e-05
15970.0 8.8668e-05
15990.0 8.8564e-05
16010.0 8.8449e-05
16030.0 8.8331e-05
16050.0 8.8225e-05
16070.0 8.8111e-05
16090.0 8.7989e-05
16110.0 8.7872e-05
16130.0 8.7759e-05
16150.0 8.7628e-05
16170.0 8.7499e-05
16190.0 8.7379e-05
16210.0 8.7251e-05
16230.0 8.7114e-05
16250.0 8.6984e-05
16270.0 8.6856e-05
16290.0 8.6714e-05
16310.0 8.6573e-05
16330.0 8.6438e-05
16350.0 8.6294e-05
16370.0 8.6137e-05
16390.0 8.5993e-05
16410.0 8.5847e-05
16430.0 8.569e-05
16450.0 8.5533e-05
16470.0 8.5383e-05
16490.0 8.522e-05
16510.0 8.5051e-05
16530.0 8.4888e-05
16550.0 8.4724e-05
16570.0 8.4546e-05
16590.0 8.4369e-05
16610.0 8.4201e-05
16630.0 8.4021e-05
16650.0 8.3835e-05
16670.0 8.3656e-05
16690.0 8.3474e-05
16710.0 8.3275e-05
16730.0 8.3082e-05
16750.0 8.2892e-05
16770.0 8.2693e-05
16790.0 8.2486e-05
16810.0 8.2289e-05
16830.0 8.2087e-05
16850.0 8.1873e-05
16870.0 8.1662e-05
16890.0 8.1454e-05
16910.0 8.1233e-05
16930.0 8.1006e-05
16950.0 8.0789e-05
16970.0 8.0567e-05
16990.0 8.0333e-05
17010.0 8.0104e-05
17030.0 7.9879e-05
17050.0 7.9639e-05
17070.0 7.9397e-05
17090.0 7.9161e-05
17110.0 7.892e-05
17130.0 7.8664e-05
17150.0 7.8416e-05
17170.0 7.8172e-05
17190.0 7.7915e-05
17210.0 7.7656e-05
17230.0 7.7405e-05
17250.0 7.7144e-05
17270.0 7.6873e-05
17290.0 7.6608e-05
17310.0 7.6345e-05
17330.0 7.607e-05
17350.0 7.5791e-05
17370.0 7.5524e-05
17390.0 7.5247e-05
17410.0 7.4962e-05
17430.0 7.4683e-05
17450.0 7.4406e-05
17470.0 7.411e-05
17490.0 7.3819e-05
17510.0 7.3534e-05
17530.0 7.3242e-05
17550.0 7.2941e-05
17570.0 7.2648e-05
17590.0 7.2356e-05
17610.0 7.205e-05
17630.0 7.1746e-05
17650.0 7.1448e-05
17670.0 7.1142e-05
17690.0 7.0823e-05
17710.0 7.0519e-05
17730.0 7.0213e-05
17750.0 6.9896e-05
17770.0 6.9581e-05
17790.0 6.9274e-05
17810.0 6.8953e-05
17830.0 6.8629e-05
17850.0 6.8313e-05
17870.0 6.7994e-05
17890.0 6.7665e-05
17910.0 6.7338e-05
17930.0 6.7021e-05
17950.0 6.6693e-05
17970.0 6.6361e-05
17990.0 6.6038e-05
18010.0 6.5712e-05
18030.0 6.5371e-05
18050.0 6.5039e-05
18070.0 6.4711e-05
18090.0 6.4375e-05
18110.0 6.4034e-05
18130.0 6.3705e-05
18150.0 6.3372e-05
18170.0 6.3029e-05
18190.0 6.2692e-05
18210.0 6.2359e-05
18230.0 6.2015e-05
18250.0 6.1668e-05
18270.0 6.1333e-05
18290.0 6.0994e-05
18310.0 6.0647e-05
18330.0 6.0307e-05
18350.0 5.9972e-05
18370.0 5.9624e-05
18390.0 5.9278e-05
18410.0 5.8939e-05
18430.0 5.8597e-05
18450.0 5.8243e-05
18470.0 5.7901e-05
18490.0 5.7563e-05
18510.0 5.7216e-05
18530.0 5.6869e-05
18550.0 5.6531e-05
18570.0 5.6187e-05
18590.0 5.5834e-05
18610.0 5.5492e-05
18630.0 5.5152e-05
18650.0 5.4803e-05
18670.0 5.4454e-05
18690.0 5.4118e-05
18710.0 5.3775e-05
18730.0 5.3427e-05
18750.0 5.3086e-05
18770.0 5.275e-05
18790.0 5.2398e-05
18810.0 5.2053e-05
18830.0 5.1717e-05
18850.0 5.1375e-05
18870.0 5.1029e-05
18890.0 5.0692e-05
18910.0 5.0357e-05
18930.0 5.0013e-05
18950.0 4.9673e-05
18970.0 4.934e-05
18990.0 4.9001e-05
19010.0 4.8653e-05
19030.0 4.8323e-05
19050.0 4.7991e-05
19070.0 4.7651e-05
19090.0 4.7316e-05
19110.0 4.6991e-05
19130.0 4.6654e-05
19150.0 4.6317e-05
19170.0 4.5989e-05
19190.0 4.5661e-05
19210.0 4.5325e-05
19230.0 4.4994e-05
19250.0 4.4674e-05
19270.0 4.4345e-05
19290.0 4.4016e-05
19310.0 4.3695e-05
19330.0 4.3374e-05
19350.0 4.3042e-05
19370.0 4.272e-05
19390.0 4.2403e-05
19410.0 4.208e-05
19430.0 4.1756e-05
19450.0 4.1444e-05
19470.0 4.1129e-05
19490.0 4.0808e-05
19510.0 4.0494e-05
19530.0 4.0185e-05
19550.0 3.9867e-05
19570.0 3.9549e-05
19590.0 3.9244e-05
19610.0 3.8935e-05
19630.0 3.8622e-05
19650.0 3.8317e-05
19670.0 3.8017e-05
19690.0 3.7706e-05
19710.0 3.74e-05
19730.0 3.7101e-05
19750.0 3.68e-05
19770.0 3.6491e-05
19790.0 3.6194e-05
19810.0 3.5901e-05
19830.0 3.56e-05
19850.0 3.53e-05
19870.0 3.5007e-05
19890.0 3.47e-05
19910.0 3.4377e-05
19930.0 3.4045e-05
19950.0 3.3686e-05
19970.0 3.3275e-05
19990.0 3.2811e-05
20010.0 3.2382e-05
20030.0 3.1803e-05
20050.0 3.1153e-05
20070.0 3.0472e-05
20090.0 2.9759e-05
20110.0 2.8976e-05
20130.0 2.82e-05
20150.0 2.7445e-05
20170.0 2.6675e-05
20190.0 2.5908e-05
20210.0 2.5189e-05
20230.0 2.4495e-05
20250.0 2.3806e-05
20270.0 2.3169e-05
20290.0 2.2586e-05
20310.0 2.2032e-05
20330.0 2.1514e-05
20350.0 2.1078e-05
20370.0 2.0687e-05
20390.0 2.0341e-05
20410.0 2.0055e-05
20430.0 1.9827e-05
20450.0 1.9642e-05
20470.0 1.951e-05
20490.0 1.9428e-05
20510.0 1.939e-05
20530.0 1.9396e-05
20550.0 1.9441e-05
20570.0 1.9515e-05
20590.0 1.9625e-05
20610.0 1.9764e-05
20630.0 1.9919e-05
20650.0 2.0097e-05
20670.0 2.0304e-05
20690.0 2.0515e-05
20710.0 2.0733e-05
20730.0 2.0969e-05
20750.0 2.1214e-05
20770.0 2.1451e-05
20790.0 2.1697e-05
20810.0 2.1955e-05
20830.0 2.2207e-05
20850.0 2.2456e-05
20870.0 2.2721e-05
20890.0 2.2987e-05
20910.0 2.3238e-05
20930.0 2.3498e-05
20950.0 2.3765e-05
20970.0 2.4023e-05
20990.0 2.4276e-05
21010.0 2.4544e-05
21030.0 2.4805e-05
21050.0 2.5053e-05
21070.0 2.5303e-05
21090.0 2.5556e-05
21110.0 2.5788e-05
21130.0 2.6007e-05
21150.0 2.6225e-05
21170.0 2.6427e-05
21190.0 2.6606e-05
21210.0 2.6776e-05
21230.0 2.693e-05
21250.0 2.7053e-05
21270.0 2.7152e-05
21290.0 2.7227e-05
21310.0 2.7269e-05
21330.0 2.7275e-05
21350.0 2.7248e-05
21370.0 2.718e-05
21390.0 2.7071e-05
21410.0 2.6921e-05
21430.0 2.6717e-05
21450.0 2.647e-05
21470.0 2.6186e-05
21490.0 2.5851e-05
21510.0 2.5468e-05
21530.0 2.5063e-05
21550.0 2.4624e-05
21570.0 2.4141e-05
21590.0 2.3648e-05
21610.0 2.3155e-05
21630.0 2.2643e-05
21650.0 2.2122e-05
21670.0 2.1647e-05
21690.0 2.1187e-05
21710.0 2.0745e-05
21730.0 2.035e-05
21750.0 2.0009e-05
21770.0 1.9699e-05
21790.0 1.9447e-05
21810.0 1.926e-05
21830.0 1.9129e-05
21850.0 1.9056e-05
21870.0 1.9044e-05
21890.0 1.9085e-05
21910.0 1.9184e-05
21930.0 1.9336e-05
21950.0 1.9528e-05
21970.0 1.9766e-05
21990.0 2.0058e-05
22010.0 2.0371e-05
22030.0 2.0707e-05
22050.0 2.108e-05
22070.0 2.1474e-05
22090.0 2.1863e-05
22110.0 2.2272e-05
22130.0 2.2698e-05
22150.0 2.311e-05
22170.0 2.3513e-05
22190.0 2.3926e-05
22210.0 2.4322e-05
22230.0 2.468e-05
22250.0 2.5027e-05
22270.0 2.5354e-05
22290.0 2.564e-05
22310.0 2.5891e-05
22330.0 2.6118e-05
22350.0 2.6299e-05
22370.0 2.6433e-05
22390.0 2.6526e-05
22410.0 2.6572e-05
22430.0 2.6567e-05
22450.0 2.6514e-05
22470.0 2.6409e-05
22490.0 2.6253e-05
22510.0 2.6053e-05
22530.0 2.5794e-05
22550.0 2.5478e-05
22570.0 2.5125e-05
22590.0 2.4726e-05
22610.0 2.4267e-05
22630.0 2.3768e-05
22650.0 2.3251e-05
22670.0 2.2678e-05
22690.0 2.2065e-05
22710.0 2.1442e-05
