#lamb flux
1010.0 1.0405e-07
1030.0 1.1721e-07
1050.0 1.3235e-07
1070.0 1.4939e-07
1090.0 1.6874e-07
1110.0 1.8859e-07
1130.0 2.0858e-07
1150.0 2.2951e-07
1170.0 2.511e-07
1190.0 2.7157e-07
1210.0 2.9232e-07
1230.0 3.1376e-07
1250.0 3.3477e-07
1270.0 3.5517e-07
1290.0 3.7672e-07
1310.0 3.9826e-07
1330.0 4.1892e-07
1350.0 4.3981e-07
1370.0 4.6137e-07
1390.0 4.824e-07
1410.0 5.028e-07
1430.0 5.2412e-07
1450.0 5.4544e-07
1470.0 5.6604e-07
1490.0 5.8686e-07
1510.0 6.0885e-07
1530.0 6.2967e-07
1550.0 6.5021e-07
1570.0 6.7145e-07
1590.0 6.9271e-07
1610.0 7.13e-07
1630.0 7.339e-07
1650.0 7.5534e-07
1670.0 7.7606e-07
1690.0 7.9648e-07
1710.0 8.1767e-07
1730.0 8.3894e-07
1750.0 8.5889e-07
1770.0 8.7938e-07
1790.0 9.0024e-07
1810.0 9.2036e-07
1830.0 9.4003e-07
1850.0 9.6086e-07
1870.0 9.8103e-07
1890.0 1.0004e-06
1910.0 1.02e-06
1930.0 1.04e-06
1950.0 1.0588e-06
1970.0 1.0772e-06
1990.0 1.0961e-06
2010.0 1.1145e-06
2030.0 1.1318e-06
2050.0 1.1494e-06
2070.0 1.1673e-06
2090.0 1.1835e-06
2110.0 1.1993e-06
2130.0 1.2153e-06
2150.0 1.2304e-06
2170.0 1.2441e-06
2190.0 1.258e-06
2210.0 1.2715e-06
2230.0 1.2835e-06
2250.0 1.2948e-06
2270.0 1.3062e-06
2290.0 1.3163e-06
2310.0 1.3249e-06
2330.0 1.3333e-06
2350.0 1.3411e-06
2370.0 1.3475e-06
2390.0 1.3535e-06
2410.0 1.3602e-06
2430.0 1.3665e-06
2450.0 1.3731e-06
2470.0 1.3818e-06
2490.0 1.3935e-06
2510.0 1.4069e-06
2530.0 1.4268e-06
2550.0 1.4594e-06
2570.0 1.5108e-06
2590.0 1.5895e-06
2610.0 1.7204e-06
2630.0 1.9104e-06
2650.0 2.1502e-06
2670.0 2.4439e-06
2690.0 2.7805e-06
2710.0 3.1091e-06
2730.0 3.4033e-06
2750.0 3.6651e-06
2770.0 3.8636e-06
2790.0 3.9942e-06
2810.0 4.0762e-06
2830.0 4.1225e-06
2850.0 4.1331e-06
2870.0 4.1257e-06
2890.0 4.11e-06
2910.0 4.0879e-06
2930.0 4.0608e-06
2950.0 4.0344e-06
2970.0 4.009e-06
2990.0 3.9825e-06
3010.0 9.3064e-05
3030.0 9.2443e-05
3050.0 9.183e-05
3070.0 9.1152e-05
3090.0 9.0443e-05
3110.0 8.9612e-05
3130.0 8.8549e-05
3150.0 8.72e-05
3170.0 8.5454e-05
3190.0 8.3353e-05
3210.0 8.106e-05
3230.0 7.8728e-05
3250.0 7.6672e-05
3270.0 7.5255e-05
3290.0 7.4652e-05
3310.0 7.4999e-05
3330.0 7.6327e-05
3350.0 7.8444e-05
3370.0 8.139e-05
3390.0 8.5069e-05
3410.0 8.9065e-05
3430.0 9.3568e-05
3450.0 9.8751e-05
3470.0 0.0001044
3490.0 0.00011036
3510.0 0.00011705
3530.0 0.00012421
3550.0 0.00013149
3570.0 0.00013921
3590.0 0.00014784
3610.0 0.00015696
3630.0 0.00016648
3650.0 0.00017647
3670.0 0.00018583
3690.0 0.0001931
3710.0 0.00019746
3730.0 0.00019762
3750.0 0.0001935
3770.0 0.00018121
3790.0 0.00016553
3810.0 0.00014913
3830.0 0.00013211
3850.0 0.00011045
3870.0 7.899e-05
3890.0 0.00011437
3910.0 0.00018149
3930.0 0.00022175
3950.0 0.00021978
3970.0 0.00023239
3990.0 0.00025977
4010.0 0.00034565
4030.0 0.00034212
4050.0 0.00030141
4070.0 0.00027907
4090.0 0.00026536
4110.0 0.0003141
4130.0 0.0003377
4150.0 0.00034733
4170.0 0.00033775
4190.0 0.00033675
4210.0 0.000338
4230.0 0.0003832
4250.0 0.00042287
4270.0 0.00043416
4290.0 0.00043254
4310.0 0.00043419
4330.0 0.00047303
4350.0 0.0005564
4370.0 0.0006377
4390.0 0.00058798
4410.0 0.00045957
4430.0 0.00038002
4450.0 0.00032816
4470.0 0.00031108
4490.0 0.000354
4510.0 0.00042608
4530.0 0.00047905
4550.0 0.00054103
4570.0 0.00061695
4590.0 0.0007365
4610.0 0.0009991
4630.0 0.0012445
4650.0 0.001259
4670.0 0.0011916
4690.0 0.0012694
4710.0 0.0013485
4730.0 0.0011337
4750.0 0.00079104
4770.0 0.00063365
4790.0 0.00062605
4810.0 0.00058924
4830.0 0.00055812
4850.0 0.00063385
4870.0 0.00082561
4890.0 0.00095752
4910.0 0.00079692
4930.0 0.00070799
4950.0 0.00079338
4970.0 0.0010681
4990.0 0.0014021
5010.0 0.0015173
5030.0 0.0012462
5050.0 0.00078778
5070.0 0.00054198
5090.0 0.00047383
5110.0 0.00048992
5130.0 0.0005332
5150.0 0.00055382
5170.0 0.00054988
5190.0 0.00053333
5210.0 0.00052157
5230.0 0.00054808
5250.0 0.00059293
5270.0 0.00066023
5290.0 0.00075761
5310.0 0.00085865
5330.0 0.00088282
5350.0 0.00088299
5370.0 0.00096478
5390.0 0.0010706
5410.0 0.0010234
5430.0 0.00086423
5450.0 0.00079953
5470.0 0.00089821
5490.0 0.0011524
5510.0 0.0014729
5530.0 0.0016525
5550.0 0.0015817
5570.0 0.0014254
5590.0 0.0012535
5610.0 0.001172
5630.0 0.0011365
5650.0 0.0011474
5670.0 0.001111
5690.0 0.0010087
5710.0 0.00096638
5730.0 0.0008905
5750.0 0.00060558
5770.0 0.00051541
5790.0 0.00058755
5810.0 0.00070489
5830.0 0.00083267
5850.0 0.00093892
5870.0 0.00097262
5890.0 0.00093798
5910.0 0.00089834
5930.0 0.00089589
5950.0 0.00093629
5970.0 0.001026
5990.0 0.00095379
6010.0 0.00079138
6030.0 0.00065527
6050.0 0.00056847
6070.0 0.00057811
6090.0 0.00065475
6110.0 0.00071589
6130.0 0.00068503
6150.0 0.00061541
6170.0 0.0006472
6190.0 0.0007841
6210.0 0.00098655
6230.0 0.0011782
6250.0 0.0011924
6270.0 0.0010445
6290.0 0.0008678
6310.0 0.00068515
6330.0 0.00053747
6350.0 0.00048581
6370.0 0.00052142
6390.0 0.000621
6410.0 0.00072859
6430.0 0.00084988
6450.0 0.00099729
6470.0 0.0011929
6490.0 0.0014695
6510.0 0.0016354
6530.0 0.0015335
6550.0 0.0014045
6570.0 0.0013315
6590.0 0.0012821
6610.0 0.001128
6630.0 0.0010327
6650.0 0.00095183
6670.0 0.00096969
6690.0 0.00093548
6710.0 0.00083865
6730.0 0.0007213
6750.0 0.0006625
6770.0 0.00067097
6790.0 0.00076489
6810.0 0.00074892
6830.0 0.00076981
6850.0 0.00074322
6870.0 0.00071013
6890.0 0.00068496
6910.0 0.00067448
6930.0 0.00063109
6950.0 0.00065602
6970.0 0.00066311
6990.0 0.0007411
7010.0 0.0007857
7030.0 0.00073606
7050.0 0.0006851
7070.0 0.00066056
7090.0 0.00061829
7110.0 0.00058635
7130.0 0.00060723
7150.0 0.00064799
7170.0 0.00069408
7190.0 0.00070374
7210.0 0.00068271
7230.0 0.00070415
7250.0 0.00080036
7270.0 0.00093087
7290.0 0.0010275
7310.0 0.0010137
7330.0 0.00090442
7350.0 0.00080829
7370.0 0.00074929
7390.0 0.00075888
7410.0 0.00081206
7430.0 0.00089031
7450.0 0.000963
7470.0 0.001035
7490.0 0.0011239
7510.0 0.0011873
7530.0 0.0011079
7550.0 0.00093291
7570.0 0.00073346
7590.0 0.00054023
7610.0 0.00047978
7630.0 0.00051922
7650.0 0.00060141
7670.0 0.00069782
7690.0 0.00079145
7710.0 0.00084532
7730.0 0.00086864
7750.0 0.00090779
7770.0 0.00090473
7790.0 0.00087106
7810.0 0.00086862
7830.0 0.00085225
7850.0 0.0007784
7870.0 0.00070746
7890.0 0.00063506
7910.0 0.00054198
7930.0 0.00047332
7950.0 0.00042908
7970.0 0.00041749
7990.0 0.00042864
8010.0 0.0004519
8030.0 0.00045287
8050.0 0.00045619
8070.0 0.00044879
8090.0 0.00045978
8110.0 0.00043373
8130.0 0.00037963
8150.0 0.00035669
8170.0 0.00032877
8190.0 0.00032542
8210.0 0.0003489
8230.0 0.00037328
8250.0 0.00034596
8270.0 0.00030842
8290.0 0.00025342
8310.0 0.00017468
8330.0 0.00011338
8350.0 8.259e-05
8370.0 8.779e-05
8390.0 0.00010398
8410.0 0.00013209
8430.0 0.00016142
8450.0 0.00017824
8470.0 0.00019777
8490.0 0.00019443
8510.0 0.00019545
8530.0 0.00020415
8550.0 0.00024716
8570.0 0.00030449
8590.0 0.00034795
8610.0 0.0004206
8630.0 0.00048759
8650.0 0.00051308
8670.0 0.00052164
8690.0 0.00051857
8710.0 0.00048494
8730.0 0.00046551
8750.0 0.00043082
8770.0 0.00041372
8790.0 0.00041048
8810.0 0.00039135
8830.0 0.00032922
8850.0 0.00027132
8870.0 0.00022628
8890.0 0.0002212
8910.0 0.00023893
8930.0 0.0002536
8950.0 0.00028463
8970.0 0.00028913
8990.0 0.00028467
9010.0 0.00027375
9030.0 0.00027088
9050.0 0.00027353
9070.0 0.00027565
9090.0 0.00027723
9110.0 0.00027865
9130.0 0.00027991
9150.0 0.0002811
9170.0 0.00028236
9190.0 0.00028369
9210.0 0.00028513
9230.0 0.00028661
9250.0 0.00028819
9270.0 0.00028983
9290.0 0.00029154
9310.0 0.00029334
9330.0 0.0002952
9350.0 0.00029712
9370.0 0.00029912
9390.0 0.0003012
9410.0 0.00030333
9430.0 0.00030552
9450.0 0.0003078
9470.0 0.00031014
9490.0 0.00031252
9510.0 0.00031498
9530.0 0.00031752
9550.0 0.00032009
9570.0 0.00032272
9590.0 0.00032543
9610.0 0.00032819
9630.0 0.00033099
9650.0 0.00033385
9670.0 0.00033679
9690.0 0.00033975
9710.0 0.00034277
9730.0 0.00034584
9750.0 0.00034896
9770.0 0.0003521
9790.0 0.0003553
9810.0 0.00035855
9830.0 0.00036182
9850.0 0.00036512
9870.0 0.00036849
9890.0 0.00037187
9910.0 0.00037527
9930.0 0.0003787
9950.0 0.00038217
9970.0 0.00038565
9990.0 0.00038913
10010.0 0.00037474
10030.0 0.00037803
10050.0 0.00038132
10070.0 0.0003846
10090.0 0.00038795
10110.0 0.00039126
10130.0 0.00039457
10150.0 0.0003979
10170.0 0.00040122
10190.0 0.00040449
10210.0 0.00040778
10230.0 0.00041107
10250.0 0.00041432
10270.0 0.00041754
10290.0 0.00042077
10310.0 0.00042395
10330.0 0.00042707
10350.0 0.0004302
10370.0 0.0004333
10390.0 0.00043632
10410.0 0.00043931
10430.0 0.0004423
10450.0 0.0004452
10470.0 0.00044804
10490.0 0.00045086
10510.0 0.00045362
10530.0 0.00045628
10550.0 0.0004589
10570.0 0.00046148
10590.0 0.00046398
10610.0 0.00046638
10630.0 0.00046876
10650.0 0.00047105
10670.0 0.00047323
10690.0 0.00047536
10710.0 0.00047742
10730.0 0.00047937
10750.0 0.00048121
10770.0 0.00048303
10790.0 0.00048474
10810.0 0.00048633
10830.0 0.00048782
10850.0 0.00048922
10870.0 0.00049037
10890.0 0.00049123
10910.0 0.00049172
10930.0 0.00049155
10950.0 0.0004903
10970.0 0.00048781
10990.0 0.00048397
11010.0 0.00047002
11030.0 0.00046246
11050.0 0.0004535
11070.0 0.00044287
11090.0 0.00043011
11110.0 0.00041694
11130.0 0.00040321
11150.0 0.00038843
11170.0 0.00037327
11190.0 0.00035872
11210.0 0.00034387
11230.0 0.00032888
11250.0 0.00031486
11270.0 0.00030169
11290.0 0.00028878
11310.0 0.00027685
11330.0 0.00026659
11350.0 0.00025707
11370.0 0.00024841
11390.0 0.00024097
11410.0 0.00023446
11430.0 0.0002283
11450.0 0.0002228
11470.0 0.00021781
11490.0 0.00021288
11510.0 0.00020779
11530.0 0.00020277
11550.0 0.00019755
11570.0 0.00019182
11590.0 0.00018581
11610.0 0.00017968
11630.0 0.00017306
11650.0 0.00016608
11670.0 0.00015933
11690.0 0.0001526
11710.0 0.00014581
11730.0 0.00013935
11750.0 0.00013348
11770.0 0.00012782
11790.0 0.00012259
11810.0 0.00011802
11830.0 0.00011396
11850.0 0.00011022
11870.0 0.00010704
11890.0 0.00010432
11910.0 0.00010183
11930.0 9.9562e-05
11950.0 9.7514e-05
11970.0 9.5527e-05
11990.0 9.3487e-05
12010.0 9.1455e-05
12030.0 8.9393e-05
12050.0 8.7196e-05
12070.0 8.4872e-05
12090.0 8.2612e-05
12110.0 8.0308e-05
12130.0 7.7982e-05
12150.0 7.5796e-05
12170.0 7.3814e-05
12190.0 7.1963e-05
12210.0 7.043e-05
12230.0 6.9282e-05
12250.0 6.8505e-05
12270.0 6.8156e-05
12290.0 6.8257e-05
12310.0 6.8761e-05
12330.0 6.9732e-05
12350.0 7.1116e-05
12370.0 7.2789e-05
12390.0 7.4787e-05
12410.0 7.7179e-05
12430.0 7.9601e-05
12450.0 8.2087e-05
12470.0 8.47e-05
12490.0 8.7265e-05
12510.0 8.9589e-05
12530.0 9.1827e-05
12550.0 9.3893e-05
12570.0 9.5598e-05
12590.0 9.6975e-05
12610.0 9.8083e-05
12630.0 9.8811e-05
12650.0 9.9121e-05
12670.0 9.9111e-05
12690.0 9.8757e-05
12710.0 9.8078e-05
12730.0 9.7121e-05
12750.0 9.5863e-05
12770.0 9.4377e-05
12790.0 9.2724e-05
12810.0 9.0876e-05
12830.0 8.8839e-05
12850.0 8.6758e-05
12870.0 8.4594e-05
12890.0 8.2286e-05
12910.0 7.9937e-05
12930.0 7.7601e-05
12950.0 7.5147e-05
12970.0 7.2613e-05
12990.0 7.0158e-05
13010.0 6.7685e-05
13030.0 6.5138e-05
13050.0 6.2637e-05
13070.0 6.0244e-05
13090.0 5.7812e-05
13110.0 5.5428e-05
13130.0 5.3204e-05
13150.0 5.1087e-05
13170.0 4.9019e-05
13190.0 4.7181e-05
13210.0 4.5573e-05
13230.0 4.4125e-05
13250.0 4.2902e-05
13270.0 4.1956e-05
13290.0 4.1242e-05
13310.0 4.0776e-05
13330.0 4.0583e-05
13350.0 4.0631e-05
13370.0 4.0927e-05
13390.0 4.1466e-05
13410.0 4.2153e-05
13430.0 4.3015e-05
13450.0 4.4043e-05
13470.0 4.5142e-05
13490.0 4.6266e-05
13510.0 4.7501e-05
13530.0 4.8712e-05
13550.0 4.9831e-05
13570.0 5.0904e-05
13590.0 5.192e-05
13610.0 5.2788e-05
13630.0 5.3512e-05
13650.0 5.4144e-05
13670.0 5.463e-05
13690.0 5.4958e-05
13710.0 5.5164e-05
13730.0 5.5246e-05
13750.0 5.5189e-05
13770.0 5.5023e-05
13790.0 5.475e-05
13810.0 5.438e-05
13830.0 5.3938e-05
13850.0 5.341e-05
13870.0 5.2802e-05
13890.0 5.2147e-05
13910.0 5.1444e-05
13930.0 5.0668e-05
13950.0 4.9852e-05
13970.0 4.9042e-05
13990.0 4.8186e-05
14010.0 4.7302e-05
14030.0 4.6441e-05
14050.0 4.5593e-05
14070.0 4.4722e-05
14090.0 4.3905e-05
14110.0 4.3155e-05
14130.0 4.2446e-05
14150.0 4.1797e-05
14170.0 4.1259e-05
14190.0 4.0809e-05
14210.0 4.0448e-05
14230.0 4.0202e-05
14250.0 4.0067e-05
14270.0 4.0042e-05
14290.0 4.0137e-05
14310.0 4.0331e-05
14330.0 4.0624e-05
14350.0 4.1024e-05
14370.0 4.1499e-05
14390.0 4.2024e-05
14410.0 4.2633e-05
14430.0 4.3297e-05
14450.0 4.3974e-05
14470.0 4.4683e-05
14490.0 4.5453e-05
14510.0 4.6215e-05
14530.0 4.6973e-05
14550.0 4.778e-05
14570.0 4.8621e-05
14590.0 4.9462e-05
14610.0 5.0364e-05
14630.0 5.1363e-05
14650.0 5.2402e-05
14670.0 5.3502e-05
14690.0 5.4734e-05
14710.0 5.6089e-05
14730.0 5.7465e-05
14750.0 5.8968e-05
14770.0 6.0611e-05
14790.0 6.2297e-05
14810.0 6.4009e-05
14830.0 6.5885e-05
14850.0 6.776e-05
14870.0 6.9562e-05
14890.0 7.1359e-05
14910.0 7.3123e-05
14930.0 7.4702e-05
14950.0 7.6089e-05
14970.0 7.7325e-05
14990.0 7.8304e-05
15010.0 7.9014e-05
15030.0 7.9507e-05
15050.0 7.9801e-05
15070.0 7.9918e-05
15090.0 7.9925e-05
15110.0 7.9855e-05
15130.0 7.9739e-05
15150.0 7.9607e-05
15170.0 7.9457e-05
15190.0 7.9299e-05
15210.0 7.9147e-05
15230.0 7.8996e-05
15250.0 7.8838e-05
15270.0 7.8682e-05
15290.0 7.8539e-05
15310.0 7.8389e-05
15330.0 7.8236e-05
15350.0 7.8092e-05
15370.0 7.795e-05
15390.0 7.7796e-05
15410.0 7.765e-05
15430.0 7.751e-05
15450.0 7.7364e-05
15470.0 7.7214e-05
15490.0 7.7075e-05
15510.0 7.6936e-05
15530.0 7.6789e-05
15550.0 7.6646e-05
15570.0 7.6509e-05
15590.0 7.6364e-05
15610.0 7.6214e-05
15630.0 7.6076e-05
15650.0 7.5936e-05
15670.0 7.5788e-05
15690.0 7.5645e-05
15710.0 7.5509e-05
15730.0 7.5362e-05
15750.0 7.5214e-05
15770.0 7.5073e-05
15790.0 7.493e-05
15810.0 7.4776e-05
15830.0 7.463e-05
15850.0 7.4489e-05
15870.0 7.4339e-05
15890.0 7.4188e-05
15910.0 7.4044e-05
15930.0 7.3895e-05
15950.0 7.3737e-05
15970.0 7.3586e-05
15990.0 7.3437e-05
16010.0 7.328e-05
16030.0 7.3119e-05
16050.0 7.2969e-05
16070.0 7.2813e-05
16090.0 7.265e-05
16110.0 7.2492e-05
16130.0 7.2338e-05
16150.0 7.2168e-05
16170.0 7.2001e-05
16190.0 7.1841e-05
16210.0 7.1674e-05
16230.0 7.1501e-05
16250.0 7.1335e-05
16270.0 7.1169e-05
16290.0 7.0993e-05
16310.0 7.0818e-05
16330.0 7.0648e-05
16350.0 7.0471e-05
16370.0 7.0283e-05
16390.0 7.0107e-05
16410.0 6.993e-05
16430.0 6.9743e-05
16450.0 6.9557e-05
16470.0 6.9378e-05
16490.0 6.9188e-05
16510.0 6.8993e-05
16530.0 6.8805e-05
16550.0 6.8615e-05
16570.0 6.8415e-05
16590.0 6.8215e-05
16610.0 6.8024e-05
16630.0 6.7824e-05
16650.0 6.7619e-05
16670.0 6.742e-05
16690.0 6.722e-05
16710.0 6.7005e-05
16730.0 6.6796e-05
16750.0 6.6591e-05
16770.0 6.6378e-05
16790.0 6.6159e-05
16810.0 6.5949e-05
16830.0 6.5736e-05
16850.0 6.5513e-05
16870.0 6.5293e-05
16890.0 6.5077e-05
16910.0 6.485e-05
16930.0 6.4619e-05
16950.0 6.4397e-05
16970.0 6.4171e-05
16990.0 6.3936e-05
17010.0 6.3706e-05
17030.0 6.3479e-05
17050.0 6.3241e-05
17070.0 6.3002e-05
17090.0 6.2768e-05
17110.0 6.2531e-05
17130.0 6.2282e-05
17150.0 6.2041e-05
17170.0 6.1803e-05
17190.0 6.1555e-05
17210.0 6.1306e-05
17230.0 6.1065e-05
17250.0 6.0816e-05
17270.0 6.0559e-05
17290.0 6.0308e-05
17310.0 6.0059e-05
17330.0 5.98e-05
17350.0 5.954e-05
17370.0 5.929e-05
17390.0 5.9032e-05
17410.0 5.8769e-05
17430.0 5.851e-05
17450.0 5.8254e-05
17470.0 5.7984e-05
17490.0 5.7717e-05
17510.0 5.7457e-05
17530.0 5.7191e-05
17550.0 5.6918e-05
17570.0 5.6653e-05
17590.0 5.6389e-05
17610.0 5.6115e-05
17630.0 5.5843e-05
17650.0 5.5576e-05
17670.0 5.5303e-05
17690.0 5.502e-05
17710.0 5.475e-05
17730.0 5.4479e-05
17750.0 5.4199e-05
17770.0 5.3922e-05
17790.0 5.3652e-05
17810.0 5.3371e-05
17830.0 5.3088e-05
17850.0 5.2812e-05
17870.0 5.2535e-05
17890.0 5.2249e-05
17910.0 5.1967e-05
17930.0 5.1692e-05
17950.0 5.141e-05
17970.0 5.1125e-05
17990.0 5.0847e-05
18010.0 5.0567e-05
18030.0 5.0276e-05
18050.0 4.9993e-05
18070.0 4.9714e-05
18090.0 4.9428e-05
18110.0 4.9139e-05
18130.0 4.886e-05
18150.0 4.8578e-05
18170.0 4.8289e-05
18190.0 4.8005e-05
18210.0 4.7725e-05
18230.0 4.7436e-05
18250.0 4.7146e-05
18270.0 4.6866e-05
18290.0 4.6582e-05
18310.0 4.6293e-05
18330.0 4.601e-05
18350.0 4.5731e-05
18370.0 4.5443e-05
18390.0 4.5155e-05
18410.0 4.4875e-05
18430.0 4.4592e-05
18450.0 4.43e-05
18470.0 4.4018e-05
18490.0 4.374e-05
18510.0 4.3454e-05
18530.0 4.317e-05
18550.0 4.2893e-05
18570.0 4.2611e-05
18590.0 4.2323e-05
18610.0 4.2043e-05
18630.0 4.1765e-05
18650.0 4.1481e-05
18670.0 4.1197e-05
18690.0 4.0924e-05
18710.0 4.0645e-05
18730.0 4.0363e-05
18750.0 4.0087e-05
18770.0 3.9814e-05
18790.0 3.953e-05
18810.0 3.9251e-05
18830.0 3.898e-05
18850.0 3.8705e-05
18870.0 3.8425e-05
18890.0 3.8155e-05
18910.0 3.7886e-05
18930.0 3.7608e-05
18950.0 3.7335e-05
18970.0 3.7069e-05
18990.0 3.6797e-05
19010.0 3.6519e-05
19030.0 3.6254e-05
19050.0 3.5989e-05
19070.0 3.5718e-05
19090.0 3.545e-05
19110.0 3.5191e-05
19130.0 3.4922e-05
19150.0 3.4654e-05
19170.0 3.4393e-05
19190.0 3.4132e-05
19210.0 3.3864e-05
19230.0 3.3602e-05
19250.0 3.3347e-05
19270.0 3.3086e-05
19290.0 3.2825e-05
19310.0 3.2571e-05
19330.0 3.2317e-05
19350.0 3.2053e-05
19370.0 3.1799e-05
19390.0 3.1548e-05
19410.0 3.1293e-05
19430.0 3.1037e-05
19450.0 3.079e-05
19470.0 3.0541e-05
19490.0 3.0288e-05
19510.0 3.004e-05
19530.0 2.9797e-05
19550.0 2.9546e-05
19570.0 2.9295e-05
19590.0 2.9055e-05
19610.0 2.8812e-05
19630.0 2.8565e-05
19650.0 2.8324e-05
19670.0 2.8088e-05
19690.0 2.7844e-05
19710.0 2.7603e-05
19730.0 2.7368e-05
19750.0 2.7131e-05
19770.0 2.6889e-05
19790.0 2.6655e-05
19810.0 2.6425e-05
19830.0 2.6188e-05
19850.0 2.5953e-05
19870.0 2.5723e-05
19890.0 2.5483e-05
19910.0 2.5229e-05
19930.0 2.4971e-05
19950.0 2.4693e-05
19970.0 2.4377e-05
19990.0 2.4023e-05
20010.0 2.4117e-05
20030.0 2.3675e-05
20050.0 2.3183e-05
20070.0 2.267e-05
20090.0 2.2137e-05
20110.0 2.1558e-05
20130.0 2.0988e-05
20150.0 2.0437e-05
20170.0 1.988e-05
20190.0 1.9329e-05
20210.0 1.8817e-05
20230.0 1.8326e-05
20250.0 1.7841e-05
20270.0 1.7396e-05
20290.0 1.6993e-05
20310.0 1.6614e-05
20330.0 1.6262e-05
20350.0 1.5971e-05
20370.0 1.5714e-05
20390.0 1.5492e-05
20410.0 1.5314e-05
20430.0 1.518e-05
20450.0 1.5079e-05
20470.0 1.5018e-05
20490.0 1.4993e-05
20510.0 1.5001e-05
20530.0 1.5043e-05
20550.0 1.5111e-05
20570.0 1.52e-05
20590.0 1.5315e-05
20610.0 1.545e-05
20630.0 1.5594e-05
20650.0 1.5753e-05
20670.0 1.5933e-05
20690.0 1.6113e-05
20710.0 1.6295e-05
20730.0 1.6489e-05
20750.0 1.6687e-05
20770.0 1.6878e-05
20790.0 1.7075e-05
20810.0 1.7281e-05
20830.0 1.7481e-05
20850.0 1.7679e-05
20870.0 1.789e-05
20890.0 1.8104e-05
20910.0 1.8307e-05
20930.0 1.8518e-05
20950.0 1.8738e-05
20970.0 1.8952e-05
20990.0 1.9163e-05
21010.0 1.9388e-05
21030.0 1.9609e-05
21050.0 1.982e-05
21070.0 2.0033e-05
21090.0 2.025e-05
21110.0 2.0448e-05
21130.0 2.0636e-05
21150.0 2.0822e-05
21170.0 2.0995e-05
21190.0 2.1147e-05
21210.0 2.1291e-05
21230.0 2.1421e-05
21250.0 2.1527e-05
21270.0 2.1612e-05
21290.0 2.1678e-05
21310.0 2.1718e-05
21330.0 2.1731e-05
21350.0 2.1718e-05
21370.0 2.1675e-05
21390.0 2.1601e-05
21410.0 2.1496e-05
21430.0 2.1351e-05
21450.0 2.1175e-05
21470.0 2.097e-05
21490.0 2.0727e-05
21510.0 2.0448e-05
21530.0 2.0152e-05
21550.0 1.9829e-05
21570.0 1.9472e-05
21590.0 1.9106e-05
21610.0 1.8738e-05
21630.0 1.8353e-05
21650.0 1.796e-05
21670.0 1.76e-05
21690.0 1.7248e-05
21710.0 1.6908e-05
21730.0 1.6601e-05
21750.0 1.6333e-05
21770.0 1.6087e-05
21790.0 1.5884e-05
21810.0 1.573e-05
21830.0 1.5617e-05
21850.0 1.5548e-05
21870.0 1.5526e-05
21890.0 1.5547e-05
21910.0 1.5612e-05
21930.0 1.572e-05
21950.0 1.5861e-05
21970.0 1.604e-05
21990.0 1.6263e-05
22010.0 1.6505e-05
22030.0 1.6769e-05
22050.0 1.7065e-05
22070.0 1.738e-05
22090.0 1.7694e-05
22110.0 1.8027e-05
22130.0 1.8376e-05
22150.0 1.8716e-05
22170.0 1.9049e-05
22190.0 1.9393e-05
22210.0 1.9724e-05
22230.0 2.0024e-05
22250.0 2.0314e-05
22270.0 2.0587e-05
22290.0 2.0826e-05
22310.0 2.1034e-05
22330.0 2.122e-05
22350.0 2.1366e-05
22370.0 2.1472e-05
22390.0 2.1541e-05
22410.0 2.1568e-05
22430.0 2.1552e-05
22450.0 2.1495e-05
22470.0 2.1393e-05
22490.0 2.1247e-05
22510.0 2.1066e-05
22530.0 2.0836e-05
22550.0 2.0558e-05
22570.0 2.0252e-05
22590.0 1.9909e-05
22610.0 1.9517e-05
22630.0 1.9096e-05
22650.0 1.8662e-05
22670.0 1.8184e-05
22690.0 1.7675e-05
