#lamb flux
1010.0 1.5008e-07
1030.0 1.564e-07
1050.0 1.6372e-07
1070.0 1.7199e-07
1090.0 1.8138e-07
1110.0 1.9106e-07
1130.0 2.0084e-07
1150.0 2.1114e-07
1170.0 2.2181e-07
1190.0 2.32e-07
1210.0 2.424e-07
1230.0 2.532e-07
1250.0 2.6388e-07
1270.0 2.7434e-07
1290.0 2.8546e-07
1310.0 2.9667e-07
1330.0 3.0754e-07
1350.0 3.1862e-07
1370.0 3.3016e-07
1390.0 3.4154e-07
1410.0 3.5273e-07
1430.0 3.6449e-07
1450.0 3.7638e-07
1470.0 3.8803e-07
1490.0 3.9991e-07
1510.0 4.125e-07
1530.0 4.2461e-07
1550.0 4.3667e-07
1570.0 4.4918e-07
1590.0 4.6178e-07
1610.0 4.7395e-07
1630.0 4.8648e-07
1650.0 4.9933e-07
1670.0 5.1181e-07
1690.0 5.2413e-07
1710.0 5.3682e-07
1730.0 5.495e-07
1750.0 5.614e-07
1770.0 5.735e-07
1790.0 5.8567e-07
1810.0 5.9729e-07
1830.0 6.0853e-07
1850.0 6.2022e-07
1870.0 6.3136e-07
1890.0 6.4187e-07
1910.0 6.5232e-07
1930.0 6.6277e-07
1950.0 6.7242e-07
1970.0 6.8167e-07
1990.0 6.9105e-07
2010.0 7e-07
2030.0 7.0833e-07
2050.0 7.1678e-07
2070.0 7.2534e-07
2090.0 7.3315e-07
2110.0 7.4086e-07
2130.0 7.4886e-07
2150.0 7.567e-07
2170.0 7.642e-07
2190.0 7.7226e-07
2210.0 7.8063e-07
2230.0 7.8892e-07
2250.0 7.9758e-07
2270.0 8.0717e-07
2290.0 8.1701e-07
2310.0 8.271e-07
2330.0 8.3823e-07
2350.0 8.5028e-07
2370.0 8.6282e-07
2390.0 8.7646e-07
2410.0 8.9166e-07
2430.0 9.0768e-07
2450.0 9.2458e-07
2470.0 9.4277e-07
2490.0 9.6195e-07
2510.0 9.8153e-07
2530.0 1.0031e-06
2550.0 1.0294e-06
2570.0 1.0644e-06
2590.0 1.1136e-06
2610.0 1.1897e-06
2630.0 1.3001e-06
2650.0 1.4446e-06
2670.0 1.6289e-06
2690.0 1.8526e-06
2710.0 2.0945e-06
2730.0 2.3424e-06
2750.0 2.6007e-06
2770.0 2.8523e-06
2790.0 3.09e-06
2810.0 3.325e-06
2830.0 3.5671e-06
2850.0 3.8041e-06
2870.0 4.0474e-06
2890.0 4.3067e-06
2910.0 4.5775e-06
2930.0 4.8528e-06
2950.0 5.1459e-06
2970.0 5.4552e-06
2990.0 5.7694e-06
3010.0 1.0369e-05
3030.0 1.0944e-05
3050.0 1.1522e-05
3070.0 1.2064e-05
3090.0 1.2554e-05
3110.0 1.2904e-05
3130.0 1.2998e-05
3150.0 1.2712e-05
3170.0 1.1799e-05
3190.0 1.0208e-05
3210.0 7.9488e-06
3230.0 5.3629e-06
3250.0 7.7883e-06
3270.0 3.9355e-06
3290.0 9.8778e-06
3310.0 2.7507e-06
3330.0 2.8965e-06
3350.0 3.9798e-06
3370.0 5.1928e-06
3390.0 6.4688e-06
3410.0 7.7388e-06
3430.0 9.0597e-06
3450.0 1.0374e-05
3470.0 1.1585e-05
3490.0 1.2388e-05
3510.0 1.4995e-05
3530.0 1.999e-05
3550.0 2.0616e-05
3570.0 1.8735e-05
3590.0 2.5963e-05
3610.0 1.8694e-05
3630.0 2.7017e-05
3650.0 2.9641e-05
3670.0 3.6916e-05
3690.0 3.6304e-05
3710.0 2.8574e-05
3730.0 3.6843e-05
3750.0 3.837e-05
3770.0 3.9222e-05
3790.0 3.5698e-05
3810.0 3.0915e-05
3830.0 3.8451e-05
3850.0 3.9131e-05
3870.0 4.7685e-05
3890.0 4.6129e-05
3910.0 4.4151e-05
3930.0 4.9013e-05
3950.0 5.5063e-05
3970.0 7.1364e-05
3990.0 6.182e-05
4010.0 4.5783e-05
4030.0 5.5993e-05
4050.0 5.7688e-05
4070.0 6.3767e-05
4090.0 5.8394e-05
4110.0 4.3351e-05
4130.0 5.3433e-05
4150.0 4.912e-05
4170.0 5.2057e-05
4190.0 5.2082e-05
4210.0 6.196e-05
4230.0 4.6262e-05
4250.0 5.4452e-05
4270.0 5.4413e-05
4290.0 5.5256e-05
4310.0 6.5086e-05
4330.0 6.6937e-05
4350.0 5.488e-05
4370.0 4.9334e-05
4390.0 5.6129e-05
4410.0 5.5319e-05
4430.0 4.37e-05
4450.0 4.3543e-05
4470.0 4.8948e-05
4490.0 3.8844e-05
4510.0 4.5819e-05
4530.0 4.9874e-05
4550.0 6.563e-05
4570.0 9.4074e-05
4590.0 9.5686e-05
4610.0 7.2292e-05
4630.0 0.00010432
4650.0 0.00014104
4670.0 0.00013248
4690.0 8.6847e-05
4710.0 8.9914e-05
4730.0 0.00010741
4750.0 9.5127e-05
4770.0 7.359e-05
4790.0 5.4199e-05
4810.0 7.3599e-05
4830.0 8.4021e-05
4850.0 7.914e-05
4870.0 3.9737e-05
4890.0 8.5009e-05
4910.0 0.00011119
4930.0 0.00011939
4950.0 0.00012165
4970.0 8.81e-05
4990.0 9.8286e-05
5010.0 0.00010687
5030.0 0.00010904
5050.0 0.00010384
5070.0 7.668e-05
5090.0 6.4261e-05
5110.0 6.0564e-05
5130.0 5.4949e-05
5150.0 6.2109e-05
5170.0 5.5388e-05
5190.0 6.6285e-05
5210.0 6.6338e-05
5230.0 7.215e-05
5250.0 9.0459e-05
5270.0 8.1452e-05
5290.0 8.1681e-05
5310.0 0.00011161
5330.0 0.00012734
5350.0 0.00011263
5370.0 0.0001017
5390.0 0.00011056
5410.0 0.00013132
5430.0 0.00014247
5450.0 0.00015416
5470.0 0.00016038
5490.0 0.00016243
5510.0 0.00018705
5530.0 0.00019334
5550.0 0.00020311
5570.0 0.00021121
5590.0 0.0002086
5610.0 0.00019967
5630.0 0.00019402
5650.0 0.00019664
5670.0 0.00019463
5690.0 0.00016978
5710.0 0.0001604
5730.0 0.0001577
5750.0 0.0001671
5770.0 0.00014765
5790.0 0.00013794
5810.0 0.00014088
5830.0 0.00014699
5850.0 0.00013611
5870.0 0.00013503
5890.0 0.00015385
5910.0 0.00014754
5930.0 0.00012595
5950.0 0.00011224
5970.0 0.00011648
5990.0 0.00010648
6010.0 9.8832e-05
6030.0 9.9213e-05
6050.0 9.3831e-05
6070.0 7.4977e-05
6090.0 6.8948e-05
6110.0 8.3882e-05
6130.0 9.4188e-05
6150.0 9.941e-05
6170.0 9.961e-05
6190.0 9.7272e-05
6210.0 9.6524e-05
6230.0 0.00010744
6250.0 9.9248e-05
6270.0 9.0187e-05
6290.0 8.1681e-05
6310.0 7.6265e-05
6330.0 7.2282e-05
6350.0 6.461e-05
6370.0 6.4879e-05
6390.0 7.6084e-05
6410.0 9.3376e-05
6430.0 0.00010778
6450.0 0.00010549
6470.0 0.00010618
6490.0 0.00012754
6510.0 0.00014224
6530.0 0.00013612
6550.0 0.00013252
6570.0 0.00013441
6590.0 0.00013056
6610.0 0.00013971
6630.0 0.00013294
6650.0 0.00012063
6670.0 0.00010977
6690.0 0.00010455
6710.0 0.00012117
6730.0 0.00011244
6750.0 0.00010051
6770.0 9.362e-05
6790.0 9.7685e-05
6810.0 0.00010544
6830.0 0.00010287
6850.0 9.5016e-05
6870.0 9.6536e-05
6890.0 9.3997e-05
6910.0 8.8977e-05
6930.0 9.9651e-05
6950.0 9.4288e-05
6970.0 9.076e-05
6990.0 9.1636e-05
7010.0 8.8125e-05
7030.0 8.2728e-05
7050.0 7.8312e-05
7070.0 8.0826e-05
7090.0 7.5612e-05
7110.0 6.6769e-05
7130.0 5.5977e-05
7150.0 5.1327e-05
7170.0 6.4327e-05
7190.0 6.9335e-05
7210.0 6.8462e-05
7230.0 7.2231e-05
7250.0 6.9423e-05
7270.0 6.7308e-05
7290.0 7.2372e-05
7310.0 7.7795e-05
7330.0 7.5622e-05
7350.0 7.1508e-05
7370.0 6.9412e-05
7390.0 7.3119e-05
7410.0 8.4307e-05
7430.0 9.2336e-05
7450.0 9.9643e-05
7470.0 0.00010009
7490.0 0.0001022
7510.0 9.7771e-05
7530.0 9.6871e-05
7550.0 9.3454e-05
7570.0 8.1988e-05
7590.0 8.0432e-05
7610.0 7.8778e-05
7630.0 7.5722e-05
7650.0 8.3975e-05
7670.0 9.2094e-05
7690.0 0.00010023
7710.0 0.00011071
7730.0 0.00011806
7750.0 0.00012357
7770.0 0.00012376
7790.0 0.00013351
7810.0 0.00013793
7830.0 0.00013025
7850.0 0.00013117
7870.0 0.00012526
7890.0 0.00012889
7910.0 0.00012222
7930.0 0.00012243
7950.0 0.00011129
7970.0 0.00011398
7990.0 0.00011015
8010.0 0.0001089
8030.0 0.00010872
8050.0 0.00011344
8070.0 0.00011012
8090.0 0.00011043
8110.0 0.00010734
8130.0 0.00010724
8150.0 0.00010321
8170.0 0.00010039
8190.0 9.9172e-05
8210.0 9.9977e-05
8230.0 9.0234e-05
8250.0 8.3039e-05
8270.0 7.2721e-05
8290.0 5.9964e-05
8310.0 5.0097e-05
8330.0 3.9712e-05
8350.0 3.3822e-05
8370.0 3.5626e-05
8390.0 3.7616e-05
8410.0 4.0476e-05
8430.0 4.8277e-05
8450.0 5.1466e-05
8470.0 5.4196e-05
8490.0 6.1518e-05
8510.0 6.7353e-05
8530.0 7.7854e-05
8550.0 9.2065e-05
8570.0 0.00010339
8590.0 0.00011189
8610.0 0.00012179
8630.0 0.00013242
8650.0 0.00013443
8670.0 0.00013559
8690.0 0.00014061
8710.0 0.00014004
8730.0 0.00013981
8750.0 0.00013373
8770.0 0.00013389
8790.0 0.00013206
8810.0 0.00012229
8830.0 0.00012149
8850.0 0.00011456
8870.0 0.00011017
8890.0 0.00010209
8910.0 0.00010796
8930.0 9.9699e-05
8950.0 9.7553e-05
8970.0 9.7333e-05
8990.0 9.4347e-05
9010.0 9.5186e-05
9030.0 9.1764e-05
9050.0 9.1252e-05
9070.0 9.1097e-05
9090.0 9.093e-05
9110.0 9.0787e-05
9130.0 9.0592e-05
9150.0 9.0374e-05
9170.0 8.9965e-05
9190.0 8.9256e-05
9210.0 9.0108e-05
9230.0 8.9628e-05
9250.0 8.9269e-05
9270.0 8.8928e-05
9290.0 8.8596e-05
9310.0 8.8274e-05
9330.0 8.7951e-05
9350.0 8.7623e-05
9370.0 8.729e-05
9390.0 8.6951e-05
9410.0 8.6604e-05
9430.0 8.6247e-05
9450.0 8.5877e-05
9470.0 8.5504e-05
9490.0 8.514e-05
9510.0 8.4766e-05
9530.0 8.4387e-05
9550.0 8.4001e-05
9570.0 8.3609e-05
9590.0 8.3216e-05
9610.0 8.2818e-05
9630.0 8.2416e-05
9650.0 8.2013e-05
9670.0 8.1609e-05
9690.0 8.1202e-05
9710.0 8.0794e-05
9730.0 8.0386e-05
9750.0 7.9978e-05
9770.0 7.9568e-05
9790.0 7.9159e-05
9810.0 7.8751e-05
9830.0 7.8343e-05
9850.0 7.7937e-05
9870.0 7.7532e-05
9890.0 7.7129e-05
9910.0 7.6727e-05
9930.0 7.6323e-05
9950.0 7.5647e-05
9970.0 7.5335e-05
9990.0 7.5011e-05
10010.0 7.4682e-05
10030.0 7.4332e-05
10050.0 7.3955e-05
10070.0 7.3523e-05
10090.0 7.3185e-05
10110.0 7.2831e-05
10130.0 7.2481e-05
10150.0 7.2135e-05
10170.0 7.178e-05
10190.0 7.1416e-05
10210.0 7.107e-05
10230.0 7.0733e-05
10250.0 7.0387e-05
10270.0 7.0048e-05
10290.0 6.9726e-05
10310.0 6.9397e-05
10330.0 6.9063e-05
10350.0 6.875e-05
10370.0 6.8442e-05
10390.0 6.8128e-05
10410.0 6.782e-05
10430.0 6.7533e-05
10450.0 6.7238e-05
10470.0 6.6942e-05
10490.0 6.6662e-05
10510.0 6.6389e-05
10530.0 6.6102e-05
10550.0 6.5828e-05
10570.0 6.5571e-05
10590.0 6.5309e-05
10610.0 6.5046e-05
10630.0 6.4801e-05
10650.0 6.4559e-05
10670.0 6.4307e-05
10690.0 6.4067e-05
10710.0 6.3839e-05
10730.0 6.3606e-05
10750.0 6.3368e-05
10770.0 6.3155e-05
10790.0 6.2941e-05
10810.0 6.272e-05
10830.0 6.2508e-05
10850.0 6.2307e-05
10870.0 6.2083e-05
10890.0 6.1846e-05
10910.0 6.1598e-05
10930.0 6.1304e-05
10950.0 6.0924e-05
10970.0 6.0459e-05
10990.0 5.9904e-05
11010.0 5.7886e-05
11030.0 5.7104e-05
11050.0 5.6222e-05
11070.0 5.5224e-05
11090.0 5.4079e-05
11110.0 5.2945e-05
11130.0 5.1808e-05
11150.0 5.0628e-05
11170.0 4.9459e-05
11190.0 4.8369e-05
11210.0 4.728e-05
11230.0 4.6197e-05
11250.0 4.5193e-05
11270.0 4.4251e-05
11290.0 4.3317e-05
11310.0 4.2438e-05
11330.0 4.1668e-05
11350.0 4.093e-05
11370.0 4.0228e-05
11390.0 3.9601e-05
11410.0 3.9026e-05
11430.0 3.8449e-05
11450.0 3.7912e-05
11470.0 3.7412e-05
11490.0 3.6905e-05
11510.0 3.6374e-05
11530.0 3.5859e-05
11550.0 3.5331e-05
11570.0 3.4749e-05
11590.0 3.4142e-05
11610.0 3.3528e-05
11630.0 3.2853e-05
11650.0 3.2122e-05
11670.0 3.1403e-05
11690.0 3.0664e-05
11710.0 2.9881e-05
11730.0 2.9102e-05
11750.0 2.8363e-05
11770.0 2.7603e-05
11790.0 2.6852e-05
11810.0 2.6157e-05
11830.0 2.5497e-05
11850.0 2.4833e-05
11870.0 2.4235e-05
11890.0 2.3699e-05
11910.0 2.3181e-05
11930.0 2.2694e-05
11950.0 2.2264e-05
11970.0 2.1859e-05
11990.0 2.146e-05
12010.0 2.1099e-05
12030.0 2.0768e-05
12050.0 2.0441e-05
12070.0 2.0121e-05
12090.0 1.9843e-05
12110.0 1.9573e-05
12130.0 1.931e-05
12150.0 1.9074e-05
12170.0 1.887e-05
12190.0 1.8674e-05
12210.0 1.8514e-05
12230.0 1.8401e-05
12250.0 1.8329e-05
12270.0 1.8303e-05
12290.0 1.8336e-05
12310.0 1.8429e-05
12330.0 1.8583e-05
12350.0 1.8803e-05
12370.0 1.9079e-05
12390.0 1.9415e-05
12410.0 1.982e-05
12430.0 2.0256e-05
12450.0 2.0722e-05
12470.0 2.1226e-05
12490.0 2.1744e-05
12510.0 2.2248e-05
12530.0 2.2759e-05
12550.0 2.3262e-05
12570.0 2.3731e-05
12590.0 2.4167e-05
12610.0 2.4581e-05
12630.0 2.4955e-05
12650.0 2.5277e-05
12670.0 2.5565e-05
12690.0 2.5814e-05
12710.0 2.602e-05
12730.0 2.6189e-05
12750.0 2.6321e-05
12770.0 2.6415e-05
12790.0 2.6477e-05
12810.0 2.6505e-05
12830.0 2.6498e-05
12850.0 2.6467e-05
12870.0 2.6409e-05
12890.0 2.6316e-05
12910.0 2.6199e-05
12930.0 2.6065e-05
12950.0 2.5896e-05
12970.0 2.5695e-05
12990.0 2.5486e-05
13010.0 2.5253e-05
13030.0 2.4986e-05
13050.0 2.4703e-05
13070.0 2.4417e-05
13090.0 2.4099e-05
13110.0 2.3763e-05
13130.0 2.3434e-05
13150.0 2.3101e-05
13170.0 2.275e-05
13190.0 2.2426e-05
13210.0 2.2132e-05
13230.0 2.1852e-05
13250.0 2.1604e-05
13270.0 2.1407e-05
13290.0 2.1249e-05
13310.0 2.113e-05
13330.0 2.1065e-05
13350.0 2.1044e-05
13370.0 2.1059e-05
13390.0 2.1107e-05
13410.0 2.1175e-05
13430.0 2.1253e-05
13450.0 2.133e-05
13470.0 2.1391e-05
13490.0 2.143e-05
13510.0 2.1434e-05
13530.0 2.1396e-05
13550.0 2.1318e-05
13570.0 2.1194e-05
13590.0 2.1021e-05
13610.0 2.0814e-05
13630.0 2.0583e-05
13650.0 2.0315e-05
13670.0 2.0031e-05
13690.0 1.9748e-05
13710.0 1.9458e-05
13730.0 1.9158e-05
13750.0 1.8884e-05
13770.0 1.8626e-05
13790.0 1.8373e-05
13810.0 1.8137e-05
13830.0 1.7927e-05
13850.0 1.7722e-05
13870.0 1.7526e-05
13890.0 1.7348e-05
13910.0 1.7179e-05
13930.0 1.701e-05
13950.0 1.6848e-05
13970.0 1.67e-05
13990.0 1.6552e-05
14010.0 1.6407e-05
14030.0 1.6272e-05
14050.0 1.6145e-05
14070.0 1.6021e-05
14090.0 1.5909e-05
14110.0 1.5809e-05
14130.0 1.5718e-05
14150.0 1.5638e-05
14170.0 1.5572e-05
14190.0 1.5517e-05
14210.0 1.5474e-05
14230.0 1.5443e-05
14250.0 1.5424e-05
14270.0 1.5418e-05
14290.0 1.5424e-05
14310.0 1.544e-05
14330.0 1.5466e-05
14350.0 1.5504e-05
14370.0 1.5548e-05
14390.0 1.5595e-05
14410.0 1.5649e-05
14430.0 1.5705e-05
14450.0 1.5756e-05
14470.0 1.5804e-05
14490.0 1.585e-05
14510.0 1.5887e-05
14530.0 1.5913e-05
14550.0 1.5936e-05
14570.0 1.5953e-05
14590.0 1.5963e-05
14610.0 1.5974e-05
14630.0 1.5988e-05
14650.0 1.6007e-05
14670.0 1.6033e-05
14690.0 1.6075e-05
14710.0 1.6136e-05
14730.0 1.621e-05
14750.0 1.6308e-05
14770.0 1.6436e-05
14790.0 1.6585e-05
14810.0 1.6752e-05
14830.0 1.6961e-05
14850.0 1.7191e-05
14870.0 1.7427e-05
14890.0 1.7682e-05
14910.0 1.7951e-05
14930.0 1.82e-05
14950.0 1.8423e-05
14970.0 1.8625e-05
14990.0 1.8778e-05
15010.0 1.8874e-05
15030.0 1.8921e-05
15050.0 1.8923e-05
15070.0 1.8879e-05
15090.0 1.8808e-05
15110.0 1.8718e-05
15130.0 1.8615e-05
15150.0 1.8506e-05
15170.0 1.8393e-05
15190.0 1.8278e-05
15210.0 1.8163e-05
15230.0 1.8048e-05
15250.0 1.7932e-05
15270.0 1.7816e-05
15290.0 1.7701e-05
15310.0 1.7586e-05
15330.0 1.7471e-05
15350.0 1.7356e-05
15370.0 1.7242e-05
15390.0 1.7126e-05
15410.0 1.7012e-05
15430.0 1.6898e-05
15450.0 1.6784e-05
15470.0 1.667e-05
15490.0 1.6557e-05
15510.0 1.6445e-05
15530.0 1.6332e-05
15550.0 1.6219e-05
15570.0 1.6108e-05
15590.0 1.5997e-05
15610.0 1.5885e-05
15630.0 1.5775e-05
15650.0 1.5665e-05
15670.0 1.5556e-05
15690.0 1.5447e-05
15710.0 1.5339e-05
15730.0 1.5231e-05
15750.0 1.5123e-05
15770.0 1.5017e-05
15790.0 1.4911e-05
15810.0 1.4805e-05
15830.0 1.47e-05
15850.0 1.4596e-05
15870.0 1.4492e-05
15890.0 1.4389e-05
15910.0 1.4287e-05
15930.0 1.4186e-05
15950.0 1.4084e-05
15970.0 1.3984e-05
15990.0 1.3884e-05
16010.0 1.3785e-05
16030.0 1.3686e-05
16050.0 1.3589e-05
16070.0 1.3493e-05
16090.0 1.3396e-05
16110.0 1.3301e-05
16130.0 1.3207e-05
16150.0 1.3113e-05
16170.0 1.3019e-05
16190.0 1.2927e-05
16210.0 1.2836e-05
16230.0 1.2744e-05
16250.0 1.2655e-05
16270.0 1.2566e-05
16290.0 1.2477e-05
16310.0 1.2389e-05
16330.0 1.2302e-05
16350.0 1.2216e-05
16370.0 1.213e-05
16390.0 1.2046e-05
16410.0 1.1962e-05
16430.0 1.1878e-05
16450.0 1.1796e-05
16470.0 1.1715e-05
16490.0 1.1634e-05
16510.0 1.1553e-05
16530.0 1.1474e-05
16550.0 1.1396e-05
16570.0 1.1318e-05
16590.0 1.1241e-05
16610.0 1.1165e-05
16630.0 1.1089e-05
16650.0 1.1014e-05
16670.0 1.0941e-05
16690.0 1.0868e-05
16710.0 1.0795e-05
16730.0 1.0723e-05
16750.0 1.0652e-05
16770.0 1.0582e-05
16790.0 1.0512e-05
16810.0 1.0444e-05
16830.0 1.0376e-05
16850.0 1.0308e-05
16870.0 1.0242e-05
16890.0 1.0176e-05
16910.0 1.0111e-05
16930.0 1.0046e-05
16950.0 9.9825e-06
16970.0 9.9197e-06
16990.0 9.8569e-06
17010.0 9.7953e-06
17030.0 9.7349e-06
17050.0 9.6742e-06
17070.0 9.6144e-06
17090.0 9.5557e-06
17110.0 9.4975e-06
17130.0 9.4392e-06
17150.0 9.3823e-06
17170.0 9.3264e-06
17190.0 9.2705e-06
17210.0 9.2153e-06
17230.0 9.1613e-06
17250.0 9.1075e-06
17270.0 9.0538e-06
17290.0 9.0014e-06
17310.0 8.9497e-06
17330.0 8.8981e-06
17350.0 8.8469e-06
17370.0 8.7973e-06
17390.0 8.7478e-06
17410.0 8.6985e-06
17430.0 8.6502e-06
17450.0 8.6028e-06
17470.0 8.555e-06
17490.0 8.508e-06
17510.0 8.4622e-06
17530.0 8.4166e-06
17550.0 8.3711e-06
17570.0 8.3268e-06
17590.0 8.2832e-06
17610.0 8.2394e-06
17630.0 8.1963e-06
17650.0 8.1542e-06
17670.0 8.1123e-06
17690.0 8.0701e-06
17710.0 8.0295e-06
17730.0 7.9894e-06
17750.0 7.9491e-06
17770.0 7.9096e-06
17790.0 7.8711e-06
17810.0 7.8324e-06
17830.0 7.794e-06
17850.0 7.7566e-06
17870.0 7.7196e-06
17890.0 7.6825e-06
17910.0 7.6461e-06
17930.0 7.6108e-06
17950.0 7.5753e-06
17970.0 7.5401e-06
17990.0 7.5059e-06
18010.0 7.472e-06
18030.0 7.4377e-06
18050.0 7.4045e-06
18070.0 7.3719e-06
18090.0 7.3393e-06
18110.0 7.3068e-06
18130.0 7.2755e-06
18150.0 7.2444e-06
18170.0 7.2131e-06
18190.0 7.1826e-06
18210.0 7.1528e-06
18230.0 7.1226e-06
18250.0 7.0927e-06
18270.0 7.064e-06
18290.0 7.0353e-06
18310.0 7.0066e-06
18330.0 6.9786e-06
18350.0 6.9513e-06
18370.0 6.9236e-06
18390.0 6.8963e-06
18410.0 6.8698e-06
18430.0 6.8435e-06
18450.0 6.8168e-06
18470.0 6.7911e-06
18490.0 6.7659e-06
18510.0 6.7406e-06
18530.0 6.7155e-06
18550.0 6.6913e-06
18570.0 6.667e-06
18590.0 6.6425e-06
18610.0 6.6189e-06
18630.0 6.5956e-06
18650.0 6.5722e-06
18670.0 6.549e-06
18690.0 6.5268e-06
18710.0 6.5044e-06
18730.0 6.482e-06
18750.0 6.4603e-06
18770.0 6.439e-06
18790.0 6.417e-06
18810.0 6.3957e-06
18830.0 6.3752e-06
18850.0 6.3545e-06
18870.0 6.3337e-06
18890.0 6.3138e-06
18910.0 6.2941e-06
18930.0 6.274e-06
18950.0 6.2544e-06
18970.0 6.2354e-06
18990.0 6.2162e-06
19010.0 6.1967e-06
19030.0 6.1784e-06
19050.0 6.1601e-06
19070.0 6.1415e-06
19090.0 6.1234e-06
19110.0 6.106e-06
19130.0 6.088e-06
19150.0 6.0702e-06
19170.0 6.0531e-06
19190.0 6.0361e-06
19210.0 6.0187e-06
19230.0 6.0018e-06
19250.0 5.9856e-06
19270.0 5.969e-06
19290.0 5.9525e-06
19310.0 5.9367e-06
19330.0 5.9209e-06
19350.0 5.9045e-06
19370.0 5.8889e-06
19390.0 5.8737e-06
19410.0 5.8582e-06
19430.0 5.8426e-06
19450.0 5.828e-06
19470.0 5.8132e-06
19490.0 5.7981e-06
19510.0 5.7835e-06
19530.0 5.7693e-06
19550.0 5.7546e-06
19570.0 5.74e-06
19590.0 5.7262e-06
19610.0 5.7123e-06
19630.0 5.6981e-06
19650.0 5.6845e-06
19670.0 5.6712e-06
19690.0 5.6573e-06
19710.0 5.6438e-06
19730.0 5.6307e-06
19750.0 5.6176e-06
19770.0 5.604e-06
19790.0 5.5911e-06
19810.0 5.5785e-06
19830.0 5.5654e-06
19850.0 5.5522e-06
19870.0 5.5392e-06
19890.0 5.5249e-06
19910.0 5.5084e-06
19930.0 5.4897e-06
19950.0 5.4668e-06
19970.0 5.4365e-06
19990.0 5.398e-06
20010.0 5.3525e-06
20030.0 5.2958e-06
20050.0 5.2281e-06
20070.0 5.1542e-06
20090.0 5.0744e-06
20110.0 4.9839e-06
20130.0 4.8926e-06
20150.0 4.8024e-06
20170.0 4.7091e-06
20190.0 4.6147e-06
20210.0 4.5256e-06
20230.0 4.4388e-06
20250.0 4.3517e-06
20270.0 4.2707e-06
20290.0 4.1968e-06
20310.0 4.1264e-06
20330.0 4.0606e-06
20350.0 4.0064e-06
20370.0 3.9587e-06
20390.0 3.9177e-06
20410.0 3.886e-06
20430.0 3.8634e-06
20450.0 3.8479e-06
20470.0 3.8412e-06
20490.0 3.8429e-06
20510.0 3.852e-06
20530.0 3.8689e-06
20550.0 3.8922e-06
20570.0 3.9202e-06
20590.0 3.9542e-06
20610.0 3.9926e-06
20630.0 4.0328e-06
20650.0 4.0756e-06
20670.0 4.1218e-06
20690.0 4.1663e-06
20710.0 4.2093e-06
20730.0 4.252e-06
20750.0 4.2924e-06
20770.0 4.3279e-06
20790.0 4.3603e-06
20810.0 4.3892e-06
20830.0 4.4126e-06
20850.0 4.4308e-06
20870.0 4.4446e-06
20890.0 4.4529e-06
20910.0 4.4561e-06
20930.0 4.4547e-06
20950.0 4.4485e-06
20970.0 4.4384e-06
20990.0 4.4248e-06
21010.0 4.4069e-06
21030.0 4.3861e-06
21050.0 4.3635e-06
21070.0 4.3382e-06
21090.0 4.3101e-06
21110.0 4.282e-06
21130.0 4.2535e-06
21150.0 4.2233e-06
21170.0 4.1934e-06
21190.0 4.1651e-06
21210.0 4.1366e-06
21230.0 4.1088e-06
21250.0 4.0842e-06
21270.0 4.0618e-06
21290.0 4.0412e-06
21310.0 4.0239e-06
21330.0 4.0106e-06
21350.0 4.0001e-06
21370.0 3.9933e-06
21390.0 3.9905e-06
21410.0 3.9914e-06
21430.0 3.9963e-06
21450.0 4.0051e-06
21470.0 4.017e-06
21490.0 4.0327e-06
21510.0 4.0518e-06
21530.0 4.073e-06
21550.0 4.0968e-06
21570.0 4.124e-06
21590.0 4.1526e-06
21610.0 4.1823e-06
21630.0 4.2145e-06
21650.0 4.2489e-06
21670.0 4.2824e-06
21690.0 4.3172e-06
21710.0 4.3539e-06
21730.0 4.3905e-06
21750.0 4.4267e-06
21770.0 4.4655e-06
21790.0 4.5046e-06
21810.0 4.5428e-06
21830.0 4.5818e-06
21850.0 4.6224e-06
21870.0 4.6623e-06
21890.0 4.7011e-06
21910.0 4.7416e-06
21930.0 4.7819e-06
21950.0 4.8205e-06
21970.0 4.8591e-06
21990.0 4.8986e-06
22010.0 4.9351e-06
22030.0 4.9697e-06
22050.0 5.0033e-06
22070.0 5.0345e-06
22090.0 5.0617e-06
22110.0 5.0864e-06
22130.0 5.1078e-06
22150.0 5.1245e-06
22170.0 5.1367e-06
22190.0 5.1443e-06
22210.0 5.1464e-06
22230.0 5.1431e-06
22250.0 5.1342e-06
22270.0 5.1191e-06
22290.0 5.0988e-06
22310.0 5.0733e-06
22330.0 5.0404e-06
22350.0 5.0025e-06
22370.0 4.9606e-06
22390.0 4.913e-06
22410.0 4.8589e-06
22430.0 4.8034e-06
22450.0 4.7449e-06
22470.0 4.6812e-06
22490.0 4.6156e-06
22510.0 4.5507e-06
22530.0 4.4816e-06
22550.0 4.4105e-06
22570.0 4.3425e-06
22590.0 4.2749e-06
22610.0 4.206e-06
