#lamb flux
1010.0 3.8591e-06
1030.0 3.8591e-06
1050.0 3.8591e-06
1070.0 3.8591e-06
1090.0 3.8591e-06
1110.0 3.8591e-06
1130.0 3.8591e-06
1150.0 3.8591e-06
1170.0 3.8591e-06
1190.0 3.8591e-06
1210.0 3.8591e-06
1230.0 3.8591e-06
1250.0 3.8591e-06
1270.0 3.8591e-06
1290.0 3.8591e-06
1310.0 3.8591e-06
1330.0 3.8591e-06
1350.0 3.8591e-06
1370.0 3.8591e-06
1390.0 3.8591e-06
1410.0 3.8591e-06
1430.0 3.8591e-06
1450.0 3.8591e-06
1470.0 3.8591e-06
1490.0 3.8591e-06
1510.0 3.8591e-06
1530.0 3.8632e-06
1550.0 4.583e-06
1570.0 5.3745e-06
1590.0 6.2396e-06
1610.0 7.1689e-06
1630.0 8.165e-06
1650.0 9.2632e-06
1670.0 1.0457e-05
1690.0 1.1761e-05
1710.0 1.3203e-05
1730.0 1.4784e-05
1750.0 1.6487e-05
1770.0 1.8355e-05
1790.0 2.0393e-05
1810.0 2.2583e-05
1830.0 2.4929e-05
1850.0 2.7477e-05
1870.0 3.0176e-05
1890.0 3.3007e-05
1910.0 3.5994e-05
1930.0 3.9128e-05
1950.0 4.2333e-05
1970.0 4.5607e-05
1990.0 4.8966e-05
2010.0 5.2335e-05
2030.0 5.5655e-05
2050.0 5.8958e-05
2070.0 6.2208e-05
2090.0 6.5278e-05
2110.0 6.8192e-05
2130.0 7.0959e-05
2150.0 7.3495e-05
2170.0 7.5747e-05
2190.0 7.7792e-05
2210.0 7.9582e-05
2230.0 8.1051e-05
2250.0 8.2241e-05
2270.0 8.3215e-05
2290.0 8.3885e-05
2310.0 8.4253e-05
2330.0 8.4421e-05
2350.0 8.4378e-05
2370.0 8.4089e-05
2390.0 8.3639e-05
2410.0 8.3096e-05
2430.0 8.24e-05
2450.0 8.1594e-05
2470.0 8.0768e-05
2490.0 7.9957e-05
2510.0 7.9144e-05
2530.0 7.8555e-05
2550.0 7.8484e-05
2570.0 7.9187e-05
2590.0 8.0992e-05
2610.0 8.4778e-05
2630.0 9.0714e-05
2650.0 9.8434e-05
2670.0 0.00010819
2690.0 0.00011988
2710.0 0.00013212
2730.0 0.0001444
2750.0 0.00015744
2770.0 0.00017037
2790.0 0.00018281
2810.0 0.00019558
2830.0 0.00020941
2850.0 0.00022283
2870.0 0.00023661
2890.0 0.00025145
2910.0 0.00026688
2930.0 0.00028231
2950.0 0.00029897
2970.0 0.00031674
2990.0 0.00033479
3010.0 0.00035352
3030.0 0.00037366
3050.0 0.00039451
3070.0 0.00041489
3090.0 0.00043566
3110.0 0.00045572
3130.0 0.00047348
3150.0 0.00048833
3170.0 0.00049958
3190.0 0.00050617
3210.0 0.00050811
3230.0 0.00050736
3250.0 0.0005101
3270.0 0.00052018
3290.0 0.00053657
3310.0 0.00055802
3330.0 0.00058447
3350.0 0.00061433
3370.0 0.00064757
3390.0 0.0006841
3410.0 0.00072018
3430.0 0.00078534
3450.0 0.00083469
3470.0 0.00088299
3490.0 0.00090144
3510.0 0.00088586
3530.0 0.00099204
3550.0 0.0011895
3570.0 0.0013077
3590.0 0.0013671
3610.0 0.0013803
3630.0 0.0013273
3650.0 0.0014334
3670.0 0.0017136
3690.0 0.0019279
3710.0 0.0020264
3730.0 0.0020964
3750.0 0.0021936
3770.0 0.0021883
3790.0 0.002092
3810.0 0.0019655
3830.0 0.0018267
3850.0 0.0018151
3870.0 0.0019472
3890.0 0.0020829
3910.0 0.0021847
3930.0 0.002229
3950.0 0.0023943
3970.0 0.0025602
3990.0 0.0024552
4010.0 0.0021805
4030.0 0.0019219
4050.0 0.0018384
4070.0 0.0019028
4090.0 0.0019191
4110.0 0.0018727
4130.0 0.0018437
4150.0 0.0018747
4170.0 0.0020586
4190.0 0.002252
4210.0 0.002208
4230.0 0.0020747
4250.0 0.0020086
4270.0 0.0019826
4290.0 0.0020394
4310.0 0.0021116
4330.0 0.0020113
4350.0 0.0017579
4370.0 0.0015482
4390.0 0.0014032
4410.0 0.0012806
4430.0 0.0012731
4450.0 0.0013816
4470.0 0.0014836
4490.0 0.0016183
4510.0 0.0018441
4530.0 0.0022973
4550.0 0.0028442
4570.0 0.0031707
4590.0 0.0033854
4610.0 0.0036786
4630.0 0.0038591
4650.0 0.003602
4670.0 0.0029773
4690.0 0.0024781
4710.0 0.0022931
4730.0 0.0022265
4750.0 0.0020245
4770.0 0.0018579
4790.0 0.0019408
4810.0 0.0021144
4830.0 0.0021226
4850.0 0.0019776
4870.0 0.0019134
4890.0 0.0020189
4910.0 0.002136
4930.0 0.0021444
4950.0 0.0020744
4970.0 0.0019607
4990.0 0.0017887
5010.0 0.0016287
5030.0 0.001534
5050.0 0.0014909
5070.0 0.0014591
5090.0 0.0014254
5110.0 0.0014198
5130.0 0.0014355
5150.0 0.0015126
5170.0 0.0016782
5190.0 0.0018802
5210.0 0.0021052
5230.0 0.0022451
5250.0 0.0023151
5270.0 0.0024397
5290.0 0.0025737
5310.0 0.0026155
5330.0 0.0025134
5350.0 0.0023826
5370.0 0.002378
5390.0 0.0025307
5410.0 0.0027
5430.0 0.0027848
5450.0 0.0027856
5470.0 0.002706
5490.0 0.002596
5510.0 0.002531
5530.0 0.0025289
5550.0 0.0025573
5570.0 0.0025749
5590.0 0.0025025
5610.0 0.0023679
5630.0 0.002215
5650.0 0.0020777
5670.0 0.0019944
5690.0 0.0019246
5710.0 0.0018743
5730.0 0.0018952
5750.0 0.0018856
5770.0 0.0018437
5790.0 0.0018539
5810.0 0.0018819
5830.0 0.0019128
5850.0 0.0019263
5870.0 0.0018873
5890.0 0.0018046
5910.0 0.0017014
5930.0 0.0015491
5950.0 0.0014345
5970.0 0.0014186
5990.0 0.0014672
6010.0 0.0014935
6030.0 0.0014422
6050.0 0.0014074
6070.0 0.0014613
6090.0 0.0015541
6110.0 0.001602
6130.0 0.0015561
6150.0 0.0014664
6170.0 0.0014034
6190.0 0.0013402
6210.0 0.0012653
6230.0 0.0011997
6250.0 0.0011738
6270.0 0.0012036
6290.0 0.0012571
6310.0 0.0013317
6330.0 0.0014238
6350.0 0.0015121
6370.0 0.0015579
6390.0 0.0015664
6410.0 0.001581
6430.0 0.0015974
6450.0 0.001608
6470.0 0.001635
6490.0 0.0016655
6510.0 0.0016805
6530.0 0.0016704
6550.0 0.0016313
6570.0 0.0015718
6590.0 0.0015133
6610.0 0.0014715
6630.0 0.001442
6650.0 0.0013946
6670.0 0.0013336
6690.0 0.001285
6710.0 0.0012571
6730.0 0.0012477
6750.0 0.0012307
6770.0 0.0012052
6790.0 0.001186
6810.0 0.0011674
6830.0 0.00116
6850.0 0.0011703
6870.0 0.0011711
6890.0 0.0011613
6910.0 0.0011353
6930.0 0.0011089
6950.0 0.0010959
6970.0 0.0010681
6990.0 0.0010302
7010.0 0.0010138
7030.0 0.0010035
7050.0 0.0009781
7070.0 0.00094403
7090.0 0.00092525
7110.0 0.00094011
7130.0 0.00098722
7150.0 0.0010406
7170.0 0.0010749
7190.0 0.0010656
7210.0 0.0010341
7230.0 0.0010145
7250.0 0.0010052
7270.0 0.0010004
7290.0 0.00099003
7310.0 0.00099
7330.0 0.0010132
7350.0 0.001043
7370.0 0.0010606
7390.0 0.001053
7410.0 0.0010266
7430.0 0.0010052
7450.0 0.0009826
7470.0 0.00093289
7490.0 0.00089929
7510.0 0.0008666
7530.0 0.00084431
7550.0 0.00084682
7570.0 0.00085709
7590.0 0.00085767
7610.0 0.00085177
7630.0 0.00084844
7650.0 0.0008483
7670.0 0.00086658
7690.0 0.00089535
7710.0 0.00093178
7730.0 0.00095789
7750.0 0.00098733
7770.0 0.0010043
7790.0 0.001008
7810.0 0.0010008
7830.0 0.0010078
7850.0 0.0010004
7870.0 0.00096245
7890.0 0.00092295
7910.0 0.0008936
7930.0 0.000867
7950.0 0.00084589
7970.0 0.00083981
7990.0 0.00084866
8010.0 0.00082877
8030.0 0.00081958
8050.0 0.00080691
8070.0 0.00079216
8090.0 0.00077698
8110.0 0.00077735
8130.0 0.00078265
8150.0 0.0007805
8170.0 0.00077495
8190.0 0.00075678
8210.0 0.00071542
8230.0 0.00066713
8250.0 0.00063821
8270.0 0.00061836
8290.0 0.00060258
8310.0 0.00059997
8330.0 0.00060512
8350.0 0.00059105
8370.0 0.00057929
8390.0 0.00059325
8410.0 0.00062433
8430.0 0.00066711
8450.0 0.00071013
8470.0 0.00073118
8490.0 0.00074857
8510.0 0.00075779
8530.0 0.00076749
8550.0 0.00077958
8570.0 0.00078663
8590.0 0.00079343
8610.0 0.00081511
8630.0 0.0008243
8650.0 0.00080767
8670.0 0.00080788
8690.0 0.00081718
8710.0 0.00082227
8730.0 0.00081737
8750.0 0.00079596
8770.0 0.00078682
8790.0 0.00078217
8810.0 0.0007715
8830.0 0.00072436
8850.0 0.00066384
8870.0 0.00062027
8890.0 0.00059668
8910.0 0.00056306
8930.0 0.00052401
8950.0 0.00050153
8970.0 0.00049847
8990.0 0.00050234
9010.0 0.00050096
9030.0 0.0004974
9050.0 0.00049408
9070.0 0.00049114
9090.0 0.00048826
9110.0 0.00048541
9130.0 0.00048256
9150.0 0.00047973
9170.0 0.00047691
9190.0 0.0004741
9210.0 0.00047128
9230.0 0.00046851
9250.0 0.00046575
9270.0 0.000463
9290.0 0.00046026
9310.0 0.00045754
9330.0 0.00045483
9350.0 0.00045213
9370.0 0.00044945
9390.0 0.00044678
9410.0 0.00044412
9430.0 0.00044145
9450.0 0.00043866
9470.0 0.00043593
9490.0 0.0004335
9510.0 0.00043098
9530.0 0.00042847
9550.0 0.00042593
9570.0 0.0004234
9590.0 0.00042089
9610.0 0.00041838
9630.0 0.00041588
9650.0 0.00041339
9670.0 0.00041094
9690.0 0.00040847
9710.0 0.00040602
9730.0 0.0004036
9750.0 0.00040118
9770.0 0.00039876
9790.0 0.00039636
9810.0 0.00039398
9830.0 0.00039156
9850.0 0.00038894
9870.0 0.00038665
9890.0 0.0003844
9910.0 0.00038211
9930.0 0.0003798
9950.0 0.00037755
9970.0 0.00037524
9990.0 0.00037288
10010.0 0.00037028
10030.0 0.00036787
10050.0 0.00036575
10070.0 0.0003636
10090.0 0.00036145
10110.0 0.0003591
10130.0 0.00035615
10150.0 0.00035403
10170.0 0.00035205
10190.0 0.0003499
10210.0 0.00034779
10230.0 0.00034566
10250.0 0.00034341
10270.0 0.00034117
10290.0 0.000339
10310.0 0.00033674
10330.0 0.0003344
10350.0 0.00033218
10370.0 0.00032997
10390.0 0.00032767
10410.0 0.00032538
10430.0 0.0003232
10450.0 0.00032093
10470.0 0.00031861
10490.0 0.00031637
10510.0 0.00031414
10530.0 0.00031176
10550.0 0.00030945
10570.0 0.00030722
10590.0 0.00030491
10610.0 0.00030255
10630.0 0.00030028
10650.0 0.000298
10670.0 0.0002956
10690.0 0.00029325
10710.0 0.00029095
10730.0 0.00028857
10750.0 0.0002861
10770.0 0.00028379
10790.0 0.00028144
10810.0 0.00027899
10830.0 0.00027659
10850.0 0.00027426
10870.0 0.00027177
10890.0 0.00026929
10910.0 0.00026691
10930.0 0.00026452
10950.0 0.00026206
10970.0 0.00025969
10990.0 0.00025746
11010.0 0.00025739
11030.0 0.00025522
11050.0 0.00025315
11070.0 0.00025109
11090.0 0.00024894
11110.0 0.00024691
11130.0 0.00024494
11150.0 0.00024293
11170.0 0.00024096
11190.0 0.00023915
11210.0 0.00023736
11230.0 0.00023562
11250.0 0.00023403
11270.0 0.00023256
11290.0 0.00023114
11310.0 0.00022981
11330.0 0.00022865
11350.0 0.00022754
11370.0 0.00022647
11390.0 0.00022549
11410.0 0.00022456
11430.0 0.00022359
11450.0 0.00022263
11470.0 0.00022169
11490.0 0.00022069
11510.0 0.0002196
11530.0 0.00021848
11550.0 0.0002173
11570.0 0.00021598
11590.0 0.00021457
11610.0 0.0002131
11630.0 0.00021146
11650.0 0.00020967
11670.0 0.00020784
11690.0 0.00020591
11710.0 0.0002038
11730.0 0.00020162
11750.0 0.00019943
11770.0 0.00019709
11790.0 0.00019465
11810.0 0.00019222
11830.0 0.00018975
11850.0 0.00018713
11870.0 0.00018455
11890.0 0.00018205
11910.0 0.00017949
11930.0 0.00017692
11950.0 0.00017448
11970.0 0.00017207
11990.0 0.00016963
12010.0 0.00016733
12030.0 0.00016514
12050.0 0.00016298
12070.0 0.00016088
12090.0 0.00015898
12110.0 0.00015716
12130.0 0.00015539
12150.0 0.00015378
12170.0 0.00015231
12190.0 0.0001509
12210.0 0.00014963
12230.0 0.00014854
12250.0 0.00014758
12270.0 0.00014675
12290.0 0.00014608
12310.0 0.00014556
12330.0 0.00014517
12350.0 0.0001449
12370.0 0.00014475
12390.0 0.00014468
12410.0 0.00014471
12430.0 0.00014479
12450.0 0.0001449
12470.0 0.00014505
12490.0 0.00014519
12510.0 0.0001453
12530.0 0.00014539
12550.0 0.00014544
12570.0 0.00014541
12590.0 0.00014529
12610.0 0.00014509
12630.0 0.00014477
12650.0 0.00014434
12670.0 0.00014378
12690.0 0.00014309
12710.0 0.00014229
12730.0 0.00014138
12750.0 0.00014031
12770.0 0.00013915
12790.0 0.00013792
12810.0 0.0001366
12830.0 0.00013518
12850.0 0.00013376
12870.0 0.00013231
12890.0 0.0001308
12910.0 0.0001293
12930.0 0.00012785
12950.0 0.00012635
12970.0 0.00012486
12990.0 0.00012344
13010.0 0.00012205
13030.0 0.00012065
13050.0 0.0001193
13070.0 0.00011802
13090.0 0.00011674
13110.0 0.00011548
13130.0 0.0001143
13150.0 0.00011315
13170.0 0.00011201
13190.0 0.00011094
13210.0 0.00010995
13230.0 0.00010898
13250.0 0.00010806
13270.0 0.00010722
13290.0 0.00010641
13310.0 0.00010561
13330.0 0.00010487
13350.0 0.00010417
13370.0 0.00010346
13390.0 0.00010276
13410.0 0.00010209
13430.0 0.00010141
13450.0 0.0001007
13470.0 9.999e-05
13490.0 9.9274e-05
13510.0 9.85e-05
13530.0 9.7708e-05
13550.0 9.6916e-05
13570.0 9.6093e-05
13590.0 9.5229e-05
13610.0 9.437e-05
13630.0 9.3517e-05
13650.0 9.2622e-05
13670.0 9.1725e-05
13690.0 9.0852e-05
13710.0 8.9965e-05
13730.0 8.9041e-05
13750.0 8.8165e-05
13770.0 8.7299e-05
13790.0 8.6411e-05
13810.0 8.5531e-05
13830.0 8.4689e-05
13850.0 8.3826e-05
13870.0 8.2954e-05
13890.0 8.2115e-05
13910.0 8.1292e-05
13930.0 8.0447e-05
13950.0 7.9617e-05
13970.0 7.8839e-05
13990.0 7.8051e-05
14010.0 7.7264e-05
14030.0 7.6514e-05
14050.0 7.5782e-05
14070.0 7.5024e-05
14090.0 7.4298e-05
14110.0 7.3604e-05
14130.0 7.2906e-05
14150.0 7.2207e-05
14170.0 7.1554e-05
14190.0 7.0919e-05
14210.0 7.0281e-05
14230.0 6.9675e-05
14250.0 6.9109e-05
14270.0 6.8547e-05
14290.0 6.8003e-05
14310.0 6.7513e-05
14330.0 6.7047e-05
14350.0 6.6595e-05
14370.0 6.6178e-05
14390.0 6.5799e-05
14410.0 6.5426e-05
14430.0 6.5073e-05
14450.0 6.475e-05
14470.0 6.4442e-05
14490.0 6.4131e-05
14510.0 6.3844e-05
14530.0 6.3573e-05
14550.0 6.3298e-05
14570.0 6.3024e-05
14590.0 6.2763e-05
14610.0 6.2496e-05
14630.0 6.2216e-05
14650.0 6.1945e-05
14670.0 6.1681e-05
14690.0 6.1412e-05
14710.0 6.1151e-05
14730.0 6.0927e-05
14750.0 6.0725e-05
14770.0 6.0558e-05
14790.0 6.0449e-05
14810.0 6.0404e-05
14830.0 6.043e-05
14850.0 6.0546e-05
14870.0 6.0748e-05
14890.0 6.104e-05
14910.0 6.1421e-05
14930.0 6.1852e-05
14950.0 6.2309e-05
14970.0 6.2786e-05
14990.0 6.3229e-05
15010.0 6.361e-05
15030.0 6.3931e-05
15050.0 6.4185e-05
15070.0 6.4367e-05
15090.0 6.4503e-05
15110.0 6.4606e-05
15130.0 6.4688e-05
15150.0 6.4762e-05
15170.0 6.483e-05
15190.0 6.4896e-05
15210.0 6.4965e-05
15230.0 6.5037e-05
15250.0 6.5108e-05
15270.0 6.5182e-05
15290.0 6.5261e-05
15310.0 6.5341e-05
15330.0 6.5422e-05
15350.0 6.5507e-05
15370.0 6.5594e-05
15390.0 6.5681e-05
15410.0 6.5772e-05
15430.0 6.5866e-05
15450.0 6.596e-05
15470.0 6.6056e-05
15490.0 6.6156e-05
15510.0 6.6258e-05
15530.0 6.636e-05
15550.0 6.6465e-05
15570.0 6.6574e-05
15590.0 6.6682e-05
15610.0 6.6791e-05
15630.0 6.6904e-05
15650.0 6.7019e-05
15670.0 6.7134e-05
15690.0 6.7252e-05
15710.0 6.7373e-05
15730.0 6.7493e-05
15750.0 6.7615e-05
15770.0 6.774e-05
15790.0 6.7866e-05
15810.0 6.7991e-05
15830.0 6.812e-05
15850.0 6.8251e-05
15870.0 6.8382e-05
15890.0 6.8514e-05
15910.0 6.865e-05
15930.0 6.8785e-05
15950.0 6.892e-05
15970.0 6.9058e-05
15990.0 6.9197e-05
16010.0 6.9336e-05
16030.0 6.9475e-05
16050.0 6.9619e-05
16070.0 6.9762e-05
16090.0 6.9905e-05
16110.0 7.0049e-05
16130.0 7.0196e-05
16150.0 7.034e-05
16170.0 7.0486e-05
16190.0 7.0635e-05
16210.0 7.0783e-05
16230.0 7.093e-05
16250.0 7.108e-05
16270.0 7.1231e-05
16290.0 7.138e-05
16310.0 7.153e-05
16330.0 7.1682e-05
16350.0 7.1833e-05
16370.0 7.1981e-05
16390.0 7.2134e-05
16410.0 7.2286e-05
16430.0 7.2437e-05
16450.0 7.2588e-05
16470.0 7.2742e-05
16490.0 7.2893e-05
16510.0 7.3043e-05
16530.0 7.3195e-05
16550.0 7.3347e-05
16570.0 7.3495e-05
16590.0 7.3645e-05
16610.0 7.3797e-05
16630.0 7.3946e-05
16650.0 7.4094e-05
16670.0 7.4244e-05
16690.0 7.4393e-05
16710.0 7.4538e-05
16730.0 7.4684e-05
16750.0 7.4832e-05
16770.0 7.4976e-05
16790.0 7.5118e-05
16810.0 7.5263e-05
16830.0 7.5406e-05
16850.0 7.5546e-05
16870.0 7.5686e-05
16890.0 7.5827e-05
16910.0 7.5963e-05
16930.0 7.6098e-05
16950.0 7.6234e-05
16970.0 7.6369e-05
16990.0 7.6499e-05
17010.0 7.6631e-05
17030.0 7.6762e-05
17050.0 7.6889e-05
17070.0 7.7014e-05
17090.0 7.7139e-05
17110.0 7.7262e-05
17130.0 7.738e-05
17150.0 7.75e-05
17170.0 7.7619e-05
17190.0 7.7733e-05
17210.0 7.7845e-05
17230.0 7.7958e-05
17250.0 7.8067e-05
17270.0 7.8171e-05
17290.0 7.8276e-05
17310.0 7.838e-05
17330.0 7.8478e-05
17350.0 7.8574e-05
17370.0 7.8671e-05
17390.0 7.8764e-05
17410.0 7.8852e-05
17430.0 7.894e-05
17450.0 7.9027e-05
17470.0 7.9106e-05
17490.0 7.9184e-05
17510.0 7.9262e-05
17530.0 7.9335e-05
17550.0 7.9404e-05
17570.0 7.9473e-05
17590.0 7.9539e-05
17610.0 7.9599e-05
17630.0 7.9657e-05
17650.0 7.9714e-05
17670.0 7.9766e-05
17690.0 7.9812e-05
17710.0 7.9859e-05
17730.0 7.9903e-05
17750.0 7.9941e-05
17770.0 7.9976e-05
17790.0 8.0011e-05
17810.0 8.0039e-05
17830.0 8.0063e-05
17850.0 8.0085e-05
17870.0 8.0105e-05
17890.0 8.0117e-05
17910.0 8.0127e-05
17930.0 8.0137e-05
17950.0 8.014e-05
17970.0 8.0139e-05
17990.0 8.0137e-05
18010.0 8.013e-05
18030.0 8.0116e-05
18050.0 8.01e-05
18070.0 8.0083e-05
18090.0 8.0059e-05
18110.0 8.003e-05
18130.0 8.0001e-05
18150.0 7.9967e-05
18170.0 7.9926e-05
18190.0 7.9883e-05
18210.0 7.9838e-05
18230.0 7.9786e-05
18250.0 7.9728e-05
18270.0 7.9671e-05
18290.0 7.9608e-05
18310.0 7.9539e-05
18330.0 7.9468e-05
18350.0 7.9394e-05
18370.0 7.9313e-05
18390.0 7.9228e-05
18410.0 7.9141e-05
18430.0 7.9049e-05
18450.0 7.895e-05
18470.0 7.885e-05
18490.0 7.8747e-05
18510.0 7.8637e-05
18530.0 7.8523e-05
18550.0 7.8408e-05
18570.0 7.8286e-05
18590.0 7.8158e-05
18610.0 7.8029e-05
18630.0 7.7896e-05
18650.0 7.7756e-05
18670.0 7.7613e-05
18690.0 7.7469e-05
18710.0 7.7318e-05
18730.0 7.7162e-05
18750.0 7.7004e-05
18770.0 7.6844e-05
18790.0 7.6674e-05
18810.0 7.6502e-05
18830.0 7.6329e-05
18850.0 7.615e-05
18870.0 7.5965e-05
18890.0 7.578e-05
18910.0 7.5591e-05
18930.0 7.5394e-05
18950.0 7.5195e-05
18970.0 7.4995e-05
18990.0 7.4788e-05
19010.0 7.4575e-05
19030.0 7.4363e-05
19050.0 7.4146e-05
19070.0 7.3924e-05
19090.0 7.3699e-05
19110.0 7.3473e-05
19130.0 7.3239e-05
19150.0 7.3002e-05
19170.0 7.2764e-05
19190.0 7.2522e-05
19210.0 7.2274e-05
19230.0 7.2024e-05
19250.0 7.1773e-05
19270.0 7.1516e-05
19290.0 7.1256e-05
19310.0 7.0994e-05
19330.0 7.0729e-05
19350.0 7.0457e-05
19370.0 7.0185e-05
19390.0 6.9911e-05
19410.0 6.9632e-05
19430.0 6.9349e-05
19450.0 6.9067e-05
19470.0 6.8781e-05
19490.0 6.8489e-05
19510.0 6.8197e-05
19530.0 6.7903e-05
19550.0 6.7603e-05
19570.0 6.7301e-05
19590.0 6.6999e-05
19610.0 6.6694e-05
19630.0 6.6384e-05
19650.0 6.6074e-05
19670.0 6.5763e-05
19690.0 6.5446e-05
19710.0 6.5128e-05
19730.0 6.481e-05
19750.0 6.4488e-05
19770.0 6.4161e-05
19790.0 6.3836e-05
19810.0 6.3509e-05
19830.0 6.3177e-05
19850.0 6.2842e-05
19870.0 6.2503e-05
19890.0 6.2152e-05
19910.0 6.178e-05
19930.0 6.1384e-05
19950.0 6.0949e-05
19970.0 6.0451e-05
19990.0 5.9881e-05
20010.0 5.925e-05
20030.0 5.8528e-05
20050.0 5.772e-05
20070.0 5.6865e-05
20090.0 5.597e-05
20110.0 5.4999e-05
20130.0 5.4032e-05
20150.0 5.3081e-05
20170.0 5.2115e-05
20190.0 5.1147e-05
20210.0 5.0224e-05
20230.0 4.9318e-05
20250.0 4.8408e-05
20270.0 4.7538e-05
20290.0 4.6712e-05
20310.0 4.59e-05
20330.0 4.5104e-05
20350.0 4.4378e-05
20370.0 4.368e-05
20390.0 4.3005e-05
20410.0 4.2375e-05
20430.0 4.1792e-05
20450.0 4.1227e-05
20470.0 4.0699e-05
20490.0 4.0216e-05
20510.0 3.9764e-05
20530.0 3.9337e-05
20550.0 3.8946e-05
20570.0 3.8586e-05
20590.0 3.8247e-05
20610.0 3.7932e-05
20630.0 3.7639e-05
20650.0 3.7364e-05
20670.0 3.7103e-05
20690.0 3.6856e-05
20710.0 3.6619e-05
20730.0 3.6388e-05
20750.0 3.616e-05
20770.0 3.5933e-05
20790.0 3.5704e-05
20810.0 3.547e-05
20830.0 3.5228e-05
20850.0 3.4978e-05
20870.0 3.4715e-05
20890.0 3.4438e-05
20910.0 3.4149e-05
20930.0 3.3844e-05
20950.0 3.3521e-05
20970.0 3.3185e-05
20990.0 3.2836e-05
21010.0 3.2466e-05
21030.0 3.2082e-05
21050.0 3.1691e-05
21070.0 3.1285e-05
21090.0 3.0862e-05
21110.0 3.0439e-05
21130.0 3.0012e-05
21150.0 2.9573e-05
21170.0 2.9133e-05
21190.0 2.8699e-05
21210.0 2.8257e-05
21230.0 2.7813e-05
21250.0 2.7382e-05
21270.0 2.6956e-05
21290.0 2.6529e-05
21310.0 2.6111e-05
21330.0 2.571e-05
21350.0 2.5311e-05
21370.0 2.4919e-05
21390.0 2.4544e-05
21410.0 2.4179e-05
21430.0 2.3814e-05
21450.0 2.3466e-05
21470.0 2.3133e-05
21490.0 2.2805e-05
21510.0 2.2485e-05
21530.0 2.218e-05
21550.0 2.1883e-05
21570.0 2.159e-05
21590.0 2.1308e-05
21610.0 2.1035e-05
21630.0 2.0767e-05
21650.0 2.0502e-05
21670.0 2.0249e-05
21690.0 2e-05
21710.0 1.9753e-05
21730.0 1.9512e-05
21750.0 1.9276e-05
21770.0 1.9039e-05
21790.0 1.8805e-05
21810.0 1.8575e-05
21830.0 1.8346e-05
21850.0 1.8115e-05
21870.0 1.7886e-05
21890.0 1.766e-05
21910.0 1.743e-05
21930.0 1.72e-05
21950.0 1.6971e-05
21970.0 1.6741e-05
21990.0 1.6506e-05
22010.0 1.6274e-05
22030.0 1.6043e-05
22050.0 1.5809e-05
22070.0 1.5573e-05
22090.0 1.5343e-05
22110.0 1.511e-05
22130.0 1.4875e-05
22150.0 1.4644e-05
22170.0 1.4416e-05
22190.0 1.4184e-05
22210.0 1.3955e-05
22230.0 1.3732e-05
22250.0 1.3509e-05
22270.0 1.3286e-05
22290.0 1.3068e-05
22310.0 1.2853e-05
22330.0 1.2636e-05
22350.0 1.2422e-05
22370.0 1.2213e-05
22390.0 1.2004e-05
22410.0 1.1794e-05
22430.0 1.159e-05
22450.0 1.1388e-05
22470.0 1.1183e-05
22490.0 1.0982e-05
22510.0 1.0784e-05
22530.0 1.0585e-05
22550.0 1.0385e-05
22570.0 1.019e-05
22590.0 9.9974e-06
22610.0 9.8034e-06
22630.0 9.6129e-06
22650.0 9.4287e-06
22670.0 9.2442e-06
22690.0 9.062e-06
22710.0 8.8865e-06
22730.0 8.715e-06
22750.0 8.5437e-06
22770.0 8.3803e-06
22790.0 8.224e-06
22810.0 8.071e-06
22830.0 7.9233e-06
22850.0 7.7839e-06
