#lamb flux
1010.0 2.4501e-06
1030.0 2.6915e-06
1050.0 2.9692e-06
1070.0 3.2818e-06
1090.0 3.6369e-06
1110.0 4.0011e-06
1130.0 4.3676e-06
1150.0 4.7515e-06
1170.0 5.1476e-06
1190.0 5.5231e-06
1210.0 5.9037e-06
1230.0 6.297e-06
1250.0 6.6823e-06
1270.0 7.0565e-06
1290.0 7.4519e-06
1310.0 7.847e-06
1330.0 8.2259e-06
1350.0 8.609e-06
1370.0 9.0045e-06
1390.0 9.3901e-06
1410.0 9.7642e-06
1430.0 1.0155e-05
1450.0 1.0546e-05
1470.0 1.0924e-05
1490.0 1.1306e-05
1510.0 1.1709e-05
1530.0 1.2091e-05
1550.0 1.2468e-05
1570.0 1.2858e-05
1590.0 1.3248e-05
1610.0 1.362e-05
1630.0 1.4004e-05
1650.0 1.4398e-05
1670.0 1.4779e-05
1690.0 1.5154e-05
1710.0 1.5544e-05
1730.0 1.5935e-05
1750.0 1.6303e-05
1770.0 1.6681e-05
1790.0 1.7065e-05
1810.0 1.7437e-05
1830.0 1.7801e-05
1850.0 1.8187e-05
1870.0 1.8562e-05
1890.0 1.8922e-05
1910.0 1.9288e-05
1930.0 1.9661e-05
1950.0 2.0014e-05
1970.0 2.036e-05
1990.0 2.0718e-05
2010.0 2.1066e-05
2030.0 2.1397e-05
2050.0 2.1735e-05
2070.0 2.2078e-05
2090.0 2.2395e-05
2110.0 2.2705e-05
2130.0 2.302e-05
2150.0 2.3321e-05
2170.0 2.36e-05
2190.0 2.3884e-05
2210.0 2.4162e-05
2230.0 2.4417e-05
2250.0 2.4661e-05
2270.0 2.4911e-05
2290.0 2.5139e-05
2310.0 2.5342e-05
2330.0 2.5544e-05
2350.0 2.5737e-05
2370.0 2.5905e-05
2390.0 2.6068e-05
2410.0 2.6241e-05
2430.0 2.6404e-05
2450.0 2.6567e-05
2470.0 2.6765e-05
2490.0 2.7024e-05
2510.0 2.7349e-05
2530.0 2.7865e-05
2550.0 2.8762e-05
2570.0 3.021e-05
2590.0 3.2409e-05
2610.0 3.5923e-05
2630.0 4.0814e-05
2650.0 4.6742e-05
2670.0 5.3718e-05
2690.0 6.1407e-05
2710.0 6.8678e-05
2730.0 7.5029e-05
2750.0 8.0584e-05
2770.0 8.4809e-05
2790.0 8.7721e-05
2810.0 8.9797e-05
2830.0 9.1378e-05
2850.0 9.2424e-05
2870.0 9.327e-05
2890.0 9.4109e-05
2910.0 9.4904e-05
2930.0 9.5584e-05
2950.0 9.6323e-05
2970.0 9.709e-05
2990.0 9.7763e-05
3010.0 0.00097327
3030.0 0.00098001
3050.0 0.00098627
3070.0 0.0009906
3090.0 0.00099402
3110.0 0.00099511
3130.0 0.00099204
3150.0 0.00098428
3170.0 0.0009709
3190.0 0.00095222
3210.0 0.00093064
3230.0 0.00090846
3250.0 0.00088702
3270.0 0.00087586
3290.0 0.00086979
3310.0 0.0008813
3330.0 0.00090051
3350.0 0.00092769
3370.0 0.00096361
3390.0 0.0010067
3410.0 0.0010517
3430.0 0.0011001
3450.0 0.0011529
3470.0 0.0012072
3490.0 0.0012616
3510.0 0.0013193
3530.0 0.0013785
3550.0 0.0014405
3570.0 0.0015077
3590.0 0.001578
3610.0 0.001657
3630.0 0.0017275
3650.0 0.001798
3670.0 0.0018547
3690.0 0.0018957
3710.0 0.0019197
3730.0 0.0019182
3750.0 0.001918
3770.0 0.0019285
3790.0 0.0019851
3810.0 0.0021036
3830.0 0.0022623
3850.0 0.0024896
3870.0 0.0027933
3890.0 0.0031358
3910.0 0.0034845
3930.0 0.0037688
3950.0 0.003946
3970.0 0.0035175
3990.0 0.0027334
4010.0 0.0026367
4030.0 0.0031999
4050.0 0.0037176
4070.0 0.0032819
4090.0 0.0022746
4110.0 0.0023671
4130.0 0.0029894
4150.0 0.003293
4170.0 0.0029242
4190.0 0.002619
4210.0 0.0031547
4230.0 0.0034239
4250.0 0.0033483
4270.0 0.003408
4290.0 0.0031965
4310.0 0.0034441
4330.0 0.003939
4350.0 0.0046226
4370.0 0.0047917
4390.0 0.0045789
4410.0 0.0039402
4430.0 0.003219
4450.0 0.0025135
4470.0 0.0025657
4490.0 0.0028648
4510.0 0.0037208
4530.0 0.0039417
4550.0 0.003986
4570.0 0.0045977
4590.0 0.0059062
4610.0 0.0081272
4630.0 0.009778
4650.0 0.0097478
4670.0 0.0099988
4690.0 0.010961
4710.0 0.010803
4730.0 0.008644
4750.0 0.0062257
4770.0 0.0051939
4790.0 0.0047819
4810.0 0.0044246
4830.0 0.0046702
4850.0 0.005428
4870.0 0.0067354
4890.0 0.0071255
4910.0 0.0061448
4930.0 0.0061586
4950.0 0.0076085
4970.0 0.0098783
4990.0 0.011545
5010.0 0.011543
5030.0 0.009509
5050.0 0.0066585
5070.0 0.0048994
5090.0 0.0042697
5110.0 0.0043523
5130.0 0.004764
5150.0 0.0045963
5170.0 0.0046
5190.0 0.0045382
5210.0 0.0045497
5230.0 0.0048555
5250.0 0.0050356
5270.0 0.0056422
5290.0 0.0067578
5310.0 0.0074211
5330.0 0.0077378
5350.0 0.0081006
5370.0 0.0087762
5390.0 0.0090183
5410.0 0.0081856
5430.0 0.007322
5450.0 0.0073615
5470.0 0.0088473
5490.0 0.011465
5510.0 0.013825
5530.0 0.014661
5550.0 0.014152
5570.0 0.013188
5590.0 0.012187
5610.0 0.011669
5630.0 0.011819
5650.0 0.012116
5670.0 0.01177
5690.0 0.011186
5710.0 0.010823
5730.0 0.0094816
5750.0 0.0073235
5770.0 0.0066501
5790.0 0.0075067
5810.0 0.008515
5830.0 0.0095355
5850.0 0.0099541
5870.0 0.0097376
5890.0 0.0090278
5910.0 0.0085046
5930.0 0.0086419
5950.0 0.0091875
5970.0 0.0093444
5990.0 0.0083404
6010.0 0.0067667
6030.0 0.0054363
6050.0 0.0049399
6070.0 0.0053135
6090.0 0.0059929
6110.0 0.0060536
6130.0 0.0055904
6150.0 0.0055064
6170.0 0.0061472
6190.0 0.0073212
6210.0 0.0088223
6230.0 0.009851
6250.0 0.0094764
6270.0 0.0083262
6290.0 0.0068812
6310.0 0.0054289
6330.0 0.0045466
6350.0 0.0044533
6370.0 0.0049075
6390.0 0.0054556
6410.0 0.0063378
6430.0 0.0076759
6450.0 0.0094436
6470.0 0.01136
6490.0 0.01308
6510.0 0.013778
6530.0 0.013184
6550.0 0.012661
6570.0 0.012689
6590.0 0.012487
6610.0 0.011705
6630.0 0.010981
6650.0 0.010348
6670.0 0.010335
6690.0 0.010079
6710.0 0.0090899
6730.0 0.0079153
6750.0 0.0071461
6770.0 0.0074522
6790.0 0.0079613
6810.0 0.0085225
6830.0 0.0086856
6850.0 0.0082571
6870.0 0.0079349
6890.0 0.0077524
6910.0 0.0073398
6930.0 0.0070202
6950.0 0.0071098
6970.0 0.0073318
6990.0 0.0078657
7010.0 0.0084375
7030.0 0.0082081
7050.0 0.00745
7070.0 0.0065636
7090.0 0.0055503
7110.0 0.0050257
7130.0 0.0053313
7150.0 0.0057469
7170.0 0.0057777
7190.0 0.005612
7210.0 0.0055894
7230.0 0.0063148
7250.0 0.0073068
7270.0 0.0079967
7290.0 0.0081268
7310.0 0.0076153
7330.0 0.0069147
7350.0 0.0063733
7370.0 0.0061428
7390.0 0.006173
7410.0 0.0065599
7430.0 0.0074481
7450.0 0.0083369
7470.0 0.0093836
7490.0 0.010465
7510.0 0.0097106
7530.0 0.0085057
7550.0 0.0072425
7570.0 0.0060682
7590.0 0.0049617
7610.0 0.0047739
7630.0 0.0051087
7650.0 0.0057233
7670.0 0.0065468
7690.0 0.0072218
7710.0 0.0081014
7730.0 0.0085747
7750.0 0.0088971
7770.0 0.0092091
7790.0 0.0092114
7810.0 0.0091794
7830.0 0.0088503
7850.0 0.008585
7870.0 0.0082348
7890.0 0.0075312
7910.0 0.0068168
7930.0 0.0061083
7950.0 0.0053705
7970.0 0.0051395
7990.0 0.0053533
8010.0 0.0060031
8030.0 0.0060576
8050.0 0.006237
8070.0 0.0061606
8090.0 0.0061579
8110.0 0.0059863
8130.0 0.0056205
8150.0 0.0052494
8170.0 0.0052056
8190.0 0.0052863
8210.0 0.0053465
8230.0 0.005112
8250.0 0.0048478
8270.0 0.004272
8290.0 0.0034694
8310.0 0.0026675
8330.0 0.0018658
8350.0 0.0013782
8370.0 0.0013161
8390.0 0.0015122
8410.0 0.0018361
8430.0 0.002282
8450.0 0.0025203
8470.0 0.0026868
8490.0 0.0029012
8510.0 0.003093
8530.0 0.0034262
8550.0 0.0040403
8570.0 0.0046684
8590.0 0.0052047
8610.0 0.0060276
8630.0 0.0069864
8650.0 0.0074271
8670.0 0.007509
8690.0 0.0074003
8710.0 0.0071078
8730.0 0.0068189
8750.0 0.0064511
8770.0 0.0063189
8790.0 0.0060941
8810.0 0.0056471
8830.0 0.0052678
8850.0 0.0045581
8870.0 0.004129
8890.0 0.0038257
8910.0 0.0041449
8930.0 0.0039774
8950.0 0.004061
8970.0 0.0041279
8990.0 0.0041287
9010.0 0.0041805
9030.0 0.0040627
9050.0 0.0040547
9070.0 0.0040584
9090.0 0.0040623
9110.0 0.004067
9130.0 0.0040713
9150.0 0.0040759
9170.0 0.0040762
9190.0 0.0040705
9210.0 0.0041057
9230.0 0.0041046
9250.0 0.0041076
9270.0 0.0041119
9290.0 0.0041172
9310.0 0.0041233
9330.0 0.0041299
9350.0 0.0041371
9370.0 0.0041446
9390.0 0.0041524
9410.0 0.0041605
9430.0 0.004169
9450.0 0.0041777
9470.0 0.0041866
9490.0 0.0041959
9510.0 0.0042055
9530.0 0.0042152
9550.0 0.0042254
9570.0 0.0042358
9590.0 0.0042465
9610.0 0.0042574
9630.0 0.0042686
9650.0 0.0042801
9670.0 0.0042918
9690.0 0.0043038
9710.0 0.0043161
9730.0 0.0043286
9750.0 0.0043413
9770.0 0.0043544
9790.0 0.0043676
9810.0 0.004381
9830.0 0.0043946
9850.0 0.0044085
9870.0 0.0044224
9890.0 0.0044366
9910.0 0.004451
9930.0 0.0044655
9950.0 0.0044779
9970.0 0.0044934
9990.0 0.0045089
10010.0 0.0045228
10030.0 0.0045381
10050.0 0.004552
10070.0 0.0045583
10090.0 0.0045767
10110.0 0.0045946
10130.0 0.0046118
10150.0 0.0046285
10170.0 0.0046445
10190.0 0.0046597
10210.0 0.0046752
10230.0 0.0046906
10250.0 0.0047054
10270.0 0.0047202
10290.0 0.0047353
10310.0 0.0047498
10330.0 0.0047638
10350.0 0.0047782
10370.0 0.0047924
10390.0 0.004806
10410.0 0.0048194
10430.0 0.0048331
10450.0 0.0048461
10470.0 0.0048587
10490.0 0.0048713
10510.0 0.0048836
10530.0 0.004895
10550.0 0.0049063
10570.0 0.0049177
10590.0 0.0049283
10610.0 0.0049384
10630.0 0.0049485
10650.0 0.0049582
10670.0 0.0049669
10690.0 0.0049755
10710.0 0.0049839
10730.0 0.0049914
10750.0 0.0049982
10770.0 0.0050052
10790.0 0.0050115
10810.0 0.0050169
10830.0 0.0050218
10850.0 0.0050261
10870.0 0.0050281
10890.0 0.0050273
10910.0 0.0050227
10930.0 0.005011
10950.0 0.0049876
10970.0 0.0049506
10990.0 0.0048989
11010.0 0.004854
11030.0 0.0047526
11050.0 0.0046366
11070.0 0.0045039
11090.0 0.0043506
11110.0 0.0041983
11130.0 0.0040459
11150.0 0.0038896
11170.0 0.0037377
11190.0 0.0035999
11210.0 0.0034678
11230.0 0.0033436
11250.0 0.0032355
11270.0 0.0031412
11290.0 0.0030556
11310.0 0.002982
11330.0 0.0029225
11350.0 0.0028694
11370.0 0.0028215
11390.0 0.0027789
11410.0 0.0027386
11430.0 0.0026955
11450.0 0.0026508
11470.0 0.0026039
11490.0 0.0025514
11510.0 0.002492
11530.0 0.0024303
11550.0 0.0023648
11570.0 0.0022933
11590.0 0.0022201
11610.0 0.002148
11630.0 0.0020735
11650.0 0.0019987
11670.0 0.0019296
11690.0 0.0018638
11710.0 0.0017998
11730.0 0.001741
11750.0 0.0016886
11770.0 0.0016386
11790.0 0.0015922
11810.0 0.0015507
11830.0 0.0015121
11850.0 0.0014742
11870.0 0.0014389
11890.0 0.0014056
11910.0 0.0013716
11930.0 0.0013372
11950.0 0.0013035
11970.0 0.0012687
11990.0 0.0012317
12010.0 0.0011949
12030.0 0.0011583
12050.0 0.0011206
12070.0 0.0010826
12090.0 0.0010478
12110.0 0.0010143
12130.0 0.00098269
12150.0 0.00095507
12170.0 0.00093201
12190.0 0.00091262
12210.0 0.00089896
12230.0 0.00089128
12250.0 0.00088934
12270.0 0.00089376
12290.0 0.00090395
12310.0 0.00091897
12330.0 0.0009399
12350.0 0.0009653
12370.0 0.00099312
12390.0 0.0010239
12410.0 0.0010582
12430.0 0.0010909
12450.0 0.0011226
12470.0 0.001154
12490.0 0.0011829
12510.0 0.0012074
12530.0 0.0012292
12550.0 0.0012474
12570.0 0.0012605
12590.0 0.0012691
12610.0 0.0012737
12630.0 0.0012738
12650.0 0.0012695
12670.0 0.0012616
12690.0 0.0012501
12710.0 0.0012357
12730.0 0.001219
12750.0 0.0011994
12770.0 0.0011781
12790.0 0.0011559
12810.0 0.0011321
12830.0 0.0011068
12850.0 0.0010817
12870.0 0.0010559
12890.0 0.0010286
12910.0 0.0010009
12930.0 0.00097311
12950.0 0.00094363
12970.0 0.00091274
12990.0 0.00088237
13010.0 0.00085134
13030.0 0.00081899
13050.0 0.00078699
13070.0 0.00075632
13090.0 0.00072524
13110.0 0.00069512
13130.0 0.00066755
13150.0 0.000642
13170.0 0.00061796
13190.0 0.00059762
13210.0 0.00058085
13230.0 0.00056688
13250.0 0.00055628
13270.0 0.0005492
13290.0 0.00054507
13310.0 0.00054388
13330.0 0.00054528
13350.0 0.00054868
13370.0 0.00055401
13390.0 0.00056084
13410.0 0.00056792
13430.0 0.00057556
13450.0 0.0005835
13470.0 0.0005909
13490.0 0.00059753
13510.0 0.00060398
13530.0 0.00060947
13550.0 0.00061385
13570.0 0.00061753
13590.0 0.00062062
13610.0 0.0006229
13630.0 0.00062457
13650.0 0.00062598
13670.0 0.00062702
13690.0 0.00062768
13710.0 0.00062816
13730.0 0.00062851
13750.0 0.00062848
13770.0 0.00062815
13790.0 0.0006275
13810.0 0.00062638
13830.0 0.00062473
13850.0 0.00062248
13870.0 0.00061951
13890.0 0.00061586
13910.0 0.00061152
13930.0 0.00060633
13950.0 0.0006005
13970.0 0.0005944
13990.0 0.00058779
14010.0 0.00058089
14030.0 0.00057414
14050.0 0.00056759
14070.0 0.00056104
14090.0 0.0005551
14110.0 0.00054983
14130.0 0.00054506
14150.0 0.0005409
14170.0 0.00053756
14190.0 0.00053487
14210.0 0.00053282
14230.0 0.0005315
14250.0 0.00053086
14270.0 0.00053096
14290.0 0.00053185
14310.0 0.00053342
14330.0 0.00053571
14350.0 0.00053886
14370.0 0.00054264
14390.0 0.00054687
14410.0 0.00055187
14430.0 0.00055741
14450.0 0.00056314
14470.0 0.00056925
14490.0 0.00057604
14510.0 0.00058293
14530.0 0.00059001
14550.0 0.00059789
14570.0 0.00060652
14590.0 0.00061562
14610.0 0.00062591
14630.0 0.00063793
14650.0 0.00065102
14670.0 0.00066538
14690.0 0.00068187
14710.0 0.00070033
14730.0 0.00071915
14750.0 0.00073968
14770.0 0.00076186
14790.0 0.00078416
14810.0 0.00080622
14830.0 0.00082959
14850.0 0.00085192
14870.0 0.00087233
14890.0 0.00089157
14910.0 0.00090927
14930.0 0.00092401
14950.0 0.000936
14970.0 0.0009458
14990.0 0.00095276
15010.0 0.0009571
15030.0 0.00095945
15050.0 0.00096005
15070.0 0.00095935
15090.0 0.00095786
15110.0 0.00095578
15130.0 0.00095341
15150.0 0.00095101
15170.0 0.00094844
15190.0 0.00094581
15210.0 0.00094329
15230.0 0.0009408
15250.0 0.00093821
15270.0 0.00093566
15290.0 0.00093328
15310.0 0.00093081
15330.0 0.00092832
15350.0 0.00092595
15370.0 0.0009236
15390.0 0.0009211
15410.0 0.00091871
15430.0 0.00091641
15450.0 0.00091404
15470.0 0.00091162
15490.0 0.00090936
15510.0 0.00090709
15530.0 0.00090473
15550.0 0.00090243
15570.0 0.00090022
15590.0 0.0008979
15610.0 0.00089554
15630.0 0.00089333
15650.0 0.00089111
15670.0 0.00088879
15690.0 0.00088655
15710.0 0.0008844
15730.0 0.00088212
15750.0 0.00087984
15770.0 0.00087766
15790.0 0.00087546
15810.0 0.00087312
15830.0 0.0008709
15850.0 0.00086875
15870.0 0.00086649
15890.0 0.00086423
15910.0 0.00086208
15930.0 0.00085986
15950.0 0.00085754
15970.0 0.00085532
15990.0 0.00085314
16010.0 0.00085085
16030.0 0.00084853
16050.0 0.00084638
16070.0 0.00084414
16090.0 0.00084183
16110.0 0.00083959
16130.0 0.00083741
16150.0 0.00083503
16170.0 0.00083271
16190.0 0.00083048
16210.0 0.00082819
16230.0 0.00082581
16250.0 0.00082354
16270.0 0.00082129
16290.0 0.00081891
16310.0 0.00081655
16330.0 0.00081427
16350.0 0.00081192
16370.0 0.00080942
16390.0 0.0008071
16410.0 0.00080476
16430.0 0.00080232
16450.0 0.00079989
16470.0 0.00079758
16490.0 0.00079512
16510.0 0.00079261
16530.0 0.0007902
16550.0 0.00078778
16570.0 0.00078522
16590.0 0.00078269
16610.0 0.00078029
16630.0 0.00077777
16650.0 0.0007752
16670.0 0.00077272
16690.0 0.00077023
16710.0 0.00076756
16730.0 0.00076498
16750.0 0.00076246
16770.0 0.00075984
16790.0 0.00075715
16810.0 0.0007546
16830.0 0.000752
16850.0 0.00074929
16870.0 0.00074663
16890.0 0.00074404
16910.0 0.00074129
16930.0 0.0007385
16950.0 0.00073585
16970.0 0.00073315
16990.0 0.00073034
17010.0 0.0007276
17030.0 0.00072492
17050.0 0.00072209
17070.0 0.00071925
17090.0 0.0007165
17110.0 0.0007137
17130.0 0.00071076
17150.0 0.00070793
17170.0 0.00070514
17190.0 0.00070224
17210.0 0.00069932
17230.0 0.00069651
17250.0 0.00069361
17270.0 0.0006906
17290.0 0.00068768
17310.0 0.00068479
17330.0 0.00068179
17350.0 0.00067875
17370.0 0.00067587
17390.0 0.00067289
17410.0 0.00066983
17430.0 0.00066685
17450.0 0.00066391
17470.0 0.00066076
17490.0 0.00065768
17510.0 0.00065469
17530.0 0.00065162
17550.0 0.00064847
17570.0 0.00064543
17590.0 0.0006424
17610.0 0.00063923
17630.0 0.0006361
17650.0 0.00063304
17670.0 0.0006299
17690.0 0.00062662
17710.0 0.00062353
17730.0 0.00062042
17750.0 0.0006172
17770.0 0.00061401
17790.0 0.00061092
17810.0 0.00060769
17830.0 0.00060442
17850.0 0.00060125
17870.0 0.00059807
17890.0 0.00059476
17910.0 0.0005915
17930.0 0.00058836
17950.0 0.0005851
17970.0 0.0005818
17990.0 0.0005786
18010.0 0.00057539
18030.0 0.000572
18050.0 0.00056873
18070.0 0.00056551
18090.0 0.0005622
18110.0 0.00055884
18130.0 0.00055563
18150.0 0.00055237
18170.0 0.000549
18190.0 0.0005457
18210.0 0.00054247
18230.0 0.00053909
18250.0 0.00053569
18270.0 0.00053244
18290.0 0.00052914
18310.0 0.00052575
18330.0 0.00052245
18350.0 0.0005192
18370.0 0.00051581
18390.0 0.00051243
18410.0 0.00050916
18430.0 0.00050583
18450.0 0.00050238
18470.0 0.00049906
18490.0 0.00049579
18510.0 0.00049241
18530.0 0.00048904
18550.0 0.00048579
18570.0 0.00048244
18590.0 0.000479
18610.0 0.00047568
18630.0 0.00047239
18650.0 0.00046899
18670.0 0.00046559
18690.0 0.00046234
18710.0 0.00045901
18730.0 0.00045561
18750.0 0.00045231
18770.0 0.00044905
18790.0 0.0004456
18810.0 0.00044223
18830.0 0.00043897
18850.0 0.00043564
18870.0 0.00043224
18890.0 0.00042897
18910.0 0.00042571
18930.0 0.00042232
18950.0 0.00041899
18970.0 0.00041574
18990.0 0.00041242
19010.0 0.00040899
19030.0 0.00040575
19050.0 0.0004025
19070.0 0.00039915
19090.0 0.00039585
19110.0 0.00039266
19130.0 0.00038932
19150.0 0.00038598
19170.0 0.00038274
19190.0 0.0003795
19210.0 0.00037615
19230.0 0.00037287
19250.0 0.0003697
19270.0 0.00036642
19290.0 0.00036313
19310.0 0.00035995
19330.0 0.00035674
19350.0 0.0003534
19370.0 0.00035017
19390.0 0.00034701
19410.0 0.00034375
19430.0 0.00034048
19450.0 0.00033735
19470.0 0.00033417
19490.0 0.00033091
19510.0 0.00032774
19530.0 0.00032462
19550.0 0.00032137
19570.0 0.00031812
19590.0 0.00031503
19610.0 0.00031188
19630.0 0.00030867
19650.0 0.00030554
19670.0 0.00030248
19690.0 0.00029928
19710.0 0.00029611
19730.0 0.00029304
19750.0 0.00028993
19770.0 0.00028671
19790.0 0.00028363
19810.0 0.00028059
19830.0 0.00027745
19850.0 0.00027431
19870.0 0.00027126
19890.0 0.00026803
19910.0 0.00026461
19930.0 0.00026109
19950.0 0.00025729
19970.0 0.00025293
19990.0 0.00024805
20010.0 0.00024287
20030.0 0.00023702
20050.0 0.00023065
20070.0 0.00022423
20090.0 0.0002178
20110.0 0.00021111
20130.0 0.00020491
20150.0 0.00019929
20170.0 0.00019399
20190.0 0.00018914
20210.0 0.000185
20230.0 0.00018137
20250.0 0.00017814
20270.0 0.00017548
20290.0 0.00017336
20310.0 0.00017163
20330.0 0.00017031
20350.0 0.00016947
20370.0 0.00016898
20390.0 0.00016885
20410.0 0.00016908
20430.0 0.00016961
20450.0 0.00017052
20470.0 0.00017177
20490.0 0.0001733
20510.0 0.00017513
20530.0 0.00017737
20550.0 0.00017985
20570.0 0.00018248
20590.0 0.00018547
20610.0 0.00018867
20630.0 0.00019191
20650.0 0.00019529
20670.0 0.00019892
20690.0 0.00020238
20710.0 0.00020574
20730.0 0.00020914
20750.0 0.00021244
20770.0 0.00021546
20790.0 0.00021842
20810.0 0.00022136
20830.0 0.00022412
20850.0 0.00022678
20870.0 0.00022956
20890.0 0.00023237
20910.0 0.0002351
20930.0 0.00023798
20950.0 0.00024104
20970.0 0.00024411
20990.0 0.00024721
21010.0 0.00025052
21030.0 0.00025378
21050.0 0.00025687
21070.0 0.00025989
21090.0 0.00026281
21110.0 0.0002653
21130.0 0.00026746
21150.0 0.00026934
21170.0 0.00027078
21190.0 0.00027174
21210.0 0.00027232
21230.0 0.00027243
21250.0 0.00027208
21270.0 0.00027132
21290.0 0.00027011
21310.0 0.00026851
21330.0 0.00026662
21350.0 0.00026435
21370.0 0.00026173
21390.0 0.00025893
21410.0 0.00025593
21430.0 0.00025256
21450.0 0.00024914
21470.0 0.00024573
21490.0 0.00024218
21510.0 0.00023856
21530.0 0.00023514
21550.0 0.00023178
21570.0 0.00022844
21590.0 0.00022536
21610.0 0.00022257
21630.0 0.00021997
21650.0 0.00021763
21670.0 0.00021578
21690.0 0.00021425
21710.0 0.00021309
21730.0 0.00021236
21750.0 0.00021204
21770.0 0.00021215
21790.0 0.0002127
21810.0 0.00021364
21830.0 0.00021497
21850.0 0.00021676
21870.0 0.00021887
21890.0 0.00022123
21910.0 0.000224
21930.0 0.00022705
21950.0 0.00023023
21970.0 0.00023366
21990.0 0.00023744
22010.0 0.00024118
22030.0 0.00024496
22050.0 0.00024892
22070.0 0.0002529
22090.0 0.00025666
22110.0 0.00026045
22130.0 0.00026421
22150.0 0.0002677
22170.0 0.00027094
22190.0 0.00027407
22210.0 0.00027686
22230.0 0.00027918
22250.0 0.00028119
22270.0 0.0002828
22290.0 0.0002839
22310.0 0.00028452
22330.0 0.00028465
22350.0 0.00028422
22370.0 0.00028327
22390.0 0.00028174
22410.0 0.00027958
22430.0 0.00027698
22450.0 0.00027389
22470.0 0.00027017
22490.0 0.00026601
22510.0 0.00026158
22530.0 0.00025656
22550.0 0.00025107
22570.0 0.00024551
22590.0 0.0002397
22610.0 0.00023349
22630.0 0.0002272
22650.0 0.00022108
22670.0 0.00021467
22690.0 0.0002082
22710.0 0.000202
22730.0 0.00019591
22750.0 0.00018963
22770.0 0.00018377
22790.0 0.00017832
22810.0 0.00017297
22830.0 0.00016789
22850.0 0.00016338
22870.0 0.00015919
22890.0 0.00015528
22910.0 0.00015195
22930.0 0.00014917
22950.0 0.00014681
22970.0 0.00014498
22990.0 0.00014383
23010.0 0.00014319
23030.0 0.00014313
23050.0 0.00014365
23070.0 0.00014468
23090.0 0.00014633
23110.0 0.00014852
23130.0 0.00015109
23150.0 0.00015412
23170.0 0.00015763
