#lamb flux
1010.0 1.1581e-05
1030.0 1.2766e-05
1050.0 1.4425e-05
1070.0 1.6985e-05
1090.0 2.0186e-05
1110.0 2.3563e-05
1130.0 2.7048e-05
1150.0 3.0755e-05
1170.0 3.4578e-05
1190.0 3.8124e-05
1210.0 4.1539e-05
1230.0 4.4782e-05
1250.0 4.792e-05
1270.0 5.0492e-05
1290.0 5.2651e-05
1310.0 5.4166e-05
1330.0 5.4905e-05
1350.0 5.5035e-05
1370.0 5.464e-05
1390.0 5.3641e-05
1410.0 5.2132e-05
1430.0 5.0357e-05
1450.0 4.8309e-05
1470.0 4.6028e-05
1490.0 4.3678e-05
1510.0 4.1377e-05
1530.0 3.9035e-05
1550.0 3.6765e-05
1570.0 3.4643e-05
1590.0 3.2658e-05
1610.0 3.0926e-05
1630.0 2.998e-05
1650.0 2.9311e-05
1670.0 2.891e-05
1690.0 2.8811e-05
1710.0 2.9069e-05
1730.0 2.9674e-05
1750.0 3.0592e-05
1770.0 3.1916e-05
1790.0 3.3665e-05
1810.0 3.5819e-05
1830.0 3.8417e-05
1850.0 4.1554e-05
1870.0 4.518e-05
1890.0 4.9302e-05
1910.0 5.3992e-05
1930.0 5.927e-05
1950.0 6.5051e-05
1970.0 7.1361e-05
1990.0 7.8253e-05
2010.0 8.5622e-05
2030.0 9.3384e-05
2050.0 0.00010159
2070.0 0.0001102
2090.0 0.00011895
2110.0 0.00012788
2130.0 0.00013698
2150.0 0.00014606
2170.0 0.00015498
2190.0 0.00016385
2210.0 0.00017255
2230.0 0.00018088
2250.0 0.00018891
2270.0 0.00019675
2290.0 0.00020416
2310.0 0.00021112
2330.0 0.00021786
2350.0 0.00022435
2370.0 0.00023052
2390.0 0.00023665
2410.0 0.00024305
2430.0 0.00024971
2450.0 0.00025687
2470.0 0.00026513
2490.0 0.0002748
2510.0 0.0002855
2530.0 0.00029808
2550.0 0.00031346
2570.0 0.00033189
2590.0 0.00035429
2610.0 0.00038436
2630.0 0.00042259
2650.0 0.00046777
2670.0 0.00052129
2690.0 0.00058251
2710.0 0.00064511
2730.0 0.00070628
2750.0 0.00076784
2770.0 0.00082624
2790.0 0.00088108
2810.0 0.00093648
2830.0 0.00099633
2850.0 0.0010573
2870.0 0.0011221
2890.0 0.0011934
2910.0 0.001269
2930.0 0.0013458
2950.0 0.0014281
2970.0 0.0015152
2990.0 0.0016033
3010.0 0.0016939
3030.0 0.0017899
3050.0 0.0018887
3070.0 0.0019851
3090.0 0.0020834
3110.0 0.0021796
3130.0 0.002267
3150.0 0.0023434
3170.0 0.0024061
3190.0 0.0024506
3210.0 0.0024804
3230.0 0.0024977
3250.0 0.0025046
3270.0 0.0025086
3290.0 0.0025131
3310.0 0.0025196
3330.0 0.0025299
3350.0 0.0025433
3370.0 0.0025583
3390.0 0.0025487
3410.0 0.0025448
3430.0 0.002567
3450.0 0.0025831
3470.0 0.0025735
3490.0 0.0027118
3510.0 0.0032405
3530.0 0.0040085
3550.0 0.0045267
3570.0 0.0049958
3590.0 0.0056233
3610.0 0.0056192
3630.0 0.0051704
3650.0 0.0053185
3670.0 0.0061753
3690.0 0.0069582
3710.0 0.0072422
3730.0 0.0072828
3750.0 0.0076883
3770.0 0.0077174
3790.0 0.0073809
3810.0 0.0069789
3830.0 0.00661
3850.0 0.0066249
3870.0 0.0069127
3890.0 0.0071128
3910.0 0.0071722
3930.0 0.0071718
3950.0 0.0076844
3970.0 0.0082736
3990.0 0.0080818
4010.0 0.0072352
4030.0 0.0065444
4050.0 0.00654
4070.0 0.0068283
4090.0 0.0067583
4110.0 0.0065205
4130.0 0.0064968
4150.0 0.0068102
4170.0 0.0074698
4190.0 0.0077422
4210.0 0.007235
4230.0 0.0066155
4250.0 0.0062007
4270.0 0.0059453
4290.0 0.0059458
4310.0 0.0060708
4330.0 0.005808
4350.0 0.005209
4370.0 0.0047016
4390.0 0.0043532
4410.0 0.004184
4430.0 0.0043298
4450.0 0.0047565
4470.0 0.0052171
4490.0 0.0055488
4510.0 0.0060627
4530.0 0.0069656
4550.0 0.0078943
4570.0 0.0084804
4590.0 0.0089899
4610.0 0.0093874
4630.0 0.0093908
4650.0 0.0087521
4670.0 0.0077576
4690.0 0.0069627
4710.0 0.006674
4730.0 0.0063568
4750.0 0.0055985
4770.0 0.0050193
4790.0 0.0051447
4810.0 0.0055309
4830.0 0.0053996
4850.0 0.0048186
4870.0 0.0048642
4890.0 0.0049633
4910.0 0.0050089
4930.0 0.0049142
4950.0 0.0048099
4970.0 0.0045832
4990.0 0.0042438
5010.0 0.0040345
5030.0 0.004016
5050.0 0.0040432
5070.0 0.0040768
5090.0 0.0040994
5110.0 0.0041142
5130.0 0.0042041
5150.0 0.0043923
5170.0 0.0047385
5190.0 0.0051943
5210.0 0.0055376
5230.0 0.0057401
5250.0 0.0058592
5270.0 0.0059908
5290.0 0.0060644
5310.0 0.0059854
5330.0 0.0057807
5350.0 0.005591
5370.0 0.005589
5390.0 0.0056756
5410.0 0.0057154
5430.0 0.0056355
5450.0 0.0055469
5470.0 0.0054546
5490.0 0.0053736
5510.0 0.0053442
5530.0 0.0053555
5550.0 0.005384
5570.0 0.0053841
5590.0 0.0052697
5610.0 0.0050593
5630.0 0.0048401
5650.0 0.0046073
5670.0 0.0044275
5690.0 0.0042709
5710.0 0.0042004
5730.0 0.0041913
5750.0 0.0041225
5770.0 0.0040516
5790.0 0.0040969
5810.0 0.004212
5830.0 0.0043014
5850.0 0.0043274
5870.0 0.0042239
5890.0 0.0040686
5910.0 0.003952
5930.0 0.0037958
5950.0 0.0036507
5970.0 0.0036657
5990.0 0.0037376
6010.0 0.0037227
6030.0 0.0036133
6050.0 0.0035932
6070.0 0.0036942
6090.0 0.0037996
6110.0 0.0037728
6130.0 0.0035672
6150.0 0.0033079
6170.0 0.0031664
6190.0 0.0031167
6210.0 0.0030792
6230.0 0.0030313
6250.0 0.0030385
6270.0 0.0031273
6290.0 0.0032437
6310.0 0.0033741
6330.0 0.003508
6350.0 0.0035763
6370.0 0.0035713
6390.0 0.0035417
6410.0 0.0035556
6430.0 0.0035884
6450.0 0.0035817
6470.0 0.0035723
6490.0 0.003575
6510.0 0.0035699
6530.0 0.0035341
6550.0 0.0034629
6570.0 0.0033601
6590.0 0.0032539
6610.0 0.0031714
6630.0 0.0031061
6650.0 0.0030101
6670.0 0.0029074
6690.0 0.0028269
6710.0 0.0027799
6730.0 0.0027442
6750.0 0.0027189
6770.0 0.0026907
6790.0 0.0026414
6810.0 0.0025826
6830.0 0.0025533
6850.0 0.0025399
6870.0 0.0025285
6890.0 0.0025267
6910.0 0.0025031
6930.0 0.0024733
6950.0 0.0024619
6970.0 0.0024396
6990.0 0.0024019
7010.0 0.0023626
7030.0 0.0023199
7050.0 0.0022754
7070.0 0.00222
7090.0 0.0021756
7110.0 0.0022113
7130.0 0.0022674
7150.0 0.0022992
7170.0 0.0023182
7190.0 0.0023179
7210.0 0.0022875
7230.0 0.002244
7250.0 0.0022258
7270.0 0.002184
7290.0 0.0021513
7310.0 0.0021349
7330.0 0.0021465
7350.0 0.0021428
7370.0 0.0021272
7390.0 0.0021092
7410.0 0.0020849
7430.0 0.0020556
7450.0 0.0020229
7470.0 0.0019888
7490.0 0.0019363
7510.0 0.0018647
7530.0 0.001799
7550.0 0.001757
7570.0 0.0017696
7590.0 0.0017633
7610.0 0.0017429
7630.0 0.0017222
7650.0 0.0017397
7670.0 0.0017819
7690.0 0.0018454
7710.0 0.0018831
7730.0 0.0019539
7750.0 0.0020021
7770.0 0.0020466
7790.0 0.0020649
7810.0 0.0020367
7830.0 0.0020303
7850.0 0.0020023
7870.0 0.0019543
7890.0 0.001889
7910.0 0.0018366
7930.0 0.0018062
7950.0 0.0017876
7970.0 0.0017894
7990.0 0.0017947
8010.0 0.0017792
8030.0 0.0017621
8050.0 0.0017295
8070.0 0.0017003
8090.0 0.0016663
8110.0 0.0016746
8130.0 0.0016891
8150.0 0.0016954
8170.0 0.0016796
8190.0 0.0016645
8210.0 0.0016092
8230.0 0.0015086
8250.0 0.0014487
8270.0 0.0014147
8290.0 0.001398
8310.0 0.0013985
8330.0 0.0014305
8350.0 0.0014081
8370.0 0.001382
8390.0 0.0014015
8410.0 0.0014357
8430.0 0.0014999
8450.0 0.0015573
8470.0 0.0015694
8490.0 0.0015813
8510.0 0.0015682
8530.0 0.0015509
8550.0 0.0015618
8570.0 0.0015629
8590.0 0.0015509
8610.0 0.0015925
8630.0 0.0015997
8650.0 0.0015647
8670.0 0.0015603
8690.0 0.0015647
8710.0 0.0015353
8730.0 0.0015256
8750.0 0.0014777
8770.0 0.0014588
8790.0 0.0014398
8810.0 0.0014261
8830.0 0.0013743
8850.0 0.0012806
8870.0 0.0012055
8890.0 0.0011671
8910.0 0.0010952
8930.0 0.0010186
8950.0 0.00099753
8970.0 0.0009872
8990.0 0.00098665
9010.0 0.00097881
9030.0 0.00097185
9050.0 0.0009653
9070.0 0.00095884
9090.0 0.00095239
9110.0 0.00094594
9130.0 0.00093948
9150.0 0.00093304
9170.0 0.00092661
9190.0 0.00092016
9210.0 0.00091372
9230.0 0.00090731
9250.0 0.00090093
9270.0 0.00089453
9290.0 0.00088816
9310.0 0.00088181
9330.0 0.00087546
9350.0 0.00086915
9370.0 0.00086284
9390.0 0.00085657
9410.0 0.0008503
9430.0 0.00084406
9450.0 0.0008378
9470.0 0.00083174
9490.0 0.00082571
9510.0 0.00081951
9530.0 0.00081338
9550.0 0.00080728
9570.0 0.00080123
9590.0 0.00079522
9610.0 0.00078924
9630.0 0.00078332
9650.0 0.00077741
9670.0 0.00077155
9690.0 0.00076572
9710.0 0.00075992
9730.0 0.00075417
9750.0 0.00074844
9770.0 0.00074277
9790.0 0.00073712
9810.0 0.00073151
9830.0 0.00072579
9850.0 0.00071919
9870.0 0.00071386
9890.0 0.00070883
9910.0 0.00070369
9930.0 0.0006981
9950.0 0.0006929
9970.0 0.00068777
9990.0 0.00068253
10010.0 0.00067681
10030.0 0.00067145
10050.0 0.00066663
10070.0 0.00066179
10090.0 0.00065696
10110.0 0.00065188
10130.0 0.00064646
10150.0 0.00064166
10170.0 0.00063693
10190.0 0.00063205
10210.0 0.00062731
10230.0 0.00062264
10250.0 0.00061783
10270.0 0.00061308
10290.0 0.00060848
10310.0 0.00060379
10330.0 0.00059903
10350.0 0.00059446
10370.0 0.00058995
10390.0 0.00058533
10410.0 0.00058078
10430.0 0.00057641
10450.0 0.00057196
10470.0 0.00056746
10490.0 0.00056312
10510.0 0.00055883
10530.0 0.00055436
10550.0 0.00055001
10570.0 0.00054583
10590.0 0.00054156
10610.0 0.00053725
10630.0 0.00053313
10650.0 0.00052901
10670.0 0.00052475
10690.0 0.0005206
10710.0 0.00051657
10730.0 0.00051245
10750.0 0.00050824
10770.0 0.00050429
10790.0 0.00050031
10810.0 0.00049624
10830.0 0.00049226
10850.0 0.00048842
10870.0 0.0004844
10890.0 0.00048042
10910.0 0.00047664
10930.0 0.00047289
10950.0 0.00046912
10970.0 0.00046554
10990.0 0.00046222
11010.0 0.00044509
11030.0 0.00044215
11050.0 0.00043944
11070.0 0.00043682
11090.0 0.00043414
11110.0 0.0004316
11130.0 0.00042909
11150.0 0.00042647
11170.0 0.00042379
11190.0 0.00042119
11210.0 0.00041849
11230.0 0.0004157
11250.0 0.00041298
11270.0 0.00041032
11290.0 0.0004076
11310.0 0.00040493
11330.0 0.00040248
11350.0 0.00040006
11370.0 0.00039768
11390.0 0.00039548
11410.0 0.00039341
11430.0 0.00039131
11450.0 0.00038932
11470.0 0.00038746
11490.0 0.00038558
11510.0 0.00038366
11530.0 0.00038183
11550.0 0.00037998
11570.0 0.00037802
11590.0 0.00037603
11610.0 0.00037405
11630.0 0.00037194
11650.0 0.0003697
11670.0 0.00036753
11690.0 0.00036533
11710.0 0.00036301
11730.0 0.00036072
11750.0 0.00035855
11770.0 0.0003563
11790.0 0.00035406
11810.0 0.00035195
11830.0 0.00034991
11850.0 0.00034782
11870.0 0.00034587
11890.0 0.00034408
11910.0 0.0003423
11930.0 0.00034061
11950.0 0.00033909
11970.0 0.00033767
11990.0 0.00033631
12010.0 0.00033514
12030.0 0.00033416
12050.0 0.0003333
12070.0 0.00033262
12090.0 0.00033219
12110.0 0.00033195
12130.0 0.00033191
12150.0 0.00033209
12170.0 0.00033248
12190.0 0.00033308
12210.0 0.00033387
12230.0 0.00033484
12250.0 0.00033596
12270.0 0.00033725
12290.0 0.00033864
12310.0 0.00034009
12330.0 0.00034164
12350.0 0.00034323
12370.0 0.00034478
12390.0 0.00034631
12410.0 0.00034782
12430.0 0.00034917
12450.0 0.00035039
12470.0 0.00035146
12490.0 0.00035233
12510.0 0.00035297
12530.0 0.00035337
12550.0 0.00035348
12570.0 0.00035332
12590.0 0.00035288
12610.0 0.00035207
12630.0 0.00035095
12650.0 0.00034963
12670.0 0.00034798
12690.0 0.00034601
12710.0 0.00034389
12730.0 0.00034161
12750.0 0.00033898
12770.0 0.00033627
12790.0 0.00033355
12810.0 0.00033069
12830.0 0.00032768
12850.0 0.00032483
12870.0 0.000322
12890.0 0.00031908
12910.0 0.00031625
12930.0 0.0003136
12950.0 0.00031088
12970.0 0.00030818
12990.0 0.00030571
13010.0 0.00030331
13030.0 0.00030089
13050.0 0.00029862
13070.0 0.00029653
13090.0 0.00029443
13110.0 0.00029241
13130.0 0.00029058
13150.0 0.00028886
13170.0 0.00028715
13190.0 0.00028564
13210.0 0.0002843
13230.0 0.000283
13250.0 0.0002818
13270.0 0.00028074
13290.0 0.00027973
13310.0 0.00027871
13330.0 0.00027777
13350.0 0.00027686
13370.0 0.00027591
13390.0 0.0002749
13410.0 0.00027394
13430.0 0.0002729
13450.0 0.00027177
13470.0 0.0002706
13490.0 0.00026941
13510.0 0.00026805
13530.0 0.00026663
13550.0 0.00026522
13570.0 0.00026372
13590.0 0.0002621
13610.0 0.0002605
13630.0 0.00025889
13650.0 0.00025716
13670.0 0.0002554
13690.0 0.00025368
13710.0 0.0002519
13730.0 0.00024999
13750.0 0.00024818
13770.0 0.00024637
13790.0 0.00024447
13810.0 0.00024255
13830.0 0.0002407
13850.0 0.00023875
13870.0 0.00023673
13890.0 0.00023475
13910.0 0.00023275
13930.0 0.00023062
13950.0 0.00022846
13970.0 0.00022638
13990.0 0.00022419
14010.0 0.00022192
14030.0 0.00021971
14050.0 0.0002175
14070.0 0.00021515
14090.0 0.00021287
14110.0 0.00021068
14130.0 0.00020847
14150.0 0.00020625
14170.0 0.0002042
14190.0 0.00020222
14210.0 0.00020024
14230.0 0.00019837
14250.0 0.00019662
14270.0 0.00019487
14290.0 0.00019314
14310.0 0.00019153
14330.0 0.00018994
14350.0 0.00018832
14370.0 0.00018673
14390.0 0.00018521
14410.0 0.00018362
14430.0 0.00018203
14450.0 0.00018051
14470.0 0.00017901
14490.0 0.00017746
14510.0 0.00017602
14530.0 0.00017465
14550.0 0.0001733
14570.0 0.00017199
14590.0 0.00017079
14610.0 0.00016961
14630.0 0.00016845
14650.0 0.00016737
14670.0 0.00016634
14690.0 0.00016531
14710.0 0.00016431
14730.0 0.00016339
14750.0 0.00016249
14770.0 0.00016161
14790.0 0.00016078
14810.0 0.00016002
14830.0 0.00015928
14850.0 0.00015861
14870.0 0.00015802
14890.0 0.00015749
14910.0 0.00015701
14930.0 0.0001566
14950.0 0.00015624
14970.0 0.0001559
14990.0 0.00015557
15010.0 0.00015525
15030.0 0.0001549
15050.0 0.00015452
15070.0 0.00015413
15090.0 0.00015372
15110.0 0.00015329
15130.0 0.00015285
15150.0 0.00015241
15170.0 0.00015195
15190.0 0.00015149
15210.0 0.00015103
15230.0 0.00015057
15250.0 0.00015009
15270.0 0.00014962
15290.0 0.00014915
15310.0 0.00014867
15330.0 0.00014819
15350.0 0.00014771
15370.0 0.00014723
15390.0 0.00014674
15410.0 0.00014625
15430.0 0.00014576
15450.0 0.00014527
15470.0 0.00014477
15490.0 0.00014427
15510.0 0.00014378
15530.0 0.00014328
15550.0 0.00014277
15570.0 0.00014228
15590.0 0.00014177
15610.0 0.00014126
15630.0 0.00014076
15650.0 0.00014025
15670.0 0.00013974
15690.0 0.00013923
15710.0 0.00013873
15730.0 0.00013821
15750.0 0.0001377
15770.0 0.00013719
15790.0 0.00013668
15810.0 0.00013616
15830.0 0.00013565
15850.0 0.00013515
15870.0 0.00013463
15890.0 0.00013412
15910.0 0.00013362
15930.0 0.00013311
15950.0 0.00013259
15970.0 0.00013208
15990.0 0.00013157
16010.0 0.00013106
16030.0 0.00013055
16050.0 0.00013005
16070.0 0.00012954
16090.0 0.00012903
16110.0 0.00012853
16130.0 0.00012803
16150.0 0.00012752
16170.0 0.00012702
16190.0 0.00012653
16210.0 0.00012603
16230.0 0.00012552
16250.0 0.00012503
16270.0 0.00012454
16290.0 0.00012405
16310.0 0.00012355
16330.0 0.00012307
16350.0 0.00012258
16370.0 0.00012209
16390.0 0.00012161
16410.0 0.00012113
16430.0 0.00012064
16450.0 0.00012016
16470.0 0.00011969
16490.0 0.00011922
16510.0 0.00011874
16530.0 0.00011827
16550.0 0.00011781
16570.0 0.00011734
16590.0 0.00011687
16610.0 0.00011641
16630.0 0.00011595
16650.0 0.00011549
16670.0 0.00011504
16690.0 0.00011459
16710.0 0.00011413
16730.0 0.00011369
16750.0 0.00011324
16770.0 0.0001128
16790.0 0.00011235
16810.0 0.00011192
16830.0 0.00011149
16850.0 0.00011105
16870.0 0.00011062
16890.0 0.00011019
16910.0 0.00010976
16930.0 0.00010933
16950.0 0.00010892
16970.0 0.0001085
16990.0 0.00010808
17010.0 0.00010766
17030.0 0.00010726
17050.0 0.00010685
17070.0 0.00010644
17090.0 0.00010603
17110.0 0.00010563
17130.0 0.00010523
17150.0 0.00010483
17170.0 0.00010444
17190.0 0.00010405
17210.0 0.00010365
17230.0 0.00010327
17250.0 0.00010289
17270.0 0.0001025
17290.0 0.00010212
17310.0 0.00010175
17330.0 0.00010137
17350.0 0.00010099
17370.0 0.00010062
17390.0 0.00010026
17410.0 9.9887e-05
17430.0 9.9525e-05
17450.0 9.9168e-05
17470.0 9.8802e-05
17490.0 9.8442e-05
17510.0 9.8091e-05
17530.0 9.7738e-05
17550.0 9.7382e-05
17570.0 9.7036e-05
17590.0 9.6694e-05
17610.0 9.6345e-05
17630.0 9.6002e-05
17650.0 9.5666e-05
17670.0 9.5327e-05
17690.0 9.4982e-05
17710.0 9.4652e-05
17730.0 9.4322e-05
17750.0 9.3988e-05
17770.0 9.3659e-05
17790.0 9.3339e-05
17810.0 9.3011e-05
17830.0 9.2684e-05
17850.0 9.2365e-05
17870.0 9.2048e-05
17890.0 9.1726e-05
17910.0 9.1408e-05
17930.0 9.1099e-05
17950.0 9.0786e-05
17970.0 9.0473e-05
17990.0 9.0167e-05
18010.0 8.9863e-05
18030.0 8.955e-05
18050.0 8.9246e-05
18070.0 8.8947e-05
18090.0 8.8644e-05
18110.0 8.834e-05
18130.0 8.8047e-05
18150.0 8.7753e-05
18170.0 8.7454e-05
18190.0 8.7161e-05
18210.0 8.6873e-05
18230.0 8.6579e-05
18250.0 8.6284e-05
18270.0 8.6001e-05
18290.0 8.5715e-05
18310.0 8.5426e-05
18330.0 8.5143e-05
18350.0 8.4866e-05
18370.0 8.4581e-05
18390.0 8.4298e-05
18410.0 8.4023e-05
18430.0 8.3746e-05
18450.0 8.3463e-05
18470.0 8.3189e-05
18490.0 8.2919e-05
18510.0 8.2644e-05
18530.0 8.2371e-05
18550.0 8.2105e-05
18570.0 8.1836e-05
18590.0 8.1562e-05
18610.0 8.1296e-05
18630.0 8.1033e-05
18650.0 8.0765e-05
18670.0 8.0497e-05
18690.0 8.024e-05
18710.0 7.9978e-05
18730.0 7.9714e-05
18750.0 7.9456e-05
18770.0 7.9202e-05
18790.0 7.8937e-05
18810.0 7.8679e-05
18830.0 7.8427e-05
18850.0 7.8172e-05
18870.0 7.7914e-05
18890.0 7.7664e-05
18910.0 7.7416e-05
18930.0 7.7161e-05
18950.0 7.691e-05
18970.0 7.6665e-05
18990.0 7.6416e-05
19010.0 7.6162e-05
19030.0 7.592e-05
19050.0 7.5677e-05
19070.0 7.543e-05
19090.0 7.5186e-05
19110.0 7.4949e-05
19130.0 7.4705e-05
19150.0 7.4461e-05
19170.0 7.4224e-05
19190.0 7.3987e-05
19210.0 7.3745e-05
19230.0 7.3507e-05
19250.0 7.3276e-05
19270.0 7.304e-05
19290.0 7.2804e-05
19310.0 7.2574e-05
19330.0 7.2344e-05
19350.0 7.2107e-05
19370.0 7.1877e-05
19390.0 7.1651e-05
19410.0 7.1422e-05
19430.0 7.1191e-05
19450.0 7.0969e-05
19470.0 7.0746e-05
19490.0 7.0518e-05
19510.0 7.0296e-05
19530.0 7.0077e-05
19550.0 6.9853e-05
19570.0 6.9628e-05
19590.0 6.9414e-05
19610.0 6.9197e-05
19630.0 6.8976e-05
19650.0 6.8762e-05
19670.0 6.8552e-05
19690.0 6.8334e-05
19710.0 6.812e-05
19730.0 6.7912e-05
19750.0 6.7702e-05
19770.0 6.7487e-05
19790.0 6.728e-05
19810.0 6.7077e-05
19830.0 6.6868e-05
19850.0 6.666e-05
19870.0 6.6457e-05
19890.0 6.6244e-05
19910.0 6.6017e-05
19930.0 6.5781e-05
19950.0 6.5523e-05
19970.0 6.5221e-05
19990.0 6.4873e-05
20010.0 6.449e-05
20030.0 6.4042e-05
20050.0 6.3532e-05
20070.0 6.2991e-05
20090.0 6.2419e-05
20110.0 6.1786e-05
20130.0 6.1154e-05
20150.0 6.0537e-05
20170.0 5.9904e-05
20190.0 5.9268e-05
20210.0 5.867e-05
20230.0 5.8087e-05
20250.0 5.7501e-05
20270.0 5.6949e-05
20290.0 5.6435e-05
20310.0 5.5932e-05
20330.0 5.5441e-05
20350.0 5.5009e-05
20370.0 5.4597e-05
20390.0 5.4199e-05
20410.0 5.3836e-05
20430.0 5.3509e-05
20450.0 5.3189e-05
20470.0 5.2896e-05
20490.0 5.2636e-05
20510.0 5.2398e-05
20530.0 5.2174e-05
20550.0 5.1978e-05
20570.0 5.181e-05
20590.0 5.1655e-05
20610.0 5.1519e-05
20630.0 5.1407e-05
20650.0 5.131e-05
20670.0 5.1223e-05
20690.0 5.1154e-05
20710.0 5.1098e-05
20730.0 5.1047e-05
20750.0 5.1001e-05
20770.0 5.0959e-05
20790.0 5.0916e-05
20810.0 5.0865e-05
20830.0 5.0808e-05
20850.0 5.0741e-05
20870.0 5.0655e-05
20890.0 5.0551e-05
20910.0 5.0435e-05
20930.0 5.0295e-05
20950.0 5.0129e-05
20970.0 4.9948e-05
20990.0 4.9751e-05
21010.0 4.9521e-05
21030.0 4.9275e-05
21050.0 4.9023e-05
21070.0 4.8751e-05
21090.0 4.8455e-05
21110.0 4.8166e-05
21130.0 4.7873e-05
21150.0 4.7564e-05
21170.0 4.7255e-05
21190.0 4.6959e-05
21210.0 4.6651e-05
21230.0 4.6339e-05
21250.0 4.6046e-05
21270.0 4.576e-05
21290.0 4.5469e-05
21310.0 4.5189e-05
21330.0 4.4933e-05
21350.0 4.4673e-05
21370.0 4.4418e-05
21390.0 4.4182e-05
21410.0 4.3956e-05
21430.0 4.372e-05
21450.0 4.3503e-05
21470.0 4.3301e-05
21490.0 4.3097e-05
21510.0 4.2894e-05
21530.0 4.2708e-05
21550.0 4.2524e-05
21570.0 4.2333e-05
21590.0 4.215e-05
21610.0 4.1976e-05
21630.0 4.1795e-05
21650.0 4.1606e-05
21670.0 4.1436e-05
21690.0 4.1262e-05
21710.0 4.1079e-05
21730.0 4.0901e-05
21750.0 4.0731e-05
21770.0 4.0543e-05
21790.0 4.0355e-05
21810.0 4.0175e-05
21830.0 3.9991e-05
21850.0 3.9794e-05
21870.0 3.9604e-05
21890.0 3.9421e-05
21910.0 3.9223e-05
21930.0 3.9024e-05
21950.0 3.8833e-05
21970.0 3.8637e-05
21990.0 3.8424e-05
22010.0 3.8225e-05
22030.0 3.803e-05
22050.0 3.7825e-05
22070.0 3.762e-05
22090.0 3.743e-05
22110.0 3.7235e-05
22130.0 3.7034e-05
22150.0 3.6847e-05
22170.0 3.6669e-05
22190.0 3.6482e-05
22210.0 3.6304e-05
22230.0 3.6148e-05
22250.0 3.5993e-05
22270.0 3.5841e-05
22290.0 3.5707e-05
22310.0 3.5586e-05
22330.0 3.5461e-05
22350.0 3.5351e-05
22370.0 3.5257e-05
22390.0 3.5167e-05
22410.0 3.508e-05
22430.0 3.5011e-05
22450.0 3.4951e-05
22470.0 3.4891e-05
22490.0 3.484e-05
22510.0 3.4802e-05
22530.0 3.4763e-05
22550.0 3.4728e-05
22570.0 3.4705e-05
22590.0 3.4689e-05
22610.0 3.4673e-05
22630.0 3.4666e-05
22650.0 3.467e-05
22670.0 3.4676e-05
22690.0 3.4687e-05
22710.0 3.471e-05
22730.0 3.4739e-05
22750.0 3.477e-05
22770.0 3.4813e-05
22790.0 3.4867e-05
22810.0 3.4927e-05
22830.0 3.4995e-05
22850.0 3.5077e-05
22870.0 3.5167e-05
22890.0 3.5267e-05
22910.0 3.538e-05
22930.0 3.5507e-05
