#lamb flux
1010.0 2.0954e-07
1030.0 2.2014e-07
1050.0 2.3242e-07
1070.0 2.4628e-07
1090.0 2.6203e-07
1110.0 2.7825e-07
1130.0 2.9465e-07
1150.0 3.1191e-07
1170.0 3.298e-07
1190.0 3.4689e-07
1210.0 3.6431e-07
1230.0 3.8242e-07
1250.0 4.0031e-07
1270.0 4.1784e-07
1290.0 4.3647e-07
1310.0 4.5524e-07
1330.0 4.7345e-07
1350.0 4.9202e-07
1370.0 5.1134e-07
1390.0 5.304e-07
1410.0 5.4912e-07
1430.0 5.6882e-07
1450.0 5.8872e-07
1470.0 6.0821e-07
1490.0 6.2808e-07
1510.0 6.4914e-07
1530.0 6.6938e-07
1550.0 6.8954e-07
1570.0 7.1045e-07
1590.0 7.3148e-07
1610.0 7.5178e-07
1630.0 7.7269e-07
1650.0 7.9411e-07
1670.0 8.1489e-07
1690.0 8.3537e-07
1710.0 8.5645e-07
1730.0 8.775e-07
1750.0 8.972e-07
1770.0 9.1719e-07
1790.0 9.3726e-07
1810.0 9.5637e-07
1830.0 9.7477e-07
1850.0 9.9385e-07
1870.0 1.0119e-06
1890.0 1.0289e-06
1910.0 1.0457e-06
1930.0 1.0623e-06
1950.0 1.0775e-06
1970.0 1.0919e-06
1990.0 1.1063e-06
2010.0 1.1199e-06
2030.0 1.1322e-06
2050.0 1.1446e-06
2070.0 1.1569e-06
2090.0 1.1677e-06
2110.0 1.1781e-06
2130.0 1.1887e-06
2150.0 1.1987e-06
2170.0 1.2078e-06
2190.0 1.2175e-06
2210.0 1.2274e-06
2230.0 1.2367e-06
2250.0 1.2462e-06
2270.0 1.2568e-06
2290.0 1.2674e-06
2310.0 1.2779e-06
2330.0 1.2897e-06
2350.0 1.3024e-06
2370.0 1.3154e-06
2390.0 1.3296e-06
2410.0 1.3458e-06
2430.0 1.3626e-06
2450.0 1.3805e-06
2470.0 1.4004e-06
2490.0 1.4224e-06
2510.0 1.4465e-06
2530.0 1.4768e-06
2550.0 1.5197e-06
2570.0 1.5833e-06
2590.0 1.6773e-06
2610.0 1.8261e-06
2630.0 2.0399e-06
2650.0 2.3126e-06
2670.0 2.6512e-06
2690.0 3.0498e-06
2710.0 3.4634e-06
2730.0 3.8688e-06
2750.0 4.2729e-06
2770.0 4.646e-06
2790.0 4.9805e-06
2810.0 5.2978e-06
2830.0 5.6157e-06
2850.0 5.92e-06
2870.0 6.2304e-06
2890.0 6.5613e-06
2910.0 6.9076e-06
2930.0 7.2602e-06
2950.0 7.6378e-06
2970.0 8.0381e-06
2990.0 8.446e-06
3010.0 1.9376e-05
3030.0 2.0339e-05
3050.0 2.1303e-05
3070.0 2.2188e-05
3090.0 2.2952e-05
3110.0 2.3403e-05
3130.0 2.3313e-05
3150.0 2.2428e-05
3170.0 2.0231e-05
3190.0 1.6665e-05
3210.0 1.1777e-05
3230.0 6.2594e-06
3250.0 1.2197e-05
3270.0 5.5165e-06
3290.0 1.9271e-05
3310.0 4.2399e-06
3330.0 4.1358e-06
3350.0 5.9911e-06
3370.0 8.1584e-06
3390.0 1.049e-05
3410.0 1.2816e-05
3430.0 1.5259e-05
3450.0 1.7704e-05
3470.0 1.9942e-05
3490.0 2.1426e-05
3510.0 2.6832e-05
3530.0 3.6704e-05
3550.0 3.5762e-05
3570.0 2.8612e-05
3590.0 4.129e-05
3610.0 2.4313e-05
3630.0 4.3058e-05
3650.0 5.0509e-05
3670.0 6.6118e-05
3690.0 6.1449e-05
3710.0 3.9821e-05
3730.0 5.4202e-05
3750.0 5.6027e-05
3770.0 5.8895e-05
3790.0 5.4315e-05
3810.0 5.1108e-05
3830.0 7.9411e-05
3850.0 9.2714e-05
3870.0 0.00011589
3890.0 0.00010936
3910.0 9.5933e-05
3930.0 9.9571e-05
3950.0 0.00011033
3970.0 0.00013559
3990.0 9.6124e-05
4010.0 5.3975e-05
4030.0 8.6601e-05
4050.0 0.00010571
4070.0 0.00011961
4090.0 9.4595e-05
4110.0 5.9122e-05
4130.0 8.8463e-05
4150.0 8.4431e-05
4170.0 8.5382e-05
4190.0 8.205e-05
4210.0 0.00010975
4230.0 7.4653e-05
4250.0 8.7094e-05
4270.0 8.678e-05
4290.0 8.5559e-05
4310.0 0.00010868
4330.0 0.00011321
4350.0 8.6408e-05
4370.0 7.1835e-05
4390.0 9.1778e-05
4410.0 9.5952e-05
4430.0 7.1696e-05
4450.0 7.0216e-05
4470.0 8.4995e-05
4490.0 6.1154e-05
4510.0 8.0023e-05
4530.0 8.472e-05
4550.0 0.00010987
4570.0 0.00016136
4590.0 0.00015252
4610.0 9.8448e-05
4630.0 0.00016935
4650.0 0.00024589
4670.0 0.00022759
4690.0 0.00013466
4710.0 0.00014884
4730.0 0.00019309
4750.0 0.00016883
4770.0 0.00012647
4790.0 8.266e-05
4810.0 0.00012269
4830.0 0.00014368
4850.0 0.00012285
4870.0 3.3529e-05
4890.0 0.00013411
4910.0 0.00019062
4930.0 0.00020539
4950.0 0.00020107
4970.0 0.00011829
4990.0 0.0001395
5010.0 0.00017064
5030.0 0.00019308
5050.0 0.00019121
5070.0 0.00013547
5090.0 0.00010921
5110.0 0.00010281
5130.0 9.2681e-05
5150.0 0.00010318
5170.0 8.9198e-05
5190.0 0.00011175
5210.0 0.00011237
5230.0 0.00012448
5250.0 0.00015613
5270.0 0.00012639
5290.0 0.00012496
5310.0 0.00019286
5330.0 0.000226
5350.0 0.0001853
5370.0 0.0001599
5390.0 0.00018902
5410.0 0.00024194
5430.0 0.00026719
5450.0 0.0002842
5470.0 0.00028108
5490.0 0.00027463
5510.0 0.00032762
5530.0 0.00034173
5550.0 0.00037002
5570.0 0.0003978
5590.0 0.00039587
5610.0 0.00037264
5630.0 0.00036087
5650.0 0.00037232
5670.0 0.00036825
5690.0 0.00031178
5710.0 0.00030666
5730.0 0.00031629
5750.0 0.00034736
5770.0 0.00029891
5790.0 0.0002752
5810.0 0.00027951
5830.0 0.00029865
5850.0 0.00027362
5870.0 0.00027881
5890.0 0.00033949
5910.0 0.00032174
5930.0 0.00025929
5950.0 0.00022534
5970.0 0.00024845
5990.0 0.00023027
6010.0 0.00021778
6030.0 0.00022292
6050.0 0.0002064
6070.0 0.00015123
6090.0 0.00013623
6110.0 0.00018261
6130.0 0.00021241
6150.0 0.00022182
6170.0 0.00021212
6190.0 0.00019519
6210.0 0.0001934
6230.0 0.00023379
6250.0 0.00021602
6270.0 0.00019722
6290.0 0.00018247
6310.0 0.0001717
6330.0 0.00016255
6350.0 0.00014151
6370.0 0.00014047
6390.0 0.00016663
6410.0 0.0002087
6430.0 0.00024126
6450.0 0.00022657
6470.0 0.00022037
6490.0 0.00027928
6510.0 0.00032565
6530.0 0.00030691
6550.0 0.00029164
6570.0 0.0002963
6590.0 0.00028846
6610.0 0.0003139
6630.0 0.00029253
6650.0 0.00025304
6670.0 0.00022828
6690.0 0.00022558
6710.0 0.00028265
6730.0 0.00025557
6750.0 0.000211
6770.0 0.00018573
6790.0 0.00019621
6810.0 0.00022397
6830.0 0.00022019
6850.0 0.00019718
6870.0 0.00020637
6890.0 0.00020471
6910.0 0.00019258
6930.0 0.00022181
6950.0 0.00020317
6970.0 0.0001865
6990.0 0.00018455
7010.0 0.00017925
7030.0 0.00017121
7050.0 0.00016695
7070.0 0.00018581
7090.0 0.00017657
7110.0 0.00015017
7130.0 0.00012118
7150.0 0.0001125
7170.0 0.00015195
7190.0 0.00016517
7210.0 0.00015651
7230.0 0.00016196
7250.0 0.0001499
7270.0 0.00014212
7290.0 0.00015891
7310.0 0.00018046
7330.0 0.00017786
7350.0 0.00016554
7370.0 0.00015477
7390.0 0.00015902
7410.0 0.00018591
7430.0 0.00020523
7450.0 0.0002165
7470.0 0.00021196
7490.0 0.0002253
7510.0 0.00021927
7530.0 0.00021211
7550.0 0.0002091
7570.0 0.00018326
7590.0 0.00018008
7610.0 0.00017347
7630.0 0.00015722
7650.0 0.0001697
7670.0 0.00018526
7690.0 0.00020066
7710.0 0.00022661
7730.0 0.00023958
7750.0 0.00024924
7770.0 0.00025211
7790.0 0.00027641
7810.0 0.0002823
7830.0 0.00025432
7850.0 0.0002556
7870.0 0.00024361
7890.0 0.00025504
7910.0 0.00024102
7930.0 0.00024233
7950.0 0.00020755
7970.0 0.00021132
7990.0 0.00020169
8010.0 0.0002087
8030.0 0.00020715
8050.0 0.00021862
8070.0 0.00020908
8090.0 0.00020942
8110.0 0.00020503
8130.0 0.00020421
8150.0 0.00019334
8170.0 0.00018821
8190.0 0.00018614
8210.0 0.00018733
8230.0 0.00016372
8250.0 0.00014909
8270.0 0.00013121
8290.0 0.00011054
8310.0 9.6898e-05
8330.0 7.7481e-05
8350.0 6.3858e-05
8370.0 6.3447e-05
8390.0 6.2171e-05
8410.0 6.4675e-05
8430.0 8.1424e-05
8450.0 8.7668e-05
8470.0 9.3328e-05
8490.0 0.00010841
8510.0 0.00011769
8530.0 0.00013457
8550.0 0.00015879
8570.0 0.00017466
8590.0 0.00018445
8610.0 0.0002023
8630.0 0.00022619
8650.0 0.00023028
8670.0 0.00023348
8690.0 0.00024261
8710.0 0.00023811
8730.0 0.00023237
8750.0 0.00021591
8770.0 0.00021576
8790.0 0.00021259
8810.0 0.00019522
8830.0 0.00019571
8850.0 0.00018154
8870.0 0.00017367
8890.0 0.00015619
8910.0 0.00017074
8930.0 0.00015441
8950.0 0.00015294
8970.0 0.00015454
8990.0 0.00014917
9010.0 0.00015284
9030.0 0.00014568
9050.0 0.00014491
9070.0 0.00014486
9090.0 0.00014477
9110.0 0.00014477
9130.0 0.00014463
9150.0 0.00014444
9170.0 0.00014385
9190.0 0.00014267
9210.0 0.00014471
9230.0 0.00014398
9250.0 0.00014349
9270.0 0.00014305
9290.0 0.00014264
9310.0 0.00014224
9330.0 0.00014185
9350.0 0.00014145
9370.0 0.00014103
9390.0 0.00014061
9410.0 0.00014017
9430.0 0.00013972
9450.0 0.00013925
9470.0 0.00013878
9490.0 0.00013829
9510.0 0.00013779
9530.0 0.00013729
9550.0 0.00013677
9570.0 0.00013625
9590.0 0.00013572
9610.0 0.00013519
9630.0 0.00013465
9650.0 0.00013411
9670.0 0.00013356
9690.0 0.00013302
9710.0 0.00013247
9730.0 0.00013192
9750.0 0.00013137
9770.0 0.00013083
9790.0 0.00013028
9810.0 0.00012973
9830.0 0.00012919
9850.0 0.00012866
9870.0 0.00012812
9890.0 0.00012759
9910.0 0.00012707
9930.0 0.00012654
9950.0 0.00012576
9970.0 0.00012534
9990.0 0.00012491
10010.0 0.00012447
10030.0 0.00012402
10050.0 0.00012352
10070.0 0.00012285
10090.0 0.00012247
10110.0 0.00012209
10130.0 0.00012169
10150.0 0.0001213
10170.0 0.0001209
10190.0 0.00012048
10210.0 0.00012009
10230.0 0.00011971
10250.0 0.00011932
10270.0 0.00011895
10290.0 0.0001186
10310.0 0.00011825
10330.0 0.0001179
10350.0 0.00011757
10370.0 0.00011726
10390.0 0.00011695
10410.0 0.00011665
10430.0 0.00011637
10450.0 0.0001161
10470.0 0.00011583
10490.0 0.00011558
10510.0 0.00011535
10530.0 0.00011511
10550.0 0.00011488
10570.0 0.00011468
10590.0 0.00011448
10610.0 0.00011429
10630.0 0.00011411
10650.0 0.00011395
10670.0 0.00011378
10690.0 0.00011364
10710.0 0.0001135
10730.0 0.00011337
10750.0 0.00011325
10770.0 0.00011314
10790.0 0.00011305
10810.0 0.00011295
10830.0 0.00011287
10850.0 0.00011279
10870.0 0.00011269
10890.0 0.00011255
10910.0 0.00011236
10930.0 0.00011206
10950.0 0.00011156
10970.0 0.00011083
10990.0 0.00010984
11010.0 0.0001103
11030.0 0.00010857
11050.0 0.00010654
11070.0 0.00010418
11090.0 0.00010145
11110.0 9.8714e-05
11130.0 9.5969e-05
11150.0 9.3144e-05
11170.0 9.0378e-05
11190.0 8.7837e-05
11210.0 8.5356e-05
11230.0 8.2958e-05
11250.0 8.0799e-05
11270.0 7.8834e-05
11290.0 7.6956e-05
11310.0 7.5247e-05
11330.0 7.3785e-05
11350.0 7.2415e-05
11370.0 7.1133e-05
11390.0 6.9988e-05
11410.0 6.8927e-05
11430.0 6.7848e-05
11450.0 6.6812e-05
11470.0 6.5811e-05
11490.0 6.4768e-05
11510.0 6.3654e-05
11530.0 6.2549e-05
11550.0 6.1408e-05
11570.0 6.0165e-05
11590.0 5.8882e-05
11610.0 5.7601e-05
11630.0 5.6227e-05
11650.0 5.478e-05
11670.0 5.3383e-05
11690.0 5.1977e-05
11710.0 5.052e-05
11730.0 4.9095e-05
11750.0 4.7758e-05
11770.0 4.6401e-05
11790.0 4.5071e-05
11810.0 4.3842e-05
11830.0 4.2672e-05
11850.0 4.1496e-05
11870.0 4.0422e-05
11890.0 3.9445e-05
11910.0 3.8488e-05
11930.0 3.757e-05
11950.0 3.6739e-05
11970.0 3.5939e-05
11990.0 3.5136e-05
12010.0 3.439e-05
12030.0 3.369e-05
12050.0 3.2992e-05
12070.0 3.2304e-05
12090.0 3.1694e-05
12110.0 3.1104e-05
12130.0 3.0533e-05
12150.0 3.0023e-05
12170.0 2.9584e-05
12190.0 2.9176e-05
12210.0 2.8852e-05
12230.0 2.863e-05
12250.0 2.8499e-05
12270.0 2.8471e-05
12290.0 2.8565e-05
12310.0 2.8772e-05
12330.0 2.9104e-05
12350.0 2.9556e-05
12370.0 3.0104e-05
12390.0 3.0754e-05
12410.0 3.152e-05
12430.0 3.2319e-05
12450.0 3.3152e-05
12470.0 3.4031e-05
12490.0 3.4912e-05
12510.0 3.5745e-05
12530.0 3.6567e-05
12550.0 3.7356e-05
12570.0 3.8067e-05
12590.0 3.8709e-05
12610.0 3.9299e-05
12630.0 3.9812e-05
12650.0 4.0236e-05
12670.0 4.0601e-05
12690.0 4.09e-05
12710.0 4.1133e-05
12730.0 4.131e-05
12750.0 4.1429e-05
12770.0 4.1496e-05
12790.0 4.152e-05
12810.0 4.1493e-05
12830.0 4.1414e-05
12850.0 4.1301e-05
12870.0 4.1147e-05
12890.0 4.0935e-05
12910.0 4.068e-05
12930.0 4.0394e-05
12950.0 4.0042e-05
12970.0 3.9628e-05
12990.0 3.9194e-05
13010.0 3.8715e-05
13030.0 3.817e-05
13050.0 3.7597e-05
13070.0 3.7021e-05
13090.0 3.6391e-05
13110.0 3.5738e-05
13130.0 3.5108e-05
13150.0 3.4484e-05
13170.0 3.3844e-05
13190.0 3.3264e-05
13210.0 3.275e-05
13230.0 3.2274e-05
13250.0 3.1862e-05
13270.0 3.1542e-05
13290.0 3.1292e-05
13310.0 3.1109e-05
13330.0 3.101e-05
13350.0 3.0978e-05
13370.0 3.0996e-05
13390.0 3.1056e-05
13410.0 3.1139e-05
13430.0 3.1226e-05
13450.0 3.1302e-05
13470.0 3.135e-05
13490.0 3.136e-05
13510.0 3.1315e-05
13530.0 3.1211e-05
13550.0 3.1056e-05
13570.0 3.0844e-05
13590.0 3.0571e-05
13610.0 3.0266e-05
13630.0 2.9941e-05
13650.0 2.958e-05
13670.0 2.9211e-05
13690.0 2.8856e-05
13710.0 2.8504e-05
13730.0 2.8149e-05
13750.0 2.7834e-05
13770.0 2.7542e-05
13790.0 2.726e-05
13810.0 2.6996e-05
13830.0 2.6759e-05
13850.0 2.6522e-05
13870.0 2.6287e-05
13890.0 2.6062e-05
13910.0 2.5838e-05
13930.0 2.5601e-05
13950.0 2.5362e-05
13970.0 2.5131e-05
13990.0 2.4893e-05
14010.0 2.4652e-05
14030.0 2.4424e-05
14050.0 2.4206e-05
14070.0 2.3991e-05
14090.0 2.3798e-05
14110.0 2.3628e-05
14130.0 2.3477e-05
14150.0 2.3348e-05
14170.0 2.3247e-05
14190.0 2.3169e-05
14210.0 2.3114e-05
14230.0 2.3085e-05
14250.0 2.3078e-05
14270.0 2.3095e-05
14290.0 2.3139e-05
14310.0 2.3199e-05
14330.0 2.328e-05
14350.0 2.3384e-05
14370.0 2.3501e-05
14390.0 2.3623e-05
14410.0 2.3761e-05
14430.0 2.3906e-05
14450.0 2.4043e-05
14470.0 2.4179e-05
14490.0 2.4318e-05
14510.0 2.4441e-05
14530.0 2.4551e-05
14550.0 2.4659e-05
14570.0 2.4764e-05
14590.0 2.486e-05
14610.0 2.4963e-05
14630.0 2.5083e-05
14650.0 2.5211e-05
14670.0 2.5356e-05
14690.0 2.5537e-05
14710.0 2.5756e-05
14730.0 2.5991e-05
14750.0 2.6271e-05
14770.0 2.6601e-05
14790.0 2.6958e-05
14810.0 2.7338e-05
14830.0 2.7783e-05
14850.0 2.8246e-05
14870.0 2.8702e-05
14890.0 2.9173e-05
14910.0 2.9647e-05
14930.0 3.0072e-05
14950.0 3.0438e-05
14970.0 3.076e-05
14990.0 3.0994e-05
15010.0 3.1132e-05
15030.0 3.1191e-05
15050.0 3.1178e-05
15070.0 3.1096e-05
15090.0 3.0973e-05
15110.0 3.082e-05
15130.0 3.0649e-05
15150.0 3.047e-05
15170.0 3.0285e-05
15190.0 3.0097e-05
15210.0 2.9909e-05
15230.0 2.9722e-05
15250.0 2.9532e-05
15270.0 2.9344e-05
15290.0 2.9158e-05
15310.0 2.897e-05
15330.0 2.8783e-05
15350.0 2.8597e-05
15370.0 2.8412e-05
15390.0 2.8225e-05
15410.0 2.8039e-05
15430.0 2.7856e-05
15450.0 2.7672e-05
15470.0 2.7487e-05
15490.0 2.7305e-05
15510.0 2.7124e-05
15530.0 2.6942e-05
15550.0 2.6761e-05
15570.0 2.6583e-05
15590.0 2.6403e-05
15610.0 2.6224e-05
15630.0 2.6047e-05
15650.0 2.5871e-05
15670.0 2.5695e-05
15690.0 2.552e-05
15710.0 2.5348e-05
15730.0 2.5175e-05
15750.0 2.5002e-05
15770.0 2.4832e-05
15790.0 2.4663e-05
15810.0 2.4492e-05
15830.0 2.4325e-05
15850.0 2.4159e-05
15870.0 2.3993e-05
15890.0 2.3828e-05
15910.0 2.3666e-05
15930.0 2.3504e-05
15950.0 2.3342e-05
15970.0 2.3182e-05
15990.0 2.3024e-05
16010.0 2.2865e-05
16030.0 2.2707e-05
16050.0 2.2553e-05
16070.0 2.2399e-05
16090.0 2.2245e-05
16110.0 2.2094e-05
16130.0 2.1944e-05
16150.0 2.1793e-05
16170.0 2.1644e-05
16190.0 2.1498e-05
16210.0 2.1352e-05
16230.0 2.1206e-05
16250.0 2.1063e-05
16270.0 2.0922e-05
16290.0 2.0779e-05
16310.0 2.0639e-05
16330.0 2.0501e-05
16350.0 2.0363e-05
16370.0 2.0225e-05
16390.0 2.009e-05
16410.0 1.9957e-05
16430.0 1.9823e-05
16450.0 1.9691e-05
16470.0 1.9562e-05
16490.0 1.9432e-05
16510.0 1.9303e-05
16530.0 1.9176e-05
16550.0 1.9051e-05
16570.0 1.8925e-05
16590.0 1.88e-05
16610.0 1.8679e-05
16630.0 1.8558e-05
16650.0 1.8437e-05
16670.0 1.8318e-05
16690.0 1.8201e-05
16710.0 1.8082e-05
16730.0 1.7966e-05
16750.0 1.7852e-05
16770.0 1.7738e-05
16790.0 1.7624e-05
16810.0 1.7514e-05
16830.0 1.7404e-05
16850.0 1.7293e-05
16870.0 1.7185e-05
16890.0 1.7079e-05
16910.0 1.6971e-05
16930.0 1.6865e-05
16950.0 1.6761e-05
16970.0 1.6658e-05
16990.0 1.6555e-05
17010.0 1.6454e-05
17030.0 1.6354e-05
17050.0 1.6254e-05
17070.0 1.6155e-05
17090.0 1.6058e-05
17110.0 1.5962e-05
17130.0 1.5864e-05
17150.0 1.5769e-05
17170.0 1.5677e-05
17190.0 1.5583e-05
17210.0 1.549e-05
17230.0 1.54e-05
17250.0 1.531e-05
17270.0 1.5219e-05
17290.0 1.5131e-05
17310.0 1.5043e-05
17330.0 1.4956e-05
17350.0 1.4868e-05
17370.0 1.4784e-05
17390.0 1.47e-05
17410.0 1.4615e-05
17430.0 1.4533e-05
17450.0 1.4452e-05
17470.0 1.4368e-05
17490.0 1.4287e-05
17510.0 1.4208e-05
17530.0 1.4129e-05
17550.0 1.4049e-05
17570.0 1.3972e-05
17590.0 1.3896e-05
17610.0 1.3819e-05
17630.0 1.3743e-05
17650.0 1.3669e-05
17670.0 1.3595e-05
17690.0 1.3519e-05
17710.0 1.3447e-05
17730.0 1.3376e-05
17750.0 1.3303e-05
17770.0 1.3232e-05
17790.0 1.3163e-05
17810.0 1.3093e-05
17830.0 1.3023e-05
17850.0 1.2955e-05
17870.0 1.2888e-05
17890.0 1.282e-05
17910.0 1.2753e-05
17930.0 1.2688e-05
17950.0 1.2622e-05
17970.0 1.2557e-05
17990.0 1.2493e-05
18010.0 1.243e-05
18030.0 1.2365e-05
18050.0 1.2303e-05
18070.0 1.2241e-05
18090.0 1.2179e-05
18110.0 1.2117e-05
18130.0 1.2058e-05
18150.0 1.1998e-05
18170.0 1.1938e-05
18190.0 1.1879e-05
18210.0 1.1822e-05
18230.0 1.1763e-05
18250.0 1.1704e-05
18270.0 1.1648e-05
18290.0 1.1592e-05
18310.0 1.1535e-05
18330.0 1.1479e-05
18350.0 1.1425e-05
18370.0 1.137e-05
18390.0 1.1315e-05
18410.0 1.1262e-05
18430.0 1.1209e-05
18450.0 1.1154e-05
18470.0 1.1102e-05
18490.0 1.1051e-05
18510.0 1.0998e-05
18530.0 1.0947e-05
18550.0 1.0897e-05
18570.0 1.0846e-05
18590.0 1.0795e-05
18610.0 1.0745e-05
18630.0 1.0697e-05
18650.0 1.0647e-05
18670.0 1.0598e-05
18690.0 1.0551e-05
18710.0 1.0503e-05
18730.0 1.0454e-05
18750.0 1.0408e-05
18770.0 1.0362e-05
18790.0 1.0314e-05
18810.0 1.0267e-05
18830.0 1.0223e-05
18850.0 1.0177e-05
18870.0 1.0131e-05
18890.0 1.0087e-05
18910.0 1.0043e-05
18930.0 9.998e-06
18950.0 9.954e-06
18970.0 9.9113e-06
18990.0 9.8679e-06
19010.0 9.8232e-06
19030.0 9.7815e-06
19050.0 9.7397e-06
19070.0 9.6969e-06
19090.0 9.655e-06
19110.0 9.6149e-06
19130.0 9.5729e-06
19150.0 9.5311e-06
19170.0 9.491e-06
19190.0 9.451e-06
19210.0 9.4097e-06
19230.0 9.3695e-06
19250.0 9.3311e-06
19270.0 9.2914e-06
19290.0 9.2516e-06
19310.0 9.2136e-06
19330.0 9.1754e-06
19350.0 9.1354e-06
19370.0 9.0972e-06
19390.0 9.0601e-06
19410.0 9.0219e-06
19430.0 8.9835e-06
19450.0 8.9472e-06
19470.0 8.9105e-06
19490.0 8.8728e-06
19510.0 8.8363e-06
19530.0 8.8007e-06
19550.0 8.7636e-06
19570.0 8.7265e-06
19590.0 8.6916e-06
19610.0 8.6562e-06
19630.0 8.6199e-06
19650.0 8.5849e-06
19670.0 8.5509e-06
19690.0 8.5151e-06
19710.0 8.4798e-06
19730.0 8.446e-06
19750.0 8.4117e-06
19770.0 8.3761e-06
19790.0 8.3424e-06
19810.0 8.3093e-06
19830.0 8.2748e-06
19850.0 8.2402e-06
19870.0 8.2065e-06
19890.0 8.1699e-06
19910.0 8.1291e-06
19930.0 8.085e-06
19950.0 8.0337e-06
19970.0 7.9693e-06
19990.0 7.8909e-06
20010.0 7.8018e-06
20030.0 7.6941e-06
20050.0 7.5692e-06
20070.0 7.4362e-06
20090.0 7.2959e-06
20110.0 7.1407e-06
20130.0 6.9879e-06
20150.0 6.8409e-06
20170.0 6.6923e-06
20190.0 6.5456e-06
20210.0 6.4109e-06
20230.0 6.2827e-06
20250.0 6.1572e-06
20270.0 6.0439e-06
20290.0 5.9435e-06
20310.0 5.8509e-06
20330.0 5.7678e-06
20350.0 5.703e-06
20370.0 5.6499e-06
20390.0 5.6089e-06
20410.0 5.583e-06
20430.0 5.5714e-06
20450.0 5.5734e-06
20470.0 5.5903e-06
20490.0 5.6203e-06
20510.0 5.6634e-06
20530.0 5.7209e-06
20550.0 5.789e-06
20570.0 5.8644e-06
20590.0 5.9515e-06
20610.0 6.0461e-06
20630.0 6.1427e-06
20650.0 6.2437e-06
20670.0 6.3511e-06
20690.0 6.4535e-06
20710.0 6.5518e-06
20730.0 6.6489e-06
20750.0 6.7404e-06
20770.0 6.8212e-06
20790.0 6.8959e-06
20810.0 6.9637e-06
20830.0 7.0209e-06
20850.0 7.0688e-06
20870.0 7.11e-06
20890.0 7.1427e-06
20910.0 7.1669e-06
20930.0 7.1851e-06
20950.0 7.1977e-06
20970.0 7.2047e-06
20990.0 7.2071e-06
21010.0 7.205e-06
21030.0 7.1985e-06
21050.0 7.1885e-06
21070.0 7.1744e-06
21090.0 7.1555e-06
21110.0 7.134e-06
21130.0 7.1093e-06
21150.0 7.0805e-06
21170.0 7.0491e-06
21190.0 7.0169e-06
21210.0 6.9816e-06
21230.0 6.9446e-06
21250.0 6.9091e-06
21270.0 6.8744e-06
21290.0 6.8399e-06
21310.0 6.8079e-06
21330.0 6.7804e-06
21350.0 6.7551e-06
21370.0 6.7336e-06
21390.0 6.7174e-06
21410.0 6.7059e-06
21430.0 6.6988e-06
21450.0 6.6974e-06
21470.0 6.7011e-06
21490.0 6.7098e-06
21510.0 6.7236e-06
21530.0 6.7415e-06
21550.0 6.7637e-06
21570.0 6.7909e-06
21590.0 6.8216e-06
21610.0 6.8551e-06
21630.0 6.8929e-06
21650.0 6.9353e-06
21670.0 6.9782e-06
21690.0 7.0246e-06
21710.0 7.0753e-06
21730.0 7.128e-06
21750.0 7.1819e-06
21770.0 7.2419e-06
21790.0 7.3046e-06
21810.0 7.3682e-06
21830.0 7.4352e-06
21850.0 7.5074e-06
21870.0 7.5806e-06
21890.0 7.654e-06
21910.0 7.7325e-06
21930.0 7.813e-06
21950.0 7.8922e-06
21970.0 7.9733e-06
21990.0 8.0585e-06
22010.0 8.1393e-06
22030.0 8.2178e-06
22050.0 8.2965e-06
22070.0 8.372e-06
22090.0 8.4403e-06
22110.0 8.5051e-06
22130.0 8.5652e-06
22150.0 8.6163e-06
22170.0 8.6589e-06
22190.0 8.6939e-06
22210.0 8.7182e-06
22230.0 8.7311e-06
22250.0 8.7332e-06
22270.0 8.723e-06
22290.0 8.7014e-06
22310.0 8.6684e-06
22330.0 8.6209e-06
22350.0 8.5618e-06
22370.0 8.4931e-06
22390.0 8.4118e-06
22410.0 8.3166e-06
22430.0 8.2166e-06
22450.0 8.1089e-06
22470.0 7.9894e-06
22490.0 7.8647e-06
22510.0 7.7395e-06
22530.0 7.6049e-06
22550.0 7.4649e-06
22570.0 7.3295e-06
22590.0 7.1939e-06
22610.0 7.0544e-06
