#lamb flux
1010.0 7.1955e-06
1030.0 7.5367e-06
1050.0 8.3811e-06
1070.0 9.3206e-06
1090.0 1.0301e-05
1110.0 1.1281e-05
1130.0 1.224e-05
1150.0 1.3227e-05
1170.0 1.4221e-05
1190.0 1.5116e-05
1210.0 1.5993e-05
1230.0 1.6868e-05
1250.0 1.7694e-05
1270.0 1.8445e-05
1290.0 1.9215e-05
1310.0 1.9943e-05
1330.0 2.0596e-05
1350.0 2.1242e-05
1370.0 2.1915e-05
1390.0 2.2573e-05
1410.0 2.3235e-05
1430.0 2.3991e-05
1450.0 2.482e-05
1470.0 2.5712e-05
1490.0 2.6729e-05
1510.0 2.7934e-05
1530.0 2.9242e-05
1550.0 3.0708e-05
1570.0 3.2394e-05
1590.0 3.4282e-05
1610.0 3.6341e-05
1630.0 3.8679e-05
1650.0 4.1277e-05
1670.0 4.407e-05
1690.0 4.7077e-05
1710.0 5.0354e-05
1730.0 5.3851e-05
1750.0 5.7455e-05
1770.0 6.1258e-05
1790.0 6.5223e-05
1810.0 6.923e-05
1830.0 7.3251e-05
1850.0 7.7362e-05
1870.0 8.1369e-05
1890.0 8.5198e-05
1910.0 8.888e-05
1930.0 9.2372e-05
1950.0 9.5489e-05
1970.0 9.8244e-05
1990.0 0.00010069
2010.0 0.00010269
2030.0 0.00010419
2050.0 0.0001053
2070.0 0.00010602
2090.0 0.00010619
2110.0 0.00010594
2130.0 0.00010537
2150.0 0.00010441
2170.0 0.00010308
2190.0 0.00010156
2210.0 9.984e-05
2230.0 9.7903e-05
2250.0 9.5858e-05
2270.0 9.3815e-05
2290.0 9.1713e-05
2310.0 8.9587e-05
2330.0 8.7568e-05
2350.0 8.5656e-05
2370.0 8.383e-05
2390.0 8.2182e-05
2410.0 8.079e-05
2430.0 7.9604e-05
2450.0 7.8672e-05
2470.0 7.8104e-05
2490.0 7.7946e-05
2510.0 7.8142e-05
2530.0 7.8941e-05
2550.0 8.0668e-05
2570.0 8.3577e-05
2590.0 8.8049e-05
2610.0 9.5261e-05
2630.0 0.00010548
2650.0 0.00011831
2670.0 0.00013414
2690.0 0.00015273
2710.0 0.00017203
2730.0 0.00019109
2750.0 0.00021047
2770.0 0.00022889
2790.0 0.00024608
2810.0 0.00026328
2830.0 0.00028158
2850.0 0.00030002
2870.0 0.00031962
2890.0 0.00034123
2910.0 0.0003644
2930.0 0.00038839
2950.0 0.0004145
2970.0 0.00044257
2990.0 0.00047158
3010.0 0.00052329
3030.0 0.00055723
3050.0 0.00059251
3070.0 0.00062737
3090.0 0.00066265
3110.0 0.00069638
3130.0 0.00072583
3150.0 0.00074962
3170.0 0.00076514
3190.0 0.00077737
3210.0 0.0008021
3230.0 0.00083651
3250.0 0.00084616
3270.0 0.00082462
3290.0 0.00079551
3310.0 0.00078249
3330.0 0.00078074
3350.0 0.00078614
3370.0 0.00079513
3390.0 0.00081026
3410.0 0.00082095
3430.0 0.0008122
3450.0 0.00081368
3470.0 0.00082104
3490.0 0.00090757
3510.0 0.0011561
3530.0 0.0014298
3550.0 0.0016279
3570.0 0.0017838
3590.0 0.0018716
3610.0 0.0018546
3630.0 0.001812
3650.0 0.0019325
3670.0 0.0022457
3690.0 0.0025529
3710.0 0.0027832
3730.0 0.0029884
3750.0 0.0031823
3770.0 0.0031356
3790.0 0.0029171
3810.0 0.0027083
3830.0 0.0025245
3850.0 0.0024823
3870.0 0.0026671
3890.0 0.0029126
3910.0 0.0031029
3930.0 0.0033021
3950.0 0.0036851
3970.0 0.0039922
3990.0 0.0038291
4010.0 0.0033855
4030.0 0.0029586
4050.0 0.0027918
4070.0 0.0027602
4090.0 0.0027062
4110.0 0.0026887
4130.0 0.0026641
4150.0 0.0026768
4170.0 0.0028413
4190.0 0.0030825
4210.0 0.0030739
4230.0 0.0029732
4250.0 0.0029479
4270.0 0.0030151
4290.0 0.0031934
4310.0 0.0033621
4330.0 0.0032283
4350.0 0.0028452
4370.0 0.0025164
4390.0 0.0022412
4410.0 0.0019943
4430.0 0.0019479
4450.0 0.0020621
4470.0 0.0021776
4490.0 0.0023339
4510.0 0.0026715
4530.0 0.0034064
4550.0 0.0044629
4570.0 0.0051498
4590.0 0.0055608
4610.0 0.0062463
4630.0 0.0067913
4650.0 0.0064562
4670.0 0.0054273
4690.0 0.0044696
4710.0 0.003946
4730.0 0.0037102
4750.0 0.0034201
4770.0 0.0031813
4790.0 0.0033279
4810.0 0.0036304
4830.0 0.0037074
4850.0 0.0035288
4870.0 0.0035346
4890.0 0.0038005
4910.0 0.0040414
4930.0 0.0041292
4950.0 0.0040601
4970.0 0.0038243
4990.0 0.0034492
5010.0 0.0030976
5030.0 0.0028561
5050.0 0.0027157
5070.0 0.0026109
5090.0 0.0025079
5110.0 0.0024701
5130.0 0.0024689
5150.0 0.0025353
5170.0 0.002776
5190.0 0.003127
5210.0 0.003541
5230.0 0.0038551
5250.0 0.004065
5270.0 0.004321
5290.0 0.0046237
5310.0 0.0047756
5330.0 0.0046778
5350.0 0.0044631
5370.0 0.004432
5390.0 0.0046793
5410.0 0.0050788
5430.0 0.0054071
5450.0 0.0055852
5470.0 0.0056119
5490.0 0.0055005
5510.0 0.0053763
5530.0 0.0053011
5550.0 0.0052579
5570.0 0.0051847
5590.0 0.0050625
5610.0 0.0048826
5630.0 0.0045871
5650.0 0.0042051
5670.0 0.0039163
5690.0 0.0037883
5710.0 0.0037328
5730.0 0.0036582
5750.0 0.0035817
5770.0 0.0035351
5790.0 0.003541
5810.0 0.0035292
5830.0 0.0035311
5850.0 0.0035388
5870.0 0.0034594
5890.0 0.0033347
5910.0 0.0031675
5930.0 0.0028764
5950.0 0.0025809
5970.0 0.0024299
5990.0 0.0024192
6010.0 0.0024243
6030.0 0.0023451
6050.0 0.0022704
6070.0 0.0023575
6090.0 0.0025387
6110.0 0.002644
6130.0 0.0026028
6150.0 0.0024959
6170.0 0.0024226
6190.0 0.0023609
6210.0 0.0022468
6230.0 0.0020772
6250.0 0.001954
6270.0 0.0019287
6290.0 0.0019307
6310.0 0.0020099
6330.0 0.0021928
6350.0 0.0024129
6370.0 0.0025547
6390.0 0.0026317
6410.0 0.0027129
6430.0 0.0027766
6450.0 0.0028349
6470.0 0.0029028
6490.0 0.0029725
6510.0 0.0030284
6530.0 0.0030485
6550.0 0.0030477
6570.0 0.0029798
6590.0 0.0028385
6610.0 0.0027234
6630.0 0.0026486
6650.0 0.0025514
6670.0 0.0024223
6690.0 0.0023129
6710.0 0.0022551
6730.0 0.0022062
6750.0 0.0021629
6770.0 0.0021442
6790.0 0.002126
6810.0 0.0020781
6830.0 0.0020372
6850.0 0.0020725
6870.0 0.0021035
6890.0 0.002073
6910.0 0.002042
6930.0 0.0020177
6950.0 0.0019719
6970.0 0.0019018
6990.0 0.0018361
7010.0 0.0017955
7030.0 0.0017582
7050.0 0.001678
7070.0 0.001575
7090.0 0.0015486
7110.0 0.0016069
7130.0 0.0016988
7150.0 0.0017827
7170.0 0.0018477
7190.0 0.0018638
7210.0 0.0018103
7230.0 0.0017748
7250.0 0.0017973
7270.0 0.001789
7290.0 0.0017665
7310.0 0.0017826
7330.0 0.001843
7350.0 0.0019265
7370.0 0.001979
7390.0 0.0019987
7410.0 0.0019984
7430.0 0.0019589
7450.0 0.0018954
7470.0 0.0018376
7490.0 0.0017699
7510.0 0.0017117
7530.0 0.0016955
7550.0 0.0016954
7570.0 0.0016982
7590.0 0.0017163
7610.0 0.0017183
7630.0 0.0017191
7650.0 0.0017691
7670.0 0.0018434
7690.0 0.0019165
7710.0 0.0019768
7730.0 0.0020323
7750.0 0.0020926
7770.0 0.0021508
7790.0 0.0022005
7810.0 0.002221
7830.0 0.0021875
7850.0 0.0021171
7870.0 0.0020275
7890.0 0.0019395
7910.0 0.0018987
7930.0 0.0018717
7950.0 0.0018339
7970.0 0.0017963
7990.0 0.0017858
8010.0 0.0016841
8030.0 0.0016729
8050.0 0.0016585
8070.0 0.0016354
8090.0 0.0016134
8110.0 0.0016099
8130.0 0.0016156
8150.0 0.0016081
8170.0 0.0015936
8190.0 0.0015488
8210.0 0.0014622
8230.0 0.0013777
8250.0 0.0013352
8270.0 0.0012866
8290.0 0.001208
8310.0 0.0011395
8330.0 0.0010987
8350.0 0.0010675
8370.0 0.0010809
8390.0 0.001146
8410.0 0.0012219
8430.0 0.0013056
8450.0 0.0014049
8470.0 0.0014822
8490.0 0.0015611
8510.0 0.0016339
8530.0 0.0017047
8550.0 0.001764
8570.0 0.0018075
8590.0 0.0018428
8610.0 0.0018872
8630.0 0.0019013
8650.0 0.0018669
8670.0 0.0018707
8690.0 0.0019248
8710.0 0.0019916
8730.0 0.0020077
8750.0 0.0019717
8770.0 0.0019658
8790.0 0.0019623
8810.0 0.0019172
8830.0 0.0017822
8850.0 0.0016157
8870.0 0.0014958
8890.0 0.0014462
8910.0 0.0013847
8930.0 0.0012887
8950.0 0.001213
8970.0 0.0011928
8990.0 0.0012068
9010.0 0.001207
9030.0 0.0011956
9050.0 0.0011864
9070.0 0.0011798
9090.0 0.0011735
9110.0 0.0011674
9130.0 0.0011613
9150.0 0.0011552
9170.0 0.0011491
9190.0 0.0011433
9210.0 0.0011376
9230.0 0.0011316
9250.0 0.0011257
9270.0 0.0011199
9290.0 0.0011141
9310.0 0.0011084
9330.0 0.0011028
9350.0 0.0010972
9370.0 0.0010917
9390.0 0.0010862
9410.0 0.0010808
9430.0 0.0010752
9450.0 0.0010689
9470.0 0.0010628
9490.0 0.0010585
9510.0 0.0010536
9530.0 0.0010488
9550.0 0.0010438
9570.0 0.0010387
9590.0 0.0010337
9610.0 0.0010288
9630.0 0.0010237
9650.0 0.0010188
9670.0 0.0010139
9690.0 0.001009
9710.0 0.0010041
9730.0 0.00099931
9750.0 0.00099453
9770.0 0.00098965
9790.0 0.00098489
9810.0 0.0009802
9830.0 0.00097542
9850.0 0.00097045
9870.0 0.00096588
9890.0 0.00096129
9910.0 0.00095662
9930.0 0.000952
9950.0 0.00094695
9970.0 0.00094241
9990.0 0.00093777
10010.0 0.00093293
10030.0 0.00092822
10050.0 0.00092377
10070.0 0.00091931
10090.0 0.00091486
10110.0 0.00090988
10130.0 0.00090316
10150.0 0.00089887
10170.0 0.00089496
10190.0 0.00089056
10210.0 0.00088622
10230.0 0.00088183
10250.0 0.00087705
10270.0 0.00087224
10290.0 0.00086764
10310.0 0.00086275
10330.0 0.0008576
10350.0 0.00085276
10370.0 0.0008479
10390.0 0.00084276
10410.0 0.00083762
10430.0 0.00083277
10450.0 0.00082762
10470.0 0.0008223
10490.0 0.00081717
10510.0 0.00081204
10530.0 0.00080644
10550.0 0.00080099
10570.0 0.00079575
10590.0 0.00079024
10610.0 0.00078454
10630.0 0.0007791
10650.0 0.00077357
10670.0 0.00076764
10690.0 0.00076183
10710.0 0.00075614
10730.0 0.00075017
10750.0 0.0007439
10770.0 0.00073806
10790.0 0.00073205
10810.0 0.00072573
10830.0 0.00071949
10850.0 0.00071345
10870.0 0.00070688
10890.0 0.00070027
10910.0 0.00069392
10930.0 0.00068745
10950.0 0.00068069
10970.0 0.00067411
10990.0 0.00066783
11010.0 0.00064085
11030.0 0.00063383
11050.0 0.00062729
11070.0 0.00062089
11090.0 0.00061436
11110.0 0.00060848
11130.0 0.00060295
11150.0 0.00059751
11170.0 0.00059239
11190.0 0.00058784
11210.0 0.0005835
11230.0 0.00057939
11250.0 0.00057578
11270.0 0.00057255
11290.0 0.00056951
11310.0 0.00056678
11330.0 0.00056447
11350.0 0.00056231
11370.0 0.00056026
11390.0 0.0005584
11410.0 0.00055661
11430.0 0.00055471
11450.0 0.00055278
11470.0 0.00055079
11490.0 0.00054858
11510.0 0.00054607
11530.0 0.00054342
11550.0 0.00054051
11570.0 0.00053718
11590.0 0.00053355
11610.0 0.00052972
11630.0 0.0005254
11650.0 0.00052058
11670.0 0.00051561
11690.0 0.00051026
11710.0 0.00050434
11730.0 0.00049807
11750.0 0.00049164
11770.0 0.00048459
11790.0 0.00047702
11810.0 0.00046932
11830.0 0.0004613
11850.0 0.00045253
11870.0 0.00044374
11890.0 0.00043504
11910.0 0.00042597
11930.0 0.00041675
11950.0 0.00040793
11970.0 0.00039914
11990.0 0.00039021
12010.0 0.00038176
12030.0 0.00037379
12050.0 0.00036594
12070.0 0.00035833
12090.0 0.00035155
12110.0 0.00034507
12130.0 0.00033887
12150.0 0.00033325
12170.0 0.00032823
12190.0 0.00032342
12210.0 0.00031917
12230.0 0.00031558
12250.0 0.00031246
12270.0 0.00030981
12290.0 0.00030775
12310.0 0.00030622
12330.0 0.00030511
12350.0 0.00030447
12370.0 0.0003042
12390.0 0.00030427
12410.0 0.00030468
12430.0 0.00030527
12450.0 0.00030601
12470.0 0.00030693
12490.0 0.00030793
12510.0 0.00030891
12530.0 0.00030995
12550.0 0.000311
12570.0 0.00031193
12590.0 0.00031274
12610.0 0.00031347
12630.0 0.000314
12650.0 0.00031424
12670.0 0.00031424
12690.0 0.00031392
12710.0 0.00031324
12730.0 0.0003122
12750.0 0.00031073
12770.0 0.00030887
12790.0 0.00030667
12810.0 0.00030408
12830.0 0.0003011
12850.0 0.00029797
12870.0 0.00029466
12890.0 0.0002911
12910.0 0.00028749
12930.0 0.00028396
12950.0 0.00028033
12970.0 0.00027671
12990.0 0.00027333
13010.0 0.00027007
13030.0 0.00026686
13050.0 0.00026384
13070.0 0.00026105
13090.0 0.00025831
13110.0 0.00025568
13130.0 0.00025326
13150.0 0.00025095
13170.0 0.00024868
13190.0 0.00024658
13210.0 0.00024463
13230.0 0.00024274
13250.0 0.00024094
13270.0 0.00023928
13290.0 0.00023769
13310.0 0.00023612
13330.0 0.00023464
13350.0 0.00023322
13370.0 0.00023178
13390.0 0.00023031
13410.0 0.00022889
13430.0 0.0002274
13450.0 0.00022582
13470.0 0.0002242
13490.0 0.00022252
13510.0 0.00022066
13530.0 0.00021872
13550.0 0.00021674
13570.0 0.00021464
13590.0 0.0002124
13610.0 0.00021014
13630.0 0.00020788
13650.0 0.00020549
13670.0 0.00020308
13690.0 0.00020072
13710.0 0.00019833
13730.0 0.00019583
13750.0 0.00019348
13770.0 0.00019117
13790.0 0.00018882
13810.0 0.00018651
13830.0 0.00018434
13850.0 0.00018214
13870.0 0.00017997
13890.0 0.00017793
13910.0 0.00017599
13930.0 0.00017405
13950.0 0.00017224
13970.0 0.0001706
13990.0 0.00016903
14010.0 0.00016754
14030.0 0.00016621
14050.0 0.00016499
14070.0 0.0001638
14090.0 0.00016274
14110.0 0.00016178
14130.0 0.00016087
14150.0 0.00016
14170.0 0.00015921
14190.0 0.00015846
14210.0 0.00015772
14230.0 0.00015701
14250.0 0.00015634
14270.0 0.00015564
14290.0 0.00015495
14310.0 0.00015428
14330.0 0.00015361
14350.0 0.00015292
14370.0 0.00015223
14390.0 0.00015157
14410.0 0.00015088
14430.0 0.00015018
14450.0 0.00014952
14470.0 0.00014886
14490.0 0.00014818
14510.0 0.00014753
14530.0 0.0001469
14550.0 0.00014626
14570.0 0.0001456
14590.0 0.00014496
14610.0 0.00014428
14630.0 0.00014356
14650.0 0.00014284
14670.0 0.00014213
14690.0 0.00014139
14710.0 0.00014068
14730.0 0.00014009
14750.0 0.00013959
14770.0 0.00013923
14790.0 0.0001391
14810.0 0.00013923
14830.0 0.00013967
14850.0 0.00014047
14870.0 0.00014159
14890.0 0.00014308
14910.0 0.00014491
14930.0 0.00014692
14950.0 0.00014898
14970.0 0.0001511
14990.0 0.00015305
15010.0 0.0001547
15030.0 0.00015608
15050.0 0.00015717
15070.0 0.00015794
15090.0 0.0001585
15110.0 0.00015893
15130.0 0.00015926
15150.0 0.00015955
15170.0 0.00015981
15190.0 0.00016007
15210.0 0.00016033
15230.0 0.00016059
15250.0 0.00016085
15270.0 0.00016112
15290.0 0.0001614
15310.0 0.00016169
15330.0 0.00016198
15350.0 0.00016227
15370.0 0.00016258
15390.0 0.00016288
15410.0 0.00016319
15430.0 0.00016351
15450.0 0.00016384
15470.0 0.00016416
15490.0 0.0001645
15510.0 0.00016484
15530.0 0.00016518
15550.0 0.00016553
15570.0 0.00016589
15590.0 0.00016624
15610.0 0.00016661
15630.0 0.00016698
15650.0 0.00016735
15670.0 0.00016773
15690.0 0.00016811
15710.0 0.0001685
15730.0 0.00016889
15750.0 0.00016928
15770.0 0.00016968
15790.0 0.00017009
15810.0 0.00017049
15830.0 0.0001709
15850.0 0.00017132
15870.0 0.00017174
15890.0 0.00017216
15910.0 0.00017258
15930.0 0.00017301
15950.0 0.00017344
15970.0 0.00017387
15990.0 0.00017431
16010.0 0.00017475
16030.0 0.00017519
16050.0 0.00017564
16070.0 0.00017608
16090.0 0.00017653
16110.0 0.00017698
16130.0 0.00017744
16150.0 0.00017789
16170.0 0.00017835
16190.0 0.0001788
16210.0 0.00017926
16230.0 0.00017972
16250.0 0.00018018
16270.0 0.00018065
16290.0 0.00018111
16310.0 0.00018157
16330.0 0.00018204
16350.0 0.0001825
16370.0 0.00018297
16390.0 0.00018343
16410.0 0.0001839
16430.0 0.00018436
16450.0 0.00018482
16470.0 0.00018529
16490.0 0.00018575
16510.0 0.00018621
16530.0 0.00018667
16550.0 0.00018713
16570.0 0.00018758
16590.0 0.00018804
16610.0 0.00018849
16630.0 0.00018895
16650.0 0.00018939
16670.0 0.00018984
16690.0 0.00019029
16710.0 0.00019073
16730.0 0.00019117
16750.0 0.00019161
16770.0 0.00019204
16790.0 0.00019247
16810.0 0.00019289
16830.0 0.00019332
16850.0 0.00019374
16870.0 0.00019415
16890.0 0.00019456
16910.0 0.00019497
16930.0 0.00019537
16950.0 0.00019577
16970.0 0.00019616
16990.0 0.00019655
17010.0 0.00019693
17030.0 0.0001973
17050.0 0.00019767
17070.0 0.00019804
17090.0 0.0001984
17110.0 0.00019875
17130.0 0.0001991
17150.0 0.00019944
17170.0 0.00019977
17190.0 0.0002001
17210.0 0.00020042
17230.0 0.00020074
17250.0 0.00020104
17270.0 0.00020134
17290.0 0.00020163
17310.0 0.00020192
17330.0 0.00020219
17350.0 0.00020246
17370.0 0.00020272
17390.0 0.00020297
17410.0 0.00020322
17430.0 0.00020345
17450.0 0.00020368
17470.0 0.0002039
17490.0 0.0002041
17510.0 0.00020431
17530.0 0.0002045
17550.0 0.00020468
17570.0 0.00020485
17590.0 0.00020501
17610.0 0.00020517
17630.0 0.00020531
17650.0 0.00020545
17670.0 0.00020557
17690.0 0.00020568
17710.0 0.00020579
17730.0 0.00020588
17750.0 0.00020597
17770.0 0.00020604
17790.0 0.0002061
17810.0 0.00020616
17830.0 0.0002062
17850.0 0.00020623
17870.0 0.00020625
17890.0 0.00020626
17910.0 0.00020626
17930.0 0.00020625
17950.0 0.00020622
17970.0 0.00020619
17990.0 0.00020614
18010.0 0.00020609
18030.0 0.00020602
18050.0 0.00020594
18070.0 0.00020585
18090.0 0.00020575
18110.0 0.00020564
18130.0 0.00020552
18150.0 0.00020538
18170.0 0.00020524
18190.0 0.00020508
18210.0 0.00020491
18230.0 0.00020473
18250.0 0.00020454
18270.0 0.00020434
18290.0 0.00020412
18310.0 0.0002039
18330.0 0.00020366
18350.0 0.00020341
18370.0 0.00020315
18390.0 0.00020288
18410.0 0.0002026
18430.0 0.00020231
18450.0 0.00020201
18470.0 0.00020169
18490.0 0.00020137
18510.0 0.00020103
18530.0 0.00020068
18550.0 0.00020032
18570.0 0.00019995
18590.0 0.00019957
18610.0 0.00019918
18630.0 0.00019878
18650.0 0.00019837
18670.0 0.00019794
18690.0 0.00019751
18710.0 0.00019707
18730.0 0.00019661
18750.0 0.00019615
18770.0 0.00019568
18790.0 0.00019519
18810.0 0.00019469
18830.0 0.00019419
18850.0 0.00019368
18870.0 0.00019315
18890.0 0.00019262
18910.0 0.00019208
18930.0 0.00019153
18950.0 0.00019096
18970.0 0.00019039
18990.0 0.00018982
19010.0 0.00018923
19030.0 0.00018863
19050.0 0.00018802
19070.0 0.00018741
19090.0 0.00018679
19110.0 0.00018616
19130.0 0.00018552
19150.0 0.00018487
19170.0 0.00018421
19190.0 0.00018355
19210.0 0.00018288
19230.0 0.0001822
19250.0 0.00018152
19270.0 0.00018082
19290.0 0.00018012
19310.0 0.00017942
19330.0 0.0001787
19350.0 0.00017798
19370.0 0.00017726
19390.0 0.00017652
19410.0 0.00017578
19430.0 0.00017504
19450.0 0.00017428
19470.0 0.00017353
19490.0 0.00017276
19510.0 0.00017199
19530.0 0.00017122
19550.0 0.00017044
19570.0 0.00016965
19590.0 0.00016886
19610.0 0.00016807
19630.0 0.00016727
19650.0 0.00016647
19670.0 0.00016566
19690.0 0.00016485
19710.0 0.00016403
19730.0 0.00016321
19750.0 0.00016238
19770.0 0.00016155
19790.0 0.00016072
19810.0 0.00015989
19830.0 0.00015905
19850.0 0.00015819
19870.0 0.00015733
19890.0 0.00015643
19910.0 0.00015548
19930.0 0.00015446
19950.0 0.00015332
19970.0 0.00015199
19990.0 0.00015046
20010.0 0.00014875
20030.0 0.00014678
20050.0 0.00014456
20070.0 0.00014222
20090.0 0.00013977
20110.0 0.00013713
20130.0 0.00013451
20150.0 0.00013194
20170.0 0.00012934
20190.0 0.00012675
20210.0 0.00012428
20230.0 0.00012187
20250.0 0.00011944
20270.0 0.00011713
20290.0 0.00011493
20310.0 0.00011278
20330.0 0.00011066
20350.0 0.00010873
20370.0 0.00010688
20390.0 0.00010509
20410.0 0.00010342
20430.0 0.00010189
20450.0 0.0001004
20470.0 9.9025e-05
20490.0 9.7772e-05
20510.0 9.6607e-05
20530.0 9.5517e-05
20550.0 9.4526e-05
20570.0 9.3625e-05
20590.0 9.2784e-05
20610.0 9.2011e-05
20630.0 9.13e-05
20650.0 9.0636e-05
20670.0 9.0014e-05
20690.0 8.9427e-05
20710.0 8.8862e-05
20730.0 8.8314e-05
20750.0 8.7774e-05
20770.0 8.7231e-05
20790.0 8.6682e-05
20810.0 8.612e-05
20830.0 8.5536e-05
20850.0 8.4928e-05
20870.0 8.4289e-05
20890.0 8.3616e-05
20910.0 8.2912e-05
20930.0 8.2172e-05
20950.0 8.1389e-05
20970.0 8.0578e-05
20990.0 7.9738e-05
21010.0 7.8851e-05
21030.0 7.7938e-05
21050.0 7.7009e-05
21070.0 7.6051e-05
21090.0 7.5057e-05
21110.0 7.4069e-05
21130.0 7.3074e-05
21150.0 7.2053e-05
21170.0 7.1032e-05
21190.0 7.0028e-05
21210.0 6.9007e-05
21230.0 6.798e-05
21250.0 6.6981e-05
21270.0 6.5995e-05
21290.0 6.5003e-05
21310.0 6.4032e-05
21330.0 6.3098e-05
21350.0 6.2168e-05
21370.0 6.1252e-05
21390.0 6.0375e-05
21410.0 5.9525e-05
21430.0 5.868e-05
21450.0 5.7877e-05
21470.0 5.7115e-05
21490.0 5.6375e-05
21510.0 5.5663e-05
21530.0 5.4994e-05
21550.0 5.4354e-05
21570.0 5.3736e-05
21590.0 5.3153e-05
21610.0 5.2601e-05
21630.0 5.2071e-05
21650.0 5.1561e-05
21670.0 5.1078e-05
21690.0 5.0611e-05
21710.0 5.0157e-05
21730.0 4.9717e-05
21750.0 4.9287e-05
21770.0 4.8863e-05
21790.0 4.8444e-05
21810.0 4.803e-05
21830.0 4.7618e-05
21850.0 4.7204e-05
21870.0 4.6791e-05
21890.0 4.6379e-05
21910.0 4.5962e-05
21930.0 4.5543e-05
21950.0 4.5123e-05
21970.0 4.4699e-05
21990.0 4.4266e-05
22010.0 4.3833e-05
22030.0 4.3397e-05
22050.0 4.2951e-05
22070.0 4.2499e-05
22090.0 4.2047e-05
22110.0 4.1584e-05
22130.0 4.1109e-05
22150.0 4.0632e-05
22170.0 4.0149e-05
22190.0 3.9649e-05
22210.0 3.9141e-05
22230.0 3.8635e-05
22250.0 3.8117e-05
22270.0 3.7586e-05
22290.0 3.7056e-05
22310.0 3.6523e-05
22330.0 3.5972e-05
22350.0 3.542e-05
22370.0 3.4872e-05
22390.0 3.4315e-05
22410.0 3.3746e-05
22430.0 3.3191e-05
22450.0 3.2637e-05
22470.0 3.2072e-05
22490.0 3.1513e-05
22510.0 3.0969e-05
22530.0 3.0415e-05
22550.0 2.9862e-05
22570.0 2.9329e-05
22590.0 2.8805e-05
22610.0 2.8281e-05
22630.0 2.7772e-05
22650.0 2.7288e-05
22670.0 2.6808e-05
22690.0 2.634e-05
22710.0 2.5898e-05
22730.0 2.5474e-05
22750.0 2.5054e-05
22770.0 2.4662e-05
22790.0 2.4294e-05
22810.0 2.3939e-05
22830.0 2.36e-05
22850.0 2.3286e-05
22870.0 2.2986e-05
22890.0 2.2698e-05
22910.0 2.2428e-05
22930.0 2.2174e-05
