#lamb flux
1010.0 4.0423e-06
1030.0 4.4492e-06
1050.0 4.9172e-06
1070.0 5.4441e-06
1090.0 6.0425e-06
1110.0 6.6563e-06
1130.0 7.274e-06
1150.0 7.921e-06
1170.0 8.5885e-06
1190.0 9.2213e-06
1210.0 9.8627e-06
1230.0 1.0525e-05
1250.0 1.1175e-05
1270.0 1.1805e-05
1290.0 1.2472e-05
1310.0 1.3137e-05
1330.0 1.3776e-05
1350.0 1.4421e-05
1370.0 1.5088e-05
1390.0 1.5737e-05
1410.0 1.6368e-05
1430.0 1.7026e-05
1450.0 1.7685e-05
1470.0 1.8322e-05
1490.0 1.8965e-05
1510.0 1.9644e-05
1530.0 2.0288e-05
1550.0 2.0923e-05
1570.0 2.1579e-05
1590.0 2.2236e-05
1610.0 2.2863e-05
1630.0 2.351e-05
1650.0 2.4173e-05
1670.0 2.4814e-05
1690.0 2.5447e-05
1710.0 2.6103e-05
1730.0 2.6763e-05
1750.0 2.7382e-05
1770.0 2.8019e-05
1790.0 2.8668e-05
1810.0 2.9294e-05
1830.0 2.9908e-05
1850.0 3.0559e-05
1870.0 3.1191e-05
1890.0 3.1799e-05
1910.0 3.2416e-05
1930.0 3.3046e-05
1950.0 3.3643e-05
1970.0 3.4229e-05
1990.0 3.4833e-05
2010.0 3.5422e-05
2030.0 3.5983e-05
2050.0 3.6556e-05
2070.0 3.7137e-05
2090.0 3.7674e-05
2110.0 3.82e-05
2130.0 3.8735e-05
2150.0 3.9248e-05
2170.0 3.9723e-05
2190.0 4.0207e-05
2210.0 4.0682e-05
2230.0 4.1118e-05
2250.0 4.1537e-05
2270.0 4.1965e-05
2290.0 4.2357e-05
2310.0 4.2706e-05
2330.0 4.3056e-05
2350.0 4.3392e-05
2370.0 4.3688e-05
2390.0 4.3977e-05
2410.0 4.4291e-05
2430.0 4.4597e-05
2450.0 4.4919e-05
2470.0 4.5322e-05
2490.0 4.5858e-05
2510.0 4.6535e-05
2530.0 4.7574e-05
2550.0 4.9307e-05
2570.0 5.2015e-05
2590.0 5.6029e-05
2610.0 6.2318e-05
2630.0 7.0945e-05
2650.0 8.129e-05
2670.0 9.3346e-05
2690.0 0.00010651
2710.0 0.00011884
2730.0 0.00012951
2750.0 0.00013873
2770.0 0.00014564
2790.0 0.00015029
2810.0 0.00015352
2830.0 0.00015588
2850.0 0.00015735
2870.0 0.00015849
2890.0 0.00015962
2910.0 0.00016067
2930.0 0.00016155
2950.0 0.00016253
2970.0 0.00016355
2990.0 0.00016443
3010.0 0.0017767
3030.0 0.0017865
3050.0 0.0017955
3070.0 0.0018013
3090.0 0.0018058
3110.0 0.0018065
3130.0 0.0018004
3150.0 0.0017867
3170.0 0.0017641
3190.0 0.001733
3210.0 0.0016976
3230.0 0.0016618
3250.0 0.0016205
3270.0 0.0016053
3290.0 0.0015879
3310.0 0.0016204
3330.0 0.0016589
3350.0 0.0017113
3370.0 0.0017803
3390.0 0.0018631
3410.0 0.0019498
3430.0 0.0020435
3450.0 0.0021468
3470.0 0.002254
3490.0 0.0023628
3510.0 0.0024766
3530.0 0.0025907
3550.0 0.0027157
3570.0 0.0028525
3590.0 0.0029816
3610.0 0.003142
3630.0 0.0032652
3650.0 0.0033974
3670.0 0.0035047
3690.0 0.0036011
3710.0 0.0036807
3730.0 0.0036889
3750.0 0.0036948
3770.0 0.0035628
3790.0 0.0034856
3810.0 0.003391
3830.0 0.0030702
3850.0 0.0028402
3870.0 0.0030341
3890.0 0.003588
3910.0 0.004547
3930.0 0.0053265
3950.0 0.0057112
3970.0 0.0054695
3990.0 0.0051061
4010.0 0.0053513
4030.0 0.005775
4050.0 0.0059915
4070.0 0.0053958
4090.0 0.0044669
4110.0 0.0047728
4130.0 0.0052994
4150.0 0.0055315
4170.0 0.0053546
4190.0 0.005126
4210.0 0.0055981
4230.0 0.0060896
4250.0 0.0062913
4270.0 0.0064832
4290.0 0.0063049
4310.0 0.0065635
4330.0 0.0072525
4350.0 0.0084785
4370.0 0.0091631
4390.0 0.0086842
4410.0 0.0073221
4430.0 0.0061923
4450.0 0.0050611
4470.0 0.0048784
4490.0 0.0054665
4510.0 0.0066674
4530.0 0.0072195
4550.0 0.0076911
4570.0 0.0089765
4590.0 0.011277
4610.0 0.015022
4630.0 0.017996
4650.0 0.018101
4670.0 0.018244
4690.0 0.019752
4710.0 0.019753
4730.0 0.016113
4750.0 0.011922
4770.0 0.0098239
4790.0 0.009322
4810.0 0.008674
4830.0 0.0088454
4850.0 0.010435
4870.0 0.01308
4890.0 0.013869
4910.0 0.011946
4930.0 0.011489
4950.0 0.013738
4970.0 0.018103
4990.0 0.021688
5010.0 0.021934
5030.0 0.017773
5050.0 0.012233
5070.0 0.0090043
5090.0 0.0078485
5110.0 0.0078714
5130.0 0.0085679
5150.0 0.0086131
5170.0 0.0085787
5190.0 0.0084994
5210.0 0.0083594
5230.0 0.008794
5250.0 0.0093397
5270.0 0.010674
5290.0 0.01259
5310.0 0.013632
5330.0 0.014114
5350.0 0.014952
5370.0 0.016279
5390.0 0.016676
5410.0 0.015285
5430.0 0.013601
5450.0 0.013446
5470.0 0.016103
5490.0 0.020658
5510.0 0.02504
5530.0 0.02681
5550.0 0.025908
5570.0 0.023994
5590.0 0.021911
5610.0 0.020954
5630.0 0.021026
5650.0 0.021339
5670.0 0.020854
5690.0 0.019835
5710.0 0.019032
5730.0 0.016737
5750.0 0.012853
5770.0 0.011488
5790.0 0.01268
5810.0 0.014631
5830.0 0.016436
5850.0 0.017372
5870.0 0.017197
5890.0 0.015919
5910.0 0.015229
5930.0 0.015478
5950.0 0.016347
5970.0 0.016693
5990.0 0.015145
6010.0 0.01239
6030.0 0.010098
6050.0 0.0092299
6070.0 0.0097342
6090.0 0.01087
6110.0 0.011032
6130.0 0.010227
6150.0 0.010031
6170.0 0.011131
6190.0 0.013311
6210.0 0.01599
6230.0 0.017761
6250.0 0.017373
6270.0 0.015405
6290.0 0.012675
6310.0 0.010075
6330.0 0.0083935
6350.0 0.0080409
6370.0 0.0088333
6390.0 0.0099879
6410.0 0.011584
6430.0 0.013661
6450.0 0.016405
6470.0 0.020141
6490.0 0.023959
6510.0 0.02525
6530.0 0.023879
6550.0 0.022872
6570.0 0.022832
6590.0 0.022141
6610.0 0.020536
6630.0 0.019138
6650.0 0.018223
6670.0 0.018268
6690.0 0.017846
6710.0 0.015993
6730.0 0.013951
6750.0 0.012685
6770.0 0.013252
6790.0 0.014179
6810.0 0.014938
6830.0 0.015182
6850.0 0.014581
6870.0 0.013922
6890.0 0.013564
6910.0 0.012873
6930.0 0.01235
6950.0 0.012477
6970.0 0.012905
6990.0 0.014041
7010.0 0.01489
7030.0 0.014326
7050.0 0.013094
7070.0 0.011445
7090.0 0.0096512
7110.0 0.0088912
7130.0 0.0093552
7150.0 0.009923
7170.0 0.010024
7190.0 0.0097549
7210.0 0.0097386
7230.0 0.011
7250.0 0.012805
7270.0 0.01423
7290.0 0.014714
7310.0 0.013714
7330.0 0.012333
7350.0 0.011308
7370.0 0.011057
7390.0 0.011363
7410.0 0.012092
7430.0 0.013448
7450.0 0.015006
7470.0 0.016676
7490.0 0.017859
7510.0 0.015909
7530.0 0.01488
7550.0 0.01303
7570.0 0.01106
7590.0 0.0090207
7610.0 0.0085786
7630.0 0.0092546
7650.0 0.01055
7670.0 0.012016
7690.0 0.013264
7710.0 0.014766
7730.0 0.015861
7750.0 0.016535
7770.0 0.016602
7790.0 0.016524
7810.0 0.016731
7830.0 0.016389
7850.0 0.015781
7870.0 0.014946
7890.0 0.013735
7910.0 0.012336
7930.0 0.010963
7950.0 0.0098906
7970.0 0.009597
7990.0 0.0099968
8010.0 0.010624
8030.0 0.010747
8050.0 0.010963
8070.0 0.010851
8090.0 0.010836
8110.0 0.010494
8130.0 0.0098178
8150.0 0.0092221
8170.0 0.0091374
8190.0 0.0092903
8210.0 0.0093953
8230.0 0.009159
8250.0 0.0087671
8270.0 0.0077342
8290.0 0.0062011
8310.0 0.0046348
8330.0 0.0031735
8350.0 0.002304
8370.0 0.002258
8390.0 0.0026829
8410.0 0.0033334
8430.0 0.0041051
8450.0 0.0045258
8470.0 0.0047919
8490.0 0.0050908
8510.0 0.005393
8530.0 0.0059749
8550.0 0.0070153
8570.0 0.0081911
8590.0 0.0092948
8610.0 0.010817
8630.0 0.012556
8650.0 0.01348
8670.0 0.013564
8690.0 0.013233
8710.0 0.012638
8730.0 0.012126
8750.0 0.011565
8770.0 0.011291
8790.0 0.010866
8810.0 0.010084
8830.0 0.0093024
8850.0 0.0080085
8870.0 0.0071703
8890.0 0.0066637
8910.0 0.0071154
8930.0 0.0069155
8950.0 0.0070831
8970.0 0.0071828
8990.0 0.0072345
9010.0 0.0073349
9030.0 0.0071818
9050.0 0.0071716
9070.0 0.0071775
9090.0 0.0071838
9110.0 0.0071898
9130.0 0.0071971
9150.0 0.0072063
9170.0 0.00721
9190.0 0.0072062
9210.0 0.0072563
9230.0 0.0072588
9250.0 0.0072671
9270.0 0.0072774
9290.0 0.0072893
9310.0 0.0073027
9330.0 0.0073172
9350.0 0.0073325
9370.0 0.0073488
9390.0 0.0073658
9410.0 0.0073834
9430.0 0.0074018
9450.0 0.0074209
9470.0 0.0074406
9490.0 0.007461
9510.0 0.0074819
9530.0 0.0075037
9550.0 0.0075259
9570.0 0.0075488
9590.0 0.0075723
9610.0 0.0075964
9630.0 0.0076211
9650.0 0.0076463
9670.0 0.0076721
9690.0 0.0076985
9710.0 0.0077253
9730.0 0.0077527
9750.0 0.0077805
9770.0 0.0078088
9790.0 0.0078375
9810.0 0.0078666
9830.0 0.0078962
9850.0 0.0079261
9870.0 0.0079563
9890.0 0.0079869
9910.0 0.0080177
9930.0 0.0080488
9950.0 0.0080773
9970.0 0.0081097
9990.0 0.0081421
10010.0 0.0081694
10030.0 0.0082016
10050.0 0.0082316
10070.0 0.0082502
10090.0 0.0082871
10110.0 0.0083232
10130.0 0.0083579
10150.0 0.0083921
10170.0 0.008425
10190.0 0.0084565
10210.0 0.0084885
10230.0 0.0085203
10250.0 0.0085509
10270.0 0.0085814
10290.0 0.0086122
10310.0 0.008642
10330.0 0.0086707
10350.0 0.0087
10370.0 0.0087288
10390.0 0.0087564
10410.0 0.0087835
10430.0 0.0088111
10450.0 0.0088372
10470.0 0.0088623
10490.0 0.0088874
10510.0 0.0089119
10530.0 0.0089345
10550.0 0.0089568
10570.0 0.0089792
10590.0 0.009
10610.0 0.0090196
10630.0 0.0090392
10650.0 0.0090577
10670.0 0.0090744
10690.0 0.0090906
10710.0 0.0091064
10730.0 0.0091205
10750.0 0.0091329
10770.0 0.0091456
10790.0 0.009157
10810.0 0.0091664
10830.0 0.0091748
10850.0 0.0091821
10870.0 0.0091848
10890.0 0.0091825
10910.0 0.0091731
10930.0 0.0091507
10950.0 0.0091069
10970.0 0.0090384
10990.0 0.0089432
11010.0 0.0086851
11030.0 0.008505
11050.0 0.0082989
11070.0 0.0080628
11090.0 0.0077894
11110.0 0.0075167
11130.0 0.0072427
11150.0 0.0069602
11170.0 0.0066841
11190.0 0.0064322
11210.0 0.0061892
11230.0 0.0059589
11250.0 0.0057574
11270.0 0.0055804
11290.0 0.0054188
11310.0 0.0052795
11330.0 0.0051667
11350.0 0.0050664
11370.0 0.0049768
11390.0 0.0048985
11410.0 0.0048255
11430.0 0.0047488
11450.0 0.0046703
11470.0 0.0045885
11490.0 0.0044971
11510.0 0.0043935
11530.0 0.0042851
11550.0 0.0041697
11570.0 0.0040427
11590.0 0.0039117
11610.0 0.0037822
11630.0 0.0036475
11650.0 0.0035117
11670.0 0.0033861
11690.0 0.0032664
11710.0 0.0031504
11730.0 0.0030443
11750.0 0.0029505
11770.0 0.0028619
11790.0 0.0027808
11810.0 0.0027095
11830.0 0.0026444
11850.0 0.0025813
11870.0 0.0025237
11890.0 0.0024698
11910.0 0.0024152
11930.0 0.0023597
11950.0 0.002305
11970.0 0.0022482
11990.0 0.0021872
12010.0 0.0021257
12030.0 0.0020639
12050.0 0.0019997
12070.0 0.0019344
12090.0 0.0018743
12110.0 0.0018161
12130.0 0.0017609
12150.0 0.0017127
12170.0 0.0016725
12190.0 0.0016388
12210.0 0.0016154
12230.0 0.0016026
12250.0 0.0016001
12270.0 0.0016089
12290.0 0.001628
12310.0 0.0016556
12330.0 0.0016938
12350.0 0.0017398
12370.0 0.00179
12390.0 0.0018454
12410.0 0.0019071
12430.0 0.0019659
12450.0 0.0020229
12470.0 0.0020793
12490.0 0.0021312
12510.0 0.002175
12530.0 0.002214
12550.0 0.0022465
12570.0 0.0022695
12590.0 0.0022843
12610.0 0.0022916
12630.0 0.0022903
12650.0 0.002281
12670.0 0.0022649
12690.0 0.0022421
12710.0 0.0022139
12730.0 0.0021814
12750.0 0.0021433
12770.0 0.0021024
12790.0 0.00206
12810.0 0.0020148
12830.0 0.001967
12850.0 0.0019197
12870.0 0.0018718
12890.0 0.0018214
12910.0 0.0017706
12930.0 0.0017203
12950.0 0.0016673
12970.0 0.0016123
12990.0 0.0015587
13010.0 0.0015043
13030.0 0.001448
13050.0 0.0013926
13070.0 0.0013398
13090.0 0.0012865
13110.0 0.0012351
13130.0 0.0011882
13150.0 0.0011448
13170.0 0.0011042
13190.0 0.00107
13210.0 0.001042
13230.0 0.001019
13250.0 0.0010019
13270.0 0.00099105
13290.0 0.00098551
13310.0 0.00098542
13330.0 0.00099009
13350.0 0.00099857
13370.0 0.0010109
13390.0 0.0010264
13410.0 0.0010425
13430.0 0.0010601
13450.0 0.0010788
13470.0 0.0010967
13490.0 0.0011133
13510.0 0.0011301
13530.0 0.001145
13550.0 0.0011577
13570.0 0.0011689
13590.0 0.0011788
13610.0 0.0011866
13630.0 0.0011927
13650.0 0.0011978
13670.0 0.0012015
13690.0 0.0012038
13710.0 0.0012052
13730.0 0.0012058
13750.0 0.0012051
13770.0 0.0012034
13790.0 0.0012008
13810.0 0.001197
13830.0 0.0011921
13850.0 0.001186
13870.0 0.0011784
13890.0 0.0011697
13910.0 0.0011597
13930.0 0.0011483
13950.0 0.0011357
13970.0 0.0011228
13990.0 0.0011089
14010.0 0.0010946
14030.0 0.0010805
14050.0 0.0010668
14070.0 0.0010531
14090.0 0.0010405
14110.0 0.0010292
14130.0 0.001019
14150.0 0.0010099
14170.0 0.0010026
14190.0 0.0009967
14210.0 0.00099225
14230.0 0.00098946
14250.0 0.00098822
14270.0 0.00098863
14290.0 0.0009908
14310.0 0.00099435
14330.0 0.00099939
14350.0 0.0010061
14370.0 0.0010139
14390.0 0.0010225
14410.0 0.0010324
14430.0 0.0010431
14450.0 0.001054
14470.0 0.0010654
14490.0 0.0010779
14510.0 0.0010903
14530.0 0.0011029
14550.0 0.0011168
14570.0 0.001132
14590.0 0.0011479
14610.0 0.001166
14630.0 0.0011871
14650.0 0.0012102
14670.0 0.0012356
14690.0 0.0012649
14710.0 0.0012977
14730.0 0.0013313
14750.0 0.001368
14770.0 0.0014077
14790.0 0.0014477
14810.0 0.0014873
14830.0 0.0015292
14850.0 0.0015692
14870.0 0.0016056
14890.0 0.0016399
14910.0 0.0016714
14930.0 0.0016975
14950.0 0.0017185
14970.0 0.0017356
14990.0 0.0017475
15010.0 0.0017546
15030.0 0.0017582
15050.0 0.0017587
15070.0 0.0017568
15090.0 0.0017535
15110.0 0.0017492
15130.0 0.0017444
15150.0 0.0017395
15170.0 0.0017343
15190.0 0.001729
15210.0 0.0017239
15230.0 0.0017189
15250.0 0.0017137
15270.0 0.0017085
15290.0 0.0017037
15310.0 0.0016987
15330.0 0.0016936
15350.0 0.0016888
15370.0 0.0016841
15390.0 0.001679
15410.0 0.0016742
15430.0 0.0016695
15450.0 0.0016647
15470.0 0.0016598
15490.0 0.0016552
15510.0 0.0016506
15530.0 0.0016458
15550.0 0.0016411
15570.0 0.0016366
15590.0 0.0016319
15610.0 0.0016272
15630.0 0.0016227
15650.0 0.0016182
15670.0 0.0016135
15690.0 0.0016089
15710.0 0.0016046
15730.0 0.0015999
15750.0 0.0015953
15770.0 0.0015909
15790.0 0.0015865
15810.0 0.0015818
15830.0 0.0015773
15850.0 0.0015729
15870.0 0.0015684
15890.0 0.0015638
15910.0 0.0015595
15930.0 0.001555
15950.0 0.0015504
15970.0 0.0015459
15990.0 0.0015415
16010.0 0.001537
16030.0 0.0015323
16050.0 0.001528
16070.0 0.0015236
16090.0 0.0015189
16110.0 0.0015145
16130.0 0.0015101
16150.0 0.0015054
16170.0 0.0015008
16190.0 0.0014964
16210.0 0.0014918
16230.0 0.0014872
16250.0 0.0014827
16270.0 0.0014782
16290.0 0.0014735
16310.0 0.0014689
16330.0 0.0014644
16350.0 0.0014598
16370.0 0.0014549
16390.0 0.0014503
16410.0 0.0014458
16430.0 0.001441
16450.0 0.0014363
16470.0 0.0014318
16490.0 0.001427
16510.0 0.0014221
16530.0 0.0014175
16550.0 0.0014128
16570.0 0.0014078
16590.0 0.001403
16610.0 0.0013983
16630.0 0.0013935
16650.0 0.0013885
16670.0 0.0013838
16690.0 0.001379
16710.0 0.0013739
16730.0 0.0013689
16750.0 0.0013641
16770.0 0.0013591
16790.0 0.001354
16810.0 0.0013492
16830.0 0.0013442
16850.0 0.0013391
16870.0 0.0013341
16890.0 0.0013291
16910.0 0.001324
16930.0 0.0013187
16950.0 0.0013137
16970.0 0.0013086
16990.0 0.0013033
17010.0 0.0012982
17030.0 0.0012932
17050.0 0.0012879
17070.0 0.0012825
17090.0 0.0012774
17110.0 0.0012722
17130.0 0.0012667
17150.0 0.0012614
17170.0 0.0012562
17190.0 0.0012508
17210.0 0.0012454
17230.0 0.0012402
17250.0 0.0012348
17270.0 0.0012293
17290.0 0.0012239
17310.0 0.0012185
17330.0 0.001213
17350.0 0.0012074
17370.0 0.0012021
17390.0 0.0011966
17410.0 0.001191
17430.0 0.0011855
17450.0 0.0011801
17470.0 0.0011743
17490.0 0.0011687
17510.0 0.0011632
17530.0 0.0011576
17550.0 0.0011519
17570.0 0.0011463
17590.0 0.0011408
17610.0 0.001135
17630.0 0.0011293
17650.0 0.0011238
17670.0 0.0011181
17690.0 0.0011121
17710.0 0.0011065
17730.0 0.0011009
17750.0 0.001095
17770.0 0.0010892
17790.0 0.0010837
17810.0 0.0010778
17830.0 0.0010719
17850.0 0.0010662
17870.0 0.0010604
17890.0 0.0010545
17910.0 0.0010486
17930.0 0.0010429
17950.0 0.0010371
17970.0 0.0010311
17990.0 0.0010254
18010.0 0.0010196
18030.0 0.0010135
18050.0 0.0010076
18070.0 0.0010019
18090.0 0.00099594
18110.0 0.00098992
18130.0 0.00098415
18150.0 0.00097831
18170.0 0.00097229
18190.0 0.00096639
18210.0 0.00096061
18230.0 0.00095457
18250.0 0.0009485
18270.0 0.0009427
18290.0 0.0009368
18310.0 0.00093076
18330.0 0.00092485
18350.0 0.00091907
18370.0 0.00091302
18390.0 0.00090701
18410.0 0.00090117
18430.0 0.00089525
18450.0 0.0008891
18470.0 0.0008832
18490.0 0.00087738
18510.0 0.00087137
18530.0 0.00086538
18550.0 0.00085959
18570.0 0.00085364
18590.0 0.00084753
18610.0 0.00084164
18630.0 0.00083579
18650.0 0.00082975
18670.0 0.00082372
18690.0 0.00081796
18710.0 0.00081204
18730.0 0.00080602
18750.0 0.00080016
18770.0 0.00079437
18790.0 0.00078826
18810.0 0.0007823
18830.0 0.00077652
18850.0 0.00077061
18870.0 0.00076459
18890.0 0.00075879
18910.0 0.00075302
18930.0 0.00074702
18950.0 0.00074112
18970.0 0.00073537
18990.0 0.00072948
19010.0 0.0007234
19030.0 0.00071768
19050.0 0.00071191
19070.0 0.00070598
19090.0 0.00070014
19110.0 0.0006945
19130.0 0.00068859
19150.0 0.00068267
19170.0 0.00067695
19190.0 0.00067122
19210.0 0.00066529
19230.0 0.00065947
19250.0 0.00065387
19270.0 0.00064807
19290.0 0.00064224
19310.0 0.00063661
19330.0 0.00063094
19350.0 0.00062501
19370.0 0.0006193
19390.0 0.0006137
19410.0 0.00060795
19430.0 0.00060215
19450.0 0.00059661
19470.0 0.00059099
19490.0 0.00058521
19510.0 0.00057958
19530.0 0.00057406
19550.0 0.00056832
19570.0 0.00056256
19590.0 0.00055708
19610.0 0.0005515
19630.0 0.00054581
19650.0 0.00054027
19670.0 0.00053484
19690.0 0.00052916
19710.0 0.00052355
19730.0 0.00051811
19750.0 0.00051259
19770.0 0.00050688
19790.0 0.00050143
19810.0 0.00049604
19830.0 0.00049046
19850.0 0.0004849
19870.0 0.00047949
19890.0 0.0004738
19910.0 0.00046778
19930.0 0.00046165
19950.0 0.00045509
19970.0 0.00044763
19990.0 0.00043938
20010.0 0.00043068
20030.0 0.00042092
20050.0 0.00041032
20070.0 0.00039964
20090.0 0.00038894
20110.0 0.00037776
20130.0 0.00036734
20150.0 0.00035782
20170.0 0.00034877
20190.0 0.0003404
20210.0 0.00033319
20230.0 0.00032679
20250.0 0.00032099
20270.0 0.00031617
20290.0 0.00031225
20310.0 0.00030899
20330.0 0.00030644
20350.0 0.00030476
20370.0 0.0003037
20390.0 0.00030329
20410.0 0.00030353
20430.0 0.00030433
20450.0 0.00030579
20470.0 0.00030786
20490.0 0.00031041
20510.0 0.00031351
20530.0 0.00031727
20550.0 0.00032143
20570.0 0.00032585
20590.0 0.00033084
20610.0 0.00033619
20630.0 0.00034158
20650.0 0.00034721
20670.0 0.00035324
20690.0 0.00035901
20710.0 0.00036463
20730.0 0.00037034
20750.0 0.00037592
20770.0 0.00038107
20790.0 0.00038617
20810.0 0.00039127
20830.0 0.00039611
20850.0 0.0004008
20870.0 0.00040573
20890.0 0.00041073
20910.0 0.00041559
20930.0 0.0004207
20950.0 0.00042614
20970.0 0.00043155
20990.0 0.000437
21010.0 0.00044283
21030.0 0.00044856
21050.0 0.000454
21070.0 0.00045933
21090.0 0.00046452
21110.0 0.00046901
21130.0 0.00047295
21150.0 0.00047643
21170.0 0.00047918
21190.0 0.00048115
21210.0 0.00048245
21230.0 0.00048296
21250.0 0.00048266
21270.0 0.00048163
21290.0 0.00047982
21310.0 0.00047727
21330.0 0.00047418
21350.0 0.00047038
21370.0 0.00046592
21390.0 0.00046108
21410.0 0.00045583
21430.0 0.00044987
21450.0 0.00044377
21470.0 0.00043763
21490.0 0.00043117
21510.0 0.00042456
21530.0 0.00041826
21550.0 0.00041205
21570.0 0.00040581
21590.0 0.00040004
21610.0 0.00039478
21630.0 0.00038984
21650.0 0.00038537
21670.0 0.00038179
21690.0 0.0003788
21710.0 0.00037646
21730.0 0.00037493
21750.0 0.00037416
21770.0 0.00037416
21790.0 0.00037498
21810.0 0.00037651
21830.0 0.00037879
21850.0 0.00038189
21870.0 0.0003856
21890.0 0.00038977
21910.0 0.0003947
21930.0 0.00040016
21950.0 0.00040587
21970.0 0.00041206
21990.0 0.0004189
22010.0 0.0004257
22030.0 0.00043258
22050.0 0.00043982
22070.0 0.00044712
22090.0 0.00045406
22110.0 0.00046107
22130.0 0.00046808
22150.0 0.00047461
22170.0 0.00048071
22190.0 0.00048666
22210.0 0.00049204
22230.0 0.00049657
22250.0 0.00050057
22270.0 0.00050388
22290.0 0.00050629
22310.0 0.00050784
22330.0 0.00050854
22350.0 0.00050824
22370.0 0.00050698
22390.0 0.00050472
22410.0 0.00050131
22430.0 0.00049708
22450.0 0.00049195
22470.0 0.00048569
22490.0 0.00047861
22510.0 0.000471
22530.0 0.00046231
22550.0 0.00045274
22570.0 0.000443
22590.0 0.00043277
22610.0 0.00042178
22630.0 0.0004106
22650.0 0.00039968
22670.0 0.00038823
22690.0 0.00037662
22710.0 0.00036546
22730.0 0.00035448
22750.0 0.00034311
22770.0 0.00033251
22790.0 0.00032261
22810.0 0.00031288
22830.0 0.00030363
22850.0 0.00029539
22870.0 0.00028774
22890.0 0.00028058
22910.0 0.00027447
22930.0 0.00026934
22950.0 0.00026498
22970.0 0.00026156
22990.0 0.00025937
23010.0 0.00025812
23030.0 0.0002579
23050.0 0.00025874
23070.0 0.00026051
23090.0 0.00026341
23110.0 0.00026727
23130.0 0.00027185
23150.0 0.00027726
23170.0 0.00028356
23190.0 0.00029025
23210.0 0.00029718
23230.0 0.00030471
23250.0 0.00031239
23270.0 0.00031983
23290.0 0.00032728
23310.0 0.00033479
23330.0 0.00034152
23350.0 0.00034768
23370.0 0.00035341
23390.0 0.00035838
23410.0 0.00036237
23430.0 0.00036564
23450.0 0.00036806
23470.0 0.00036948
23490.0 0.00037
23510.0 0.00036959
23530.0 0.00036825
23550.0 0.00036615
23570.0 0.0003632
