#lamb flux
1010.0 1.1882e-06
1030.0 1.1882e-06
1050.0 1.1882e-06
1070.0 1.1882e-06
1090.0 1.1882e-06
1110.0 1.1882e-06
1130.0 1.1882e-06
1150.0 1.1882e-06
1170.0 1.1882e-06
1190.0 1.1882e-06
1210.0 1.1882e-06
1230.0 1.1882e-06
1250.0 1.1882e-06
1270.0 1.1882e-06
1290.0 1.1882e-06
1310.0 1.1882e-06
1330.0 1.1882e-06
1350.0 1.1882e-06
1370.0 1.1882e-06
1390.0 1.1882e-06
1410.0 1.1882e-06
1430.0 1.1882e-06
1450.0 1.1882e-06
1470.0 1.1882e-06
1490.0 1.1882e-06
1510.0 1.1882e-06
1530.0 1.1895e-06
1550.0 1.4111e-06
1570.0 1.6548e-06
1590.0 1.9212e-06
1610.0 2.2073e-06
1630.0 2.514e-06
1650.0 2.8521e-06
1670.0 3.2198e-06
1690.0 3.6213e-06
1710.0 4.0651e-06
1730.0 4.5519e-06
1750.0 5.0765e-06
1770.0 5.6515e-06
1790.0 6.2791e-06
1810.0 6.9533e-06
1830.0 7.6758e-06
1850.0 8.4603e-06
1870.0 9.2912e-06
1890.0 1.0163e-05
1910.0 1.1083e-05
1930.0 1.2047e-05
1950.0 1.3034e-05
1970.0 1.4042e-05
1990.0 1.5077e-05
2010.0 1.6114e-05
2030.0 1.7136e-05
2050.0 1.8153e-05
2070.0 1.9154e-05
2090.0 2.0099e-05
2110.0 2.0997e-05
2130.0 2.1848e-05
2150.0 2.2629e-05
2170.0 2.3323e-05
2190.0 2.3952e-05
2210.0 2.4503e-05
2230.0 2.4956e-05
2250.0 2.5322e-05
2270.0 2.5622e-05
2290.0 2.5828e-05
2310.0 2.5942e-05
2330.0 2.5993e-05
2350.0 2.598e-05
2370.0 2.5891e-05
2390.0 2.5753e-05
2410.0 2.5585e-05
2430.0 2.5371e-05
2450.0 2.5123e-05
2470.0 2.4869e-05
2490.0 2.4619e-05
2510.0 2.4368e-05
2530.0 2.4187e-05
2550.0 2.4165e-05
2570.0 2.4382e-05
2590.0 2.4938e-05
2610.0 2.6103e-05
2630.0 2.7931e-05
2650.0 3.0308e-05
2670.0 3.3312e-05
2690.0 3.6912e-05
2710.0 4.068e-05
2730.0 4.4461e-05
2750.0 4.8476e-05
2770.0 5.2458e-05
2790.0 5.6286e-05
2810.0 6.022e-05
2830.0 6.4479e-05
2850.0 6.861e-05
2870.0 7.2851e-05
2890.0 7.7423e-05
2910.0 8.2173e-05
2930.0 8.6922e-05
2950.0 9.2053e-05
2970.0 9.7523e-05
2990.0 0.00010308
3010.0 0.00010885
3030.0 0.00011505
3050.0 0.00012147
3070.0 0.00012774
3090.0 0.00013414
3110.0 0.00014032
3130.0 0.00014578
3150.0 0.00015036
3170.0 0.00015382
3190.0 0.00015585
3210.0 0.00015645
3230.0 0.00015622
3250.0 0.00015706
3270.0 0.00016016
3290.0 0.00016521
3310.0 0.00017181
3330.0 0.00017996
3350.0 0.00018915
3370.0 0.00019939
3390.0 0.00021064
3410.0 0.00022174
3430.0 0.00024181
3450.0 0.000257
3470.0 0.00027187
3490.0 0.00027755
3510.0 0.00027276
3530.0 0.00030545
3550.0 0.00036624
3570.0 0.00040265
3590.0 0.00042094
3610.0 0.000425
3630.0 0.00040869
3650.0 0.00044136
3670.0 0.00052763
3690.0 0.00059362
3710.0 0.00062394
3730.0 0.00064548
3750.0 0.00067542
3770.0 0.00067379
3790.0 0.00064413
3810.0 0.00060517
3830.0 0.00056244
3850.0 0.00055886
3870.0 0.00059953
3890.0 0.00064134
3910.0 0.00067266
3930.0 0.00068632
3950.0 0.00073722
3970.0 0.00078828
3990.0 0.00075596
4010.0 0.00067139
4030.0 0.00059175
4050.0 0.00056606
4070.0 0.00058587
4090.0 0.0005909
4110.0 0.00057661
4130.0 0.00056769
4150.0 0.00057723
4170.0 0.00063385
4190.0 0.00069339
4210.0 0.00067984
4230.0 0.0006388
4250.0 0.00061845
4270.0 0.00061044
4290.0 0.00062793
4310.0 0.00065017
4330.0 0.00061928
4350.0 0.00054126
4370.0 0.00047669
4390.0 0.00043205
4410.0 0.00039429
4430.0 0.00039199
4450.0 0.00042541
4470.0 0.00045679
4490.0 0.00049827
4510.0 0.0005678
4530.0 0.00070734
4550.0 0.00087572
4570.0 0.00097627
4590.0 0.0010424
4610.0 0.0011326
4630.0 0.0011882
4650.0 0.0011091
4670.0 0.00091672
4690.0 0.00076301
4710.0 0.00070606
4730.0 0.00068554
4750.0 0.00062334
4770.0 0.00057206
4790.0 0.00059757
4810.0 0.00065102
4830.0 0.00065354
4850.0 0.0006089
4870.0 0.00058912
4890.0 0.00062162
4910.0 0.00065767
4930.0 0.00066027
4950.0 0.0006387
4970.0 0.0006037
4990.0 0.00055074
5010.0 0.00050147
5030.0 0.00047232
5050.0 0.00045905
5070.0 0.00044925
5090.0 0.00043888
5110.0 0.00043715
5130.0 0.000442
5150.0 0.00046574
5170.0 0.00051673
5190.0 0.00057891
5210.0 0.0006481
5230.0 0.00069096
5250.0 0.0007123
5270.0 0.00075041
5290.0 0.00079137
5310.0 0.00080398
5330.0 0.00077235
5350.0 0.00073193
5370.0 0.00073031
5390.0 0.00077695
5410.0 0.00082866
5430.0 0.00085441
5450.0 0.00085439
5470.0 0.00082973
5490.0 0.00079573
5510.0 0.00077555
5530.0 0.00077466
5550.0 0.00078312
5570.0 0.00078825
5590.0 0.00076582
5610.0 0.00072439
5630.0 0.00067738
5650.0 0.00063517
5670.0 0.00060952
5690.0 0.00058797
5710.0 0.00057241
5730.0 0.00057859
5750.0 0.00057547
5770.0 0.0005625
5790.0 0.0005654
5810.0 0.00057374
5830.0 0.00058294
5850.0 0.00058685
5870.0 0.00057478
5890.0 0.0005494
5910.0 0.00051777
5930.0 0.00047127
5950.0 0.00043622
5970.0 0.00043123
5990.0 0.00044584
6010.0 0.00045376
6030.0 0.00043818
6050.0 0.0004276
6070.0 0.00044397
6090.0 0.00047216
6110.0 0.00048672
6130.0 0.00047279
6150.0 0.00044552
6170.0 0.00042639
6190.0 0.00040718
6210.0 0.00038441
6230.0 0.00036449
6250.0 0.00035661
6270.0 0.00036568
6290.0 0.00038192
6310.0 0.00040458
6330.0 0.00043258
6350.0 0.0004594
6370.0 0.00047333
6390.0 0.0004759
6410.0 0.00048034
6430.0 0.00048531
6450.0 0.00048853
6470.0 0.00049675
6490.0 0.00050601
6510.0 0.00051057
6530.0 0.0005075
6550.0 0.00049562
6570.0 0.00047754
6590.0 0.00045978
6610.0 0.00044708
6630.0 0.00043811
6650.0 0.00042371
6670.0 0.00040516
6690.0 0.00039042
6710.0 0.00038194
6730.0 0.00037908
6750.0 0.0003739
6770.0 0.00036615
6790.0 0.00036033
6810.0 0.00035467
6830.0 0.00035244
6850.0 0.00035557
6870.0 0.00035581
6890.0 0.00035284
6910.0 0.00034493
6930.0 0.00033691
6950.0 0.00033296
6970.0 0.0003245
6990.0 0.00031299
7010.0 0.00030803
7030.0 0.00030488
7050.0 0.00029717
7070.0 0.00028681
7090.0 0.00028111
7110.0 0.00028562
7130.0 0.00029994
7150.0 0.00031615
7170.0 0.00032657
7190.0 0.00032375
7210.0 0.00031417
7230.0 0.00030824
7250.0 0.0003054
7270.0 0.00030394
7290.0 0.00030079
7310.0 0.00030078
7330.0 0.00030782
7350.0 0.00031687
7370.0 0.00032225
7390.0 0.00031991
7410.0 0.0003119
7430.0 0.00030541
7450.0 0.00029853
7470.0 0.00028343
7490.0 0.00027322
7510.0 0.00026332
7530.0 0.00025659
7550.0 0.00025741
7570.0 0.00026058
7590.0 0.00026081
7610.0 0.00025907
7630.0 0.00025811
7650.0 0.00025811
7670.0 0.00026373
7690.0 0.00027253
7710.0 0.00028368
7730.0 0.00029168
7750.0 0.00030071
7770.0 0.00030594
7790.0 0.00030711
7810.0 0.00030498
7830.0 0.00030718
7850.0 0.00030498
7870.0 0.00029346
7890.0 0.00028147
7910.0 0.00027257
7930.0 0.00026451
7950.0 0.00025812
7970.0 0.00025631
7990.0 0.00025906
8010.0 0.00025303
8030.0 0.00025027
8050.0 0.00024645
8070.0 0.00024199
8090.0 0.00023739
8110.0 0.00023755
8130.0 0.00023921
8150.0 0.0002386
8170.0 0.00023695
8190.0 0.00023143
8210.0 0.00021882
8230.0 0.00020409
8250.0 0.00019527
8270.0 0.00018923
8290.0 0.00018444
8310.0 0.00018367
8330.0 0.00018528
8350.0 0.000181
8370.0 0.00017744
8390.0 0.00018174
8410.0 0.00019129
8430.0 0.00020444
8450.0 0.00021766
8470.0 0.00022415
8490.0 0.00022952
8510.0 0.00023239
8530.0 0.0002354
8550.0 0.00023915
8570.0 0.00024135
8590.0 0.00024348
8610.0 0.00025018
8630.0 0.00025304
8650.0 0.00024798
8670.0 0.00024808
8690.0 0.00025098
8710.0 0.00025259
8730.0 0.00025112
8750.0 0.00024458
8770.0 0.00024181
8790.0 0.00024042
8810.0 0.00023718
8830.0 0.00022273
8850.0 0.00020415
8870.0 0.00019078
8890.0 0.00018356
8910.0 0.00017324
8930.0 0.00016125
8950.0 0.00015436
8970.0 0.00015344
8990.0 0.00015466
9010.0 0.00015425
9030.0 0.00015315
9050.0 0.00015213
9070.0 0.00015122
9090.0 0.00015034
9110.0 0.00014946
9130.0 0.00014858
9150.0 0.00014771
9170.0 0.00014684
9190.0 0.00014597
9210.0 0.00014511
9230.0 0.00014425
9250.0 0.00014341
9270.0 0.00014256
9290.0 0.00014172
9310.0 0.00014088
9330.0 0.00014004
9350.0 0.00013921
9370.0 0.00013839
9390.0 0.00013757
9410.0 0.00013675
9430.0 0.00013592
9450.0 0.00013506
9470.0 0.00013422
9490.0 0.00013347
9510.0 0.0001327
9530.0 0.00013193
9550.0 0.00013114
9570.0 0.00013036
9590.0 0.00012959
9610.0 0.00012882
9630.0 0.00012805
9650.0 0.00012728
9670.0 0.00012653
9690.0 0.00012577
9710.0 0.00012501
9730.0 0.00012427
9750.0 0.00012352
9770.0 0.00012278
9790.0 0.00012204
9810.0 0.00012131
9830.0 0.00012056
9850.0 0.00011975
9870.0 0.00011905
9890.0 0.00011836
9910.0 0.00011765
9930.0 0.00011694
9950.0 0.00011625
9970.0 0.00011554
9990.0 0.00011481
10010.0 0.00011401
10030.0 0.00011327
10050.0 0.00011261
10070.0 0.00011195
10090.0 0.00011129
10110.0 0.00011057
10130.0 0.00010966
10150.0 0.00010901
10170.0 0.0001084
10190.0 0.00010773
10210.0 0.00010708
10230.0 0.00010643
10250.0 0.00010574
10270.0 0.00010504
10290.0 0.00010438
10310.0 0.00010368
10330.0 0.00010296
10350.0 0.00010228
10370.0 0.0001016
10390.0 0.00010089
10410.0 0.00010018
10430.0 9.9514e-05
10450.0 9.8815e-05
10470.0 9.81e-05
10490.0 9.7411e-05
10510.0 9.6725e-05
10530.0 9.5992e-05
10550.0 9.5279e-05
10570.0 9.4593e-05
10590.0 9.3881e-05
10610.0 9.3154e-05
10630.0 9.2457e-05
10650.0 9.1755e-05
10670.0 9.1015e-05
10690.0 9.0291e-05
10710.0 8.9585e-05
10730.0 8.8851e-05
10750.0 8.8091e-05
10770.0 8.738e-05
10790.0 8.6656e-05
10810.0 8.5902e-05
10830.0 8.5162e-05
10850.0 8.4445e-05
10870.0 8.3679e-05
10890.0 8.2914e-05
10910.0 8.2182e-05
10930.0 8.1445e-05
10950.0 8.0688e-05
10970.0 7.996e-05
10990.0 7.9273e-05
11010.0 7.9252e-05
11030.0 7.8581e-05
11050.0 7.7946e-05
11070.0 7.7312e-05
11090.0 7.6648e-05
11110.0 7.6024e-05
11130.0 7.5416e-05
11150.0 7.4797e-05
11170.0 7.4192e-05
11190.0 7.3633e-05
11210.0 7.3083e-05
11230.0 7.2547e-05
11250.0 7.2057e-05
11270.0 7.1605e-05
11290.0 7.1167e-05
11310.0 7.076e-05
11330.0 7.0402e-05
11350.0 7.006e-05
11370.0 6.9732e-05
11390.0 6.9429e-05
11410.0 6.9141e-05
11430.0 6.8843e-05
11450.0 6.8549e-05
11470.0 6.8258e-05
11490.0 6.7949e-05
11510.0 6.7614e-05
11530.0 6.7271e-05
11550.0 6.6907e-05
11570.0 6.65e-05
11590.0 6.6066e-05
11610.0 6.5613e-05
11630.0 6.511e-05
11650.0 6.4559e-05
11670.0 6.3995e-05
11690.0 6.3399e-05
11710.0 6.2752e-05
11730.0 6.2079e-05
11750.0 6.1406e-05
11770.0 6.0684e-05
11790.0 5.9931e-05
11810.0 5.9184e-05
11830.0 5.8424e-05
11850.0 5.7616e-05
11870.0 5.6824e-05
11890.0 5.6054e-05
11910.0 5.5265e-05
11930.0 5.4474e-05
11950.0 5.3723e-05
11970.0 5.2981e-05
11990.0 5.223e-05
12010.0 5.152e-05
12030.0 5.0847e-05
12050.0 5.0183e-05
12070.0 4.9535e-05
12090.0 4.8951e-05
12110.0 4.8389e-05
12130.0 4.7846e-05
12150.0 4.7348e-05
12170.0 4.6896e-05
12190.0 4.6461e-05
12210.0 4.6072e-05
12230.0 4.5736e-05
12250.0 4.544e-05
12270.0 4.5184e-05
12290.0 4.4979e-05
12310.0 4.482e-05
12330.0 4.4698e-05
12350.0 4.4616e-05
12370.0 4.4567e-05
12390.0 4.4548e-05
12410.0 4.4558e-05
12430.0 4.4581e-05
12450.0 4.4615e-05
12470.0 4.466e-05
12490.0 4.4705e-05
12510.0 4.4739e-05
12530.0 4.4767e-05
12550.0 4.4781e-05
12570.0 4.4771e-05
12590.0 4.4736e-05
12610.0 4.4673e-05
12630.0 4.4574e-05
12650.0 4.4441e-05
12670.0 4.427e-05
12690.0 4.4058e-05
12710.0 4.3811e-05
12730.0 4.353e-05
12750.0 4.3202e-05
12770.0 4.2844e-05
12790.0 4.2467e-05
12810.0 4.2059e-05
12830.0 4.1621e-05
12850.0 4.1184e-05
12870.0 4.0739e-05
12890.0 4.0274e-05
12910.0 3.9812e-05
12930.0 3.9364e-05
12950.0 3.8904e-05
12970.0 3.8443e-05
12990.0 3.8007e-05
13010.0 3.7579e-05
13030.0 3.7148e-05
13050.0 3.6733e-05
13070.0 3.6339e-05
13090.0 3.5944e-05
13110.0 3.5556e-05
13130.0 3.5192e-05
13150.0 3.4839e-05
13170.0 3.4487e-05
13190.0 3.4159e-05
13210.0 3.3853e-05
13230.0 3.3556e-05
13250.0 3.3272e-05
13270.0 3.3012e-05
13290.0 3.2762e-05
13310.0 3.2518e-05
13330.0 3.229e-05
13350.0 3.2073e-05
13370.0 3.1857e-05
13390.0 3.1641e-05
13410.0 3.1435e-05
13430.0 3.1224e-05
13450.0 3.1006e-05
13470.0 3.0787e-05
13490.0 3.0567e-05
13510.0 3.0328e-05
13530.0 3.0084e-05
13550.0 2.984e-05
13570.0 2.9587e-05
13590.0 2.9321e-05
13610.0 2.9057e-05
13630.0 2.8794e-05
13650.0 2.8519e-05
13670.0 2.8242e-05
13690.0 2.7973e-05
13710.0 2.77e-05
13730.0 2.7416e-05
13750.0 2.7146e-05
13770.0 2.688e-05
13790.0 2.6606e-05
13810.0 2.6335e-05
13830.0 2.6076e-05
13850.0 2.581e-05
13870.0 2.5542e-05
13890.0 2.5283e-05
13910.0 2.503e-05
13930.0 2.477e-05
13950.0 2.4514e-05
13970.0 2.4275e-05
13990.0 2.4032e-05
14010.0 2.379e-05
14030.0 2.3559e-05
14050.0 2.3333e-05
14070.0 2.31e-05
14090.0 2.2876e-05
14110.0 2.2663e-05
14130.0 2.2448e-05
14150.0 2.2232e-05
14170.0 2.2032e-05
14190.0 2.1836e-05
14210.0 2.164e-05
14230.0 2.1453e-05
14250.0 2.1279e-05
14270.0 2.1106e-05
14290.0 2.0938e-05
14310.0 2.0787e-05
14330.0 2.0644e-05
14350.0 2.0505e-05
14370.0 2.0376e-05
14390.0 2.0259e-05
14410.0 2.0145e-05
14430.0 2.0036e-05
14450.0 1.9937e-05
14470.0 1.9842e-05
14490.0 1.9746e-05
14510.0 1.9658e-05
14530.0 1.9574e-05
14550.0 1.9489e-05
14570.0 1.9405e-05
14590.0 1.9325e-05
14610.0 1.9243e-05
14630.0 1.9156e-05
14650.0 1.9073e-05
14670.0 1.8992e-05
14690.0 1.8909e-05
14710.0 1.8828e-05
14730.0 1.876e-05
14750.0 1.8697e-05
14770.0 1.8646e-05
14790.0 1.8612e-05
14810.0 1.8598e-05
14830.0 1.8606e-05
14850.0 1.8642e-05
14870.0 1.8705e-05
14890.0 1.8794e-05
14910.0 1.8911e-05
14930.0 1.9044e-05
14950.0 1.9185e-05
14970.0 1.9332e-05
14990.0 1.9468e-05
15010.0 1.9586e-05
15030.0 1.9684e-05
15050.0 1.9763e-05
15070.0 1.9819e-05
15090.0 1.986e-05
15110.0 1.9892e-05
15130.0 1.9918e-05
15150.0 1.994e-05
15170.0 1.9961e-05
15190.0 1.9982e-05
15210.0 2.0003e-05
15230.0 2.0025e-05
15250.0 2.0047e-05
15270.0 2.007e-05
15290.0 2.0094e-05
15310.0 2.0118e-05
15330.0 2.0143e-05
15350.0 2.017e-05
15370.0 2.0197e-05
15390.0 2.0223e-05
15410.0 2.0251e-05
15430.0 2.028e-05
15450.0 2.0309e-05
15470.0 2.0339e-05
15490.0 2.037e-05
15510.0 2.0401e-05
15530.0 2.0432e-05
15550.0 2.0465e-05
15570.0 2.0498e-05
15590.0 2.0531e-05
15610.0 2.0565e-05
15630.0 2.06e-05
15650.0 2.0635e-05
15670.0 2.0671e-05
15690.0 2.0707e-05
15710.0 2.0744e-05
15730.0 2.0781e-05
15750.0 2.0819e-05
15770.0 2.0857e-05
15790.0 2.0896e-05
15810.0 2.0935e-05
15830.0 2.0974e-05
15850.0 2.1015e-05
15870.0 2.1055e-05
15890.0 2.1096e-05
15910.0 2.1137e-05
15930.0 2.1179e-05
15950.0 2.122e-05
15970.0 2.1263e-05
15990.0 2.1306e-05
16010.0 2.1349e-05
16030.0 2.1392e-05
16050.0 2.1436e-05
16070.0 2.148e-05
16090.0 2.1524e-05
16110.0 2.1568e-05
16130.0 2.1614e-05
16150.0 2.1658e-05
16170.0 2.1703e-05
16190.0 2.1749e-05
16210.0 2.1794e-05
16230.0 2.1839e-05
16250.0 2.1886e-05
16270.0 2.1932e-05
16290.0 2.1978e-05
16310.0 2.2024e-05
16330.0 2.2071e-05
16350.0 2.2117e-05
16370.0 2.2163e-05
16390.0 2.221e-05
16410.0 2.2257e-05
16430.0 2.2303e-05
16450.0 2.235e-05
16470.0 2.2397e-05
16490.0 2.2444e-05
16510.0 2.249e-05
16530.0 2.2537e-05
16550.0 2.2583e-05
16570.0 2.2629e-05
16590.0 2.2675e-05
16610.0 2.2722e-05
16630.0 2.2768e-05
16650.0 2.2814e-05
16670.0 2.286e-05
16690.0 2.2906e-05
16710.0 2.295e-05
16730.0 2.2995e-05
16750.0 2.3041e-05
16770.0 2.3085e-05
16790.0 2.3129e-05
16810.0 2.3174e-05
16830.0 2.3218e-05
16850.0 2.3261e-05
16870.0 2.3304e-05
16890.0 2.3347e-05
16910.0 2.3389e-05
16930.0 2.3431e-05
16950.0 2.3473e-05
16970.0 2.3514e-05
16990.0 2.3554e-05
17010.0 2.3595e-05
17030.0 2.3635e-05
17050.0 2.3674e-05
17070.0 2.3713e-05
17090.0 2.3751e-05
17110.0 2.3789e-05
17130.0 2.3826e-05
17150.0 2.3862e-05
17170.0 2.3899e-05
17190.0 2.3934e-05
17210.0 2.3969e-05
17230.0 2.4003e-05
17250.0 2.4037e-05
17270.0 2.4069e-05
17290.0 2.4101e-05
17310.0 2.4133e-05
17330.0 2.4163e-05
17350.0 2.4193e-05
17370.0 2.4223e-05
17390.0 2.4251e-05
17410.0 2.4279e-05
17430.0 2.4306e-05
17450.0 2.4332e-05
17470.0 2.4357e-05
17490.0 2.4381e-05
17510.0 2.4405e-05
17530.0 2.4427e-05
17550.0 2.4449e-05
17570.0 2.447e-05
17590.0 2.449e-05
17610.0 2.4509e-05
17630.0 2.4527e-05
17650.0 2.4544e-05
17670.0 2.456e-05
17690.0 2.4574e-05
17710.0 2.4589e-05
17730.0 2.4602e-05
17750.0 2.4614e-05
17770.0 2.4625e-05
17790.0 2.4636e-05
17810.0 2.4644e-05
17830.0 2.4651e-05
17850.0 2.4658e-05
17870.0 2.4664e-05
17890.0 2.4668e-05
17910.0 2.4671e-05
17930.0 2.4674e-05
17950.0 2.4675e-05
17970.0 2.4675e-05
17990.0 2.4674e-05
18010.0 2.4672e-05
18030.0 2.4668e-05
18050.0 2.4663e-05
18070.0 2.4658e-05
18090.0 2.465e-05
18110.0 2.4641e-05
18130.0 2.4632e-05
18150.0 2.4622e-05
18170.0 2.4609e-05
18190.0 2.4596e-05
18210.0 2.4582e-05
18230.0 2.4566e-05
18250.0 2.4548e-05
18270.0 2.4531e-05
18290.0 2.4511e-05
18310.0 2.449e-05
18330.0 2.4468e-05
18350.0 2.4446e-05
18370.0 2.4421e-05
18390.0 2.4394e-05
18410.0 2.4368e-05
18430.0 2.4339e-05
18450.0 2.4309e-05
18470.0 2.4278e-05
18490.0 2.4246e-05
18510.0 2.4212e-05
18530.0 2.4177e-05
18550.0 2.4142e-05
18570.0 2.4104e-05
18590.0 2.4065e-05
18610.0 2.4025e-05
18630.0 2.3984e-05
18650.0 2.3941e-05
18670.0 2.3897e-05
18690.0 2.3853e-05
18710.0 2.3806e-05
18730.0 2.3758e-05
18750.0 2.371e-05
18770.0 2.366e-05
18790.0 2.3608e-05
18810.0 2.3555e-05
18830.0 2.3502e-05
18850.0 2.3447e-05
18870.0 2.339e-05
18890.0 2.3333e-05
18910.0 2.3274e-05
18930.0 2.3214e-05
18950.0 2.3153e-05
18970.0 2.3091e-05
18990.0 2.3027e-05
19010.0 2.2962e-05
19030.0 2.2896e-05
19050.0 2.283e-05
19070.0 2.2761e-05
19090.0 2.2692e-05
19110.0 2.2622e-05
19130.0 2.255e-05
19150.0 2.2477e-05
19170.0 2.2404e-05
19190.0 2.233e-05
19210.0 2.2253e-05
19230.0 2.2176e-05
19250.0 2.2099e-05
19270.0 2.202e-05
19290.0 2.194e-05
19310.0 2.1859e-05
19330.0 2.1778e-05
19350.0 2.1694e-05
19370.0 2.161e-05
19390.0 2.1526e-05
19410.0 2.144e-05
19430.0 2.1353e-05
19450.0 2.1266e-05
19470.0 2.1178e-05
19490.0 2.1088e-05
19510.0 2.0998e-05
19530.0 2.0907e-05
19550.0 2.0815e-05
19570.0 2.0722e-05
19590.0 2.0629e-05
19610.0 2.0535e-05
19630.0 2.044e-05
19650.0 2.0344e-05
19670.0 2.0249e-05
19690.0 2.0151e-05
19710.0 2.0053e-05
19730.0 1.9955e-05
19750.0 1.9856e-05
19770.0 1.9755e-05
19790.0 1.9655e-05
19810.0 1.9555e-05
19830.0 1.9452e-05
19850.0 1.9349e-05
19870.0 1.9245e-05
19890.0 1.9137e-05
19910.0 1.9022e-05
19930.0 1.89e-05
19950.0 1.8766e-05
19970.0 1.8613e-05
19990.0 1.8437e-05
20010.0 1.8243e-05
20030.0 1.8021e-05
20050.0 1.7772e-05
20070.0 1.7509e-05
20090.0 1.7233e-05
20110.0 1.6934e-05
20130.0 1.6636e-05
20150.0 1.6344e-05
20170.0 1.6046e-05
20190.0 1.5748e-05
20210.0 1.5464e-05
20230.0 1.5185e-05
20250.0 1.4905e-05
20270.0 1.4637e-05
20290.0 1.4383e-05
20310.0 1.4133e-05
20330.0 1.3888e-05
20350.0 1.3664e-05
20370.0 1.3449e-05
20390.0 1.3241e-05
20410.0 1.3047e-05
20430.0 1.2868e-05
20450.0 1.2694e-05
20470.0 1.2531e-05
20490.0 1.2383e-05
20510.0 1.2243e-05
20530.0 1.2112e-05
20550.0 1.1991e-05
20570.0 1.1881e-05
20590.0 1.1776e-05
20610.0 1.1679e-05
20630.0 1.1589e-05
20650.0 1.1504e-05
20670.0 1.1424e-05
20690.0 1.1348e-05
20710.0 1.1275e-05
20730.0 1.1204e-05
20750.0 1.1134e-05
20770.0 1.1064e-05
20790.0 1.0993e-05
20810.0 1.0921e-05
20830.0 1.0847e-05
20850.0 1.077e-05
20870.0 1.0689e-05
20890.0 1.0603e-05
20910.0 1.0515e-05
20930.0 1.0421e-05
20950.0 1.0321e-05
20970.0 1.0218e-05
20990.0 1.011e-05
21010.0 9.9962e-06
21030.0 9.8781e-06
21050.0 9.7576e-06
21070.0 9.6326e-06
21090.0 9.5023e-06
21110.0 9.3723e-06
21130.0 9.2409e-06
21150.0 9.1056e-06
21170.0 8.97e-06
21190.0 8.8365e-06
21210.0 8.7005e-06
21230.0 8.5636e-06
21250.0 8.4308e-06
21270.0 8.2997e-06
21290.0 8.1682e-06
21310.0 8.0395e-06
21330.0 7.9162e-06
21350.0 7.7934e-06
21370.0 7.6727e-06
21390.0 7.557e-06
21410.0 7.4446e-06
21430.0 7.3324e-06
21450.0 7.2252e-06
21470.0 7.1226e-06
21490.0 7.0217e-06
21510.0 6.9232e-06
21530.0 6.8294e-06
21550.0 6.7379e-06
21570.0 6.6476e-06
21590.0 6.5607e-06
21610.0 6.4768e-06
21630.0 6.3941e-06
21650.0 6.3126e-06
21670.0 6.2348e-06
21690.0 6.158e-06
21710.0 6.082e-06
21730.0 6.0077e-06
21750.0 5.9351e-06
21770.0 5.8622e-06
21790.0 5.7901e-06
21810.0 5.7193e-06
21830.0 5.6487e-06
21850.0 5.5776e-06
21870.0 5.5072e-06
21890.0 5.4375e-06
21910.0 5.3667e-06
21930.0 5.2958e-06
21950.0 5.2255e-06
21970.0 5.1547e-06
21990.0 5.0823e-06
22010.0 5.0109e-06
22030.0 4.9397e-06
22050.0 4.8675e-06
22070.0 4.7951e-06
22090.0 4.724e-06
22110.0 4.6523e-06
22130.0 4.5801e-06
22150.0 4.509e-06
22170.0 4.4386e-06
22190.0 4.3674e-06
22210.0 4.2968e-06
22230.0 4.2282e-06
22250.0 4.1594e-06
22270.0 4.0907e-06
22290.0 4.0236e-06
22310.0 3.9575e-06
22330.0 3.8906e-06
22350.0 3.8248e-06
22370.0 3.7605e-06
22390.0 3.6961e-06
22410.0 3.6313e-06
22430.0 3.5685e-06
22450.0 3.5062e-06
22470.0 3.4434e-06
22490.0 3.3813e-06
22510.0 3.3205e-06
22530.0 3.259e-06
22550.0 3.1974e-06
22570.0 3.1376e-06
22590.0 3.0782e-06
22610.0 3.0185e-06
