#lamb flux
1010.0 2.3324e-09
1030.0 2.5796e-09
1050.0 2.864e-09
1070.0 3.1842e-09
1090.0 3.5478e-09
1110.0 3.9207e-09
1130.0 4.2961e-09
1150.0 4.6893e-09
1170.0 5.0949e-09
1190.0 5.4795e-09
1210.0 5.8693e-09
1230.0 6.2721e-09
1250.0 6.6667e-09
1270.0 7.05e-09
1290.0 7.455e-09
1310.0 7.8597e-09
1330.0 8.2477e-09
1350.0 8.6402e-09
1370.0 9.0454e-09
1390.0 9.4404e-09
1410.0 9.8238e-09
1430.0 1.0225e-08
1450.0 1.0625e-08
1470.0 1.1013e-08
1490.0 1.1404e-08
1510.0 1.1818e-08
1530.0 1.221e-08
1550.0 1.2596e-08
1570.0 1.2997e-08
1590.0 1.3397e-08
1610.0 1.378e-08
1630.0 1.4175e-08
1650.0 1.458e-08
1670.0 1.4973e-08
1690.0 1.536e-08
1710.0 1.5763e-08
1730.0 1.6169e-08
1750.0 1.655e-08
1770.0 1.6943e-08
1790.0 1.7345e-08
1810.0 1.7734e-08
1830.0 1.8117e-08
1850.0 1.8524e-08
1870.0 1.8922e-08
1890.0 1.9306e-08
1910.0 1.9699e-08
1930.0 2.0103e-08
1950.0 2.0488e-08
1970.0 2.087e-08
1990.0 2.1268e-08
2010.0 2.1659e-08
2030.0 2.2038e-08
2050.0 2.2429e-08
2070.0 2.2831e-08
2090.0 2.321e-08
2110.0 2.359e-08
2130.0 2.3982e-08
2150.0 2.4367e-08
2170.0 2.4736e-08
2190.0 2.512e-08
2210.0 2.5506e-08
2230.0 2.5878e-08
2250.0 2.6249e-08
2270.0 2.6637e-08
2290.0 2.7013e-08
2310.0 2.7375e-08
2330.0 2.7751e-08
2350.0 2.8137e-08
2370.0 2.8522e-08
2390.0 2.8939e-08
2410.0 2.9433e-08
2430.0 3.0001e-08
2450.0 3.068e-08
2470.0 3.155e-08
2490.0 3.2646e-08
2510.0 3.3892e-08
2530.0 3.5392e-08
2550.0 3.727e-08
2570.0 3.9606e-08
2590.0 4.2645e-08
2610.0 4.7194e-08
2630.0 5.369e-08
2650.0 6.2183e-08
2670.0 7.3164e-08
2690.0 8.6658e-08
2710.0 1.0106e-07
2730.0 1.153e-07
2750.0 1.2931e-07
2770.0 1.4151e-07
2790.0 1.5119e-07
2810.0 1.5888e-07
2830.0 1.6488e-07
2850.0 1.6898e-07
2870.0 1.7199e-07
2890.0 1.7437e-07
2910.0 1.7627e-07
2930.0 1.7782e-07
2950.0 1.793e-07
2970.0 1.8075e-07
2990.0 1.8211e-07
3010.0 5.1475e-06
3030.0 5.186e-06
3050.0 5.2232e-06
3070.0 5.2551e-06
3090.0 5.2824e-06
3110.0 5.2994e-06
3130.0 5.2988e-06
3150.0 5.2752e-06
3170.0 5.2187e-06
3190.0 5.13e-06
3210.0 5.0175e-06
3230.0 4.8887e-06
3250.0 4.7616e-06
3270.0 4.6687e-06
3290.0 4.6171e-06
3310.0 4.6254e-06
3330.0 4.6924e-06
3350.0 4.809e-06
3370.0 4.9754e-06
3390.0 5.1852e-06
3410.0 5.4135e-06
3430.0 5.6698e-06
3450.0 5.9648e-06
3470.0 6.287e-06
3490.0 6.6285e-06
3510.0 7.0144e-06
3530.0 7.4277e-06
3550.0 7.8461e-06
3570.0 8.2826e-06
3590.0 8.7574e-06
3610.0 9.2465e-06
3630.0 9.7342e-06
3650.0 1.024e-05
3670.0 1.0702e-05
3690.0 1.1047e-05
3710.0 1.1245e-05
3730.0 1.1252e-05
3750.0 1.1095e-05
3770.0 1.1034e-05
3790.0 1.0968e-05
3810.0 1.0698e-05
3830.0 1.103e-05
3850.0 1.2332e-05
3870.0 1.3048e-05
3890.0 1.2988e-05
3910.0 1.3043e-05
3930.0 1.3387e-05
3950.0 1.3598e-05
3970.0 1.2389e-05
3990.0 1.066e-05
4010.0 3.195e-05
4030.0 3.8713e-05
4050.0 4.4381e-05
4070.0 3.8508e-05
4090.0 3.4877e-05
4110.0 3.0775e-05
4130.0 2.8326e-05
4150.0 3.013e-05
4170.0 2.9679e-05
4190.0 3.1636e-05
4210.0 3.1347e-05
4230.0 3.3156e-05
4250.0 3.9225e-05
4270.0 3.9686e-05
4290.0 3.657e-05
4310.0 3.7999e-05
4330.0 4.0419e-05
4350.0 4.532e-05
4370.0 5.1575e-05
4390.0 4.8398e-05
4410.0 3.5758e-05
4430.0 3.0271e-05
4450.0 2.7816e-05
4470.0 2.135e-05
4490.0 2.3039e-05
4510.0 3.48e-05
4530.0 4.0135e-05
4550.0 4.0483e-05
4570.0 4.5554e-05
4590.0 5.1891e-05
4610.0 6.9988e-05
4630.0 9.09e-05
4650.0 9.858e-05
4670.0 9.1294e-05
4690.0 8.7111e-05
4710.0 9.2082e-05
4730.0 8.69e-05
4750.0 6.4969e-05
4770.0 4.7657e-05
4790.0 4.4502e-05
4810.0 4.2418e-05
4830.0 3.8833e-05
4850.0 4.2613e-05
4870.0 5.6295e-05
4890.0 6.6388e-05
4910.0 5.8247e-05
4930.0 5.1541e-05
4950.0 5.6625e-05
4970.0 7.2618e-05
4990.0 9.8415e-05
5010.0 0.00011321
5030.0 9.9828e-05
5050.0 6.754e-05
5070.0 4.4512e-05
5090.0 3.5892e-05
5110.0 3.6912e-05
5130.0 4.2602e-05
5150.0 4.6156e-05
5170.0 4.5463e-05
5190.0 4.2482e-05
5210.0 4.4404e-05
5230.0 4.6678e-05
5250.0 5.0306e-05
5270.0 5.4277e-05
5290.0 6.0151e-05
5310.0 7.0014e-05
5330.0 7.7479e-05
5350.0 7.6985e-05
5370.0 8.0866e-05
5390.0 9.2795e-05
5410.0 9.2712e-05
5430.0 8.1991e-05
5450.0 7.5331e-05
5470.0 7.9988e-05
5490.0 9.7724e-05
5510.0 0.00012219
5530.0 0.00014015
5550.0 0.00013545
5570.0 0.00012314
5590.0 0.00010707
5610.0 9.8742e-05
5630.0 9.5749e-05
5650.0 9.1192e-05
5670.0 8.6412e-05
5690.0 7.7253e-05
5710.0 7.5323e-05
5730.0 6.9384e-05
5750.0 4.892e-05
5770.0 3.8166e-05
5790.0 4.325e-05
5810.0 4.8837e-05
5830.0 5.993e-05
5850.0 7.134e-05
5870.0 7.9153e-05
5890.0 8.0494e-05
5910.0 7.8971e-05
5930.0 7.5171e-05
5950.0 7.6598e-05
5970.0 8.7314e-05
5990.0 8.2098e-05
6010.0 6.8823e-05
6030.0 5.8145e-05
6050.0 5.0637e-05
6070.0 5.036e-05
6090.0 5.4608e-05
6110.0 6.106e-05
6130.0 6.1995e-05
6150.0 5.3342e-05
6170.0 4.6924e-05
6190.0 5.2806e-05
6210.0 6.9809e-05
6230.0 9.1609e-05
6250.0 9.9226e-05
6270.0 8.671e-05
6290.0 7.2954e-05
6310.0 5.6953e-05
6330.0 4.3637e-05
6350.0 3.8923e-05
6370.0 4.0931e-05
6390.0 4.7319e-05
6410.0 5.8347e-05
6430.0 6.8133e-05
6450.0 7.7962e-05
6470.0 8.9268e-05
6490.0 0.00010783
6510.0 0.00012057
6530.0 0.00011828
6550.0 0.00010696
6570.0 9.08e-05
6590.0 8.1877e-05
6610.0 7.0599e-05
6630.0 6.396e-05
6650.0 6.046e-05
6670.0 5.8736e-05
6690.0 5.3071e-05
6710.0 4.8243e-05
6730.0 3.4748e-05
6750.0 3.4449e-05
6770.0 3.7444e-05
6790.0 4.3039e-05
6810.0 3.9382e-05
6830.0 4.0552e-05
6850.0 3.7929e-05
6870.0 3.4648e-05
6890.0 3.3268e-05
6910.0 3.5451e-05
6930.0 3.3205e-05
6950.0 3.4162e-05
6970.0 3.5933e-05
6990.0 4.0786e-05
7010.0 4.1134e-05
7030.0 4.1787e-05
7050.0 3.9851e-05
7070.0 3.7971e-05
7090.0 3.8082e-05
7110.0 3.9183e-05
7130.0 4.2167e-05
7150.0 4.4785e-05
7170.0 4.9417e-05
7190.0 5.4323e-05
7210.0 5.338e-05
7230.0 5.4876e-05
7250.0 5.8972e-05
7270.0 6.4266e-05
7290.0 7.6277e-05
7310.0 8.2768e-05
7330.0 8.0002e-05
7350.0 7.2356e-05
7370.0 6.2957e-05
7390.0 6.1076e-05
7410.0 6.4905e-05
7430.0 7.2134e-05
7450.0 7.8567e-05
7470.0 7.7845e-05
7490.0 7.098e-05
7510.0 8.0403e-05
7530.0 7.9522e-05
7550.0 7.1476e-05
7570.0 5.5836e-05
7590.0 3.8385e-05
7610.0 3.2946e-05
7630.0 3.7433e-05
7650.0 4.4259e-05
7670.0 5.5084e-05
7690.0 6.0616e-05
7710.0 6.3169e-05
7730.0 6.6382e-05
7750.0 7.4522e-05
7770.0 7.5693e-05
7790.0 6.9528e-05
7810.0 6.344e-05
7830.0 6.5421e-05
7850.0 6.3595e-05
7870.0 5.8306e-05
7890.0 4.8988e-05
7910.0 3.9821e-05
7930.0 3.8023e-05
7950.0 3.464e-05
7970.0 3.2065e-05
7990.0 3.1882e-05
8010.0 2.3613e-06
8030.0 2.3306e-06
8050.0 2.2992e-06
8070.0 2.3293e-06
8090.0 2.5027e-06
8110.0 2.4601e-06
8130.0 2.0293e-06
8150.0 1.9763e-06
8170.0 1.7023e-06
8190.0 1.6133e-06
8210.0 2.095e-06
8230.0 2.3325e-06
8250.0 2.1023e-06
8270.0 1.8297e-06
8290.0 1.7836e-06
8310.0 1.3728e-06
8330.0 9.2524e-07
8350.0 6.5663e-07
8370.0 4.1371e-07
8390.0 7.5624e-07
8410.0 8.8123e-07
8430.0 1.0863e-06
8450.0 1.2756e-06
8470.0 1.5854e-06
8490.0 1.5743e-06
8510.0 1.5485e-06
8530.0 1.6161e-06
8550.0 2.1804e-06
8570.0 2.5813e-06
8590.0 2.7852e-06
8610.0 3.5183e-06
8630.0 4.2383e-06
8650.0 4.4337e-06
8670.0 4.7117e-06
8690.0 4.7381e-06
8710.0 4.291e-06
8730.0 3.9913e-06
8750.0 3.5231e-06
8770.0 3.3429e-06
8790.0 3.2842e-06
8810.0 3.147e-06
8830.0 2.5165e-06
8850.0 1.8423e-06
8870.0 1.4106e-06
8890.0 1.3791e-06
8910.0 1.5804e-06
8930.0 1.7976e-06
8950.0 1.8321e-06
8970.0 1.8407e-06
8990.0 1.6417e-06
9010.0 1.7204e-05
9030.0 1.5589e-05
9050.0 1.5664e-05
9070.0 1.5788e-05
9090.0 1.5896e-05
9110.0 1.603e-05
9130.0 1.6134e-05
9150.0 1.6214e-05
9170.0 1.63e-05
9190.0 1.6391e-05
9210.0 1.6487e-05
9230.0 1.6589e-05
9250.0 1.6692e-05
9270.0 1.6799e-05
9290.0 1.691e-05
9310.0 1.7021e-05
9330.0 1.7134e-05
9350.0 1.7251e-05
9370.0 1.737e-05
9390.0 1.749e-05
9410.0 1.7614e-05
9430.0 1.7741e-05
9450.0 1.7867e-05
9470.0 1.7997e-05
9490.0 1.813e-05
9510.0 1.8265e-05
9530.0 1.84e-05
9550.0 1.854e-05
9570.0 1.8682e-05
9590.0 1.8825e-05
9610.0 1.897e-05
9630.0 1.912e-05
9650.0 1.927e-05
9670.0 1.9421e-05
9690.0 1.9576e-05
9710.0 1.9733e-05
9730.0 1.989e-05
9750.0 2.005e-05
9770.0 2.0215e-05
9790.0 2.0379e-05
9810.0 2.0544e-05
9830.0 2.0713e-05
9850.0 2.0884e-05
9870.0 2.1054e-05
9890.0 2.1227e-05
9910.0 2.1403e-05
9930.0 2.1579e-05
9950.0 2.1756e-05
9970.0 2.1937e-05
9990.0 2.2119e-05
10010.0 1.9194e-05
10030.0 1.9351e-05
10050.0 1.9512e-05
10070.0 1.9678e-05
10090.0 1.9835e-05
10110.0 1.9996e-05
10130.0 2.0157e-05
10150.0 2.0318e-05
10170.0 2.048e-05
10190.0 2.0646e-05
10210.0 2.0809e-05
10230.0 2.0972e-05
10250.0 2.1138e-05
10270.0 2.1304e-05
10290.0 2.1467e-05
10310.0 2.1633e-05
10330.0 2.18e-05
10350.0 2.1964e-05
10370.0 2.2128e-05
10390.0 2.2294e-05
10410.0 2.2459e-05
10430.0 2.2621e-05
10450.0 2.2784e-05
10470.0 2.2948e-05
10490.0 2.3109e-05
10510.0 2.3268e-05
10530.0 2.3431e-05
10550.0 2.3591e-05
10570.0 2.3747e-05
10590.0 2.3905e-05
10610.0 2.4062e-05
10630.0 2.4215e-05
10650.0 2.4367e-05
10670.0 2.4521e-05
10690.0 2.4672e-05
10710.0 2.4819e-05
10730.0 2.4967e-05
10750.0 2.5115e-05
10770.0 2.5257e-05
10790.0 2.5397e-05
10810.0 2.5538e-05
10830.0 2.5674e-05
10850.0 2.5804e-05
10870.0 2.5929e-05
10890.0 2.6039e-05
10910.0 2.6124e-05
10930.0 2.6172e-05
10950.0 2.6161e-05
10970.0 2.6072e-05
10990.0 2.5898e-05
11010.0 2.5607e-05
11030.0 2.52e-05
11050.0 2.4704e-05
11070.0 2.411e-05
11090.0 2.3397e-05
11110.0 2.2659e-05
11130.0 2.1889e-05
11150.0 2.106e-05
11170.0 2.0206e-05
11190.0 1.9378e-05
11210.0 1.8522e-05
11230.0 1.7644e-05
11250.0 1.6806e-05
11270.0 1.6001e-05
11290.0 1.5194e-05
11310.0 1.443e-05
11330.0 1.3757e-05
11350.0 1.3121e-05
11370.0 1.2534e-05
11390.0 1.2026e-05
11410.0 1.1581e-05
11430.0 1.1168e-05
11450.0 1.0812e-05
11470.0 1.0504e-05
11490.0 1.0218e-05
11510.0 9.9417e-06
11530.0 9.6856e-06
11550.0 9.4312e-06
11570.0 9.1598e-06
11590.0 8.8787e-06
11610.0 8.5926e-06
11630.0 8.2813e-06
11650.0 7.9479e-06
11670.0 7.6194e-06
11690.0 7.2862e-06
11710.0 6.9424e-06
11730.0 6.6094e-06
11750.0 6.3012e-06
11770.0 5.9989e-06
11790.0 5.7156e-06
11810.0 5.4662e-06
11830.0 5.2432e-06
11850.0 5.0378e-06
11870.0 4.8659e-06
11890.0 4.7231e-06
11910.0 4.5975e-06
11930.0 4.4896e-06
11950.0 4.3998e-06
11970.0 4.3195e-06
11990.0 4.2436e-06
12010.0 4.1735e-06
12030.0 4.1058e-06
12050.0 4.0359e-06
12070.0 3.9631e-06
12090.0 3.893e-06
12110.0 3.8218e-06
12130.0 3.7505e-06
12150.0 3.6847e-06
12170.0 3.6273e-06
12190.0 3.5777e-06
12210.0 3.5431e-06
12230.0 3.5263e-06
12250.0 3.529e-06
12270.0 3.5556e-06
12290.0 3.6059e-06
12310.0 3.6781e-06
12330.0 3.779e-06
12350.0 3.905e-06
12370.0 4.0485e-06
12390.0 4.2139e-06
12410.0 4.4077e-06
12430.0 4.6047e-06
12450.0 4.8086e-06
12470.0 5.0255e-06
12490.0 5.2433e-06
12510.0 5.4477e-06
12530.0 5.651e-06
12550.0 5.8471e-06
12570.0 6.0203e-06
12590.0 6.1723e-06
12610.0 6.3077e-06
12630.0 6.4157e-06
12650.0 6.4902e-06
12670.0 6.5392e-06
12690.0 6.5588e-06
12710.0 6.548e-06
12730.0 6.51e-06
12750.0 6.4423e-06
12770.0 6.3494e-06
12790.0 6.2367e-06
12810.0 6.1021e-06
12830.0 5.9464e-06
12850.0 5.7836e-06
12870.0 5.6114e-06
12890.0 5.4252e-06
12910.0 5.2358e-06
12930.0 5.0491e-06
12950.0 4.8544e-06
12970.0 4.6561e-06
12990.0 4.4686e-06
13010.0 4.2834e-06
13030.0 4.0961e-06
13050.0 3.9162e-06
13070.0 3.7477e-06
13090.0 3.5786e-06
13110.0 3.415e-06
13130.0 3.2641e-06
13150.0 3.1213e-06
13170.0 2.9814e-06
13190.0 2.857e-06
13210.0 2.7474e-06
13230.0 2.6473e-06
13250.0 2.5611e-06
13270.0 2.4931e-06
13290.0 2.4402e-06
13310.0 2.4037e-06
13330.0 2.3871e-06
13350.0 2.3891e-06
13370.0 2.4105e-06
13390.0 2.4526e-06
13410.0 2.5095e-06
13430.0 2.5834e-06
13450.0 2.6748e-06
13470.0 2.7762e-06
13490.0 2.8836e-06
13510.0 3.0047e-06
13530.0 3.1275e-06
13550.0 3.245e-06
13570.0 3.3609e-06
13590.0 3.4739e-06
13610.0 3.5743e-06
13630.0 3.6621e-06
13650.0 3.7421e-06
13670.0 3.8086e-06
13690.0 3.86e-06
13710.0 3.8998e-06
13730.0 3.9282e-06
13750.0 3.9424e-06
13770.0 3.9456e-06
13790.0 3.9384e-06
13810.0 3.921e-06
13830.0 3.8954e-06
13850.0 3.8606e-06
13870.0 3.8167e-06
13890.0 3.7665e-06
13910.0 3.7099e-06
13930.0 3.6444e-06
13950.0 3.5729e-06
13970.0 3.4998e-06
13990.0 3.4202e-06
14010.0 3.3355e-06
14030.0 3.2511e-06
14050.0 3.166e-06
14070.0 3.0761e-06
14090.0 2.9901e-06
14110.0 2.9091e-06
14130.0 2.8307e-06
14150.0 2.7569e-06
14170.0 2.6939e-06
14190.0 2.6394e-06
14210.0 2.5932e-06
14230.0 2.559e-06
14250.0 2.5369e-06
14270.0 2.5262e-06
14290.0 2.5285e-06
14310.0 2.5426e-06
14330.0 2.5678e-06
14350.0 2.6051e-06
14370.0 2.6515e-06
14390.0 2.7042e-06
14410.0 2.7663e-06
14430.0 2.8344e-06
14450.0 2.904e-06
14470.0 2.9762e-06
14490.0 3.053e-06
14510.0 3.1265e-06
14530.0 3.1962e-06
14550.0 3.2659e-06
14570.0 3.3329e-06
14590.0 3.3938e-06
14610.0 3.4527e-06
14630.0 3.511e-06
14650.0 3.5653e-06
14670.0 3.6178e-06
14690.0 3.6725e-06
14710.0 3.73e-06
14730.0 3.7875e-06
14750.0 3.8512e-06
14770.0 3.9234e-06
14790.0 4.0018e-06
14810.0 4.0866e-06
14830.0 4.1872e-06
14850.0 4.2965e-06
14870.0 4.4105e-06
14890.0 4.5336e-06
14910.0 4.6642e-06
14930.0 4.7899e-06
14950.0 4.9073e-06
14970.0 5.0184e-06
14990.0 5.1116e-06
15010.0 5.1829e-06
15030.0 5.2357e-06
15050.0 5.2706e-06
15070.0 5.2876e-06
15090.0 5.2936e-06
15110.0 5.2919e-06
15130.0 5.2852e-06
15150.0 5.2763e-06
15170.0 5.2657e-06
15190.0 5.2544e-06
15210.0 5.2432e-06
15230.0 5.2321e-06
15250.0 5.2205e-06
15270.0 5.2091e-06
15290.0 5.1983e-06
15310.0 5.1872e-06
15330.0 5.1759e-06
15350.0 5.1651e-06
15370.0 5.1545e-06
15390.0 5.1432e-06
15410.0 5.1323e-06
15430.0 5.1218e-06
15450.0 5.111e-06
15470.0 5.1001e-06
15490.0 5.0897e-06
15510.0 5.0793e-06
15530.0 5.0686e-06
15550.0 5.0581e-06
15570.0 5.0479e-06
15590.0 5.0374e-06
15610.0 5.0267e-06
15630.0 5.0166e-06
15650.0 5.0064e-06
15670.0 4.9959e-06
15690.0 4.9857e-06
15710.0 4.9759e-06
15730.0 4.9655e-06
15750.0 4.9552e-06
15770.0 4.9453e-06
15790.0 4.9354e-06
15810.0 4.9249e-06
15830.0 4.9149e-06
15850.0 4.9051e-06
15870.0 4.895e-06
15890.0 4.8849e-06
15910.0 4.8753e-06
15930.0 4.8654e-06
15950.0 4.8551e-06
15970.0 4.8453e-06
15990.0 4.8356e-06
16010.0 4.8255e-06
16030.0 4.8154e-06
16050.0 4.8059e-06
16070.0 4.7961e-06
16090.0 4.786e-06
16110.0 4.7763e-06
16130.0 4.7668e-06
16150.0 4.7565e-06
16170.0 4.7465e-06
16190.0 4.737e-06
16210.0 4.7271e-06
16230.0 4.717e-06
16250.0 4.7073e-06
16270.0 4.6978e-06
16290.0 4.6877e-06
16310.0 4.6778e-06
16330.0 4.6682e-06
16350.0 4.6584e-06
16370.0 4.648e-06
16390.0 4.6383e-06
16410.0 4.6286e-06
16430.0 4.6186e-06
16450.0 4.6086e-06
16470.0 4.5991e-06
16490.0 4.589e-06
16510.0 4.5788e-06
16530.0 4.569e-06
16550.0 4.5592e-06
16570.0 4.5489e-06
16590.0 4.5388e-06
16610.0 4.5291e-06
16630.0 4.519e-06
16650.0 4.5088e-06
16670.0 4.4989e-06
16690.0 4.4891e-06
16710.0 4.4785e-06
16730.0 4.4684e-06
16750.0 4.4585e-06
16770.0 4.4482e-06
16790.0 4.4377e-06
16810.0 4.4278e-06
16830.0 4.4177e-06
16850.0 4.4072e-06
16870.0 4.397e-06
16890.0 4.387e-06
16910.0 4.3764e-06
16930.0 4.3657e-06
16950.0 4.3556e-06
16970.0 4.3453e-06
16990.0 4.3346e-06
17010.0 4.3242e-06
17030.0 4.3141e-06
17050.0 4.3034e-06
17070.0 4.2927e-06
17090.0 4.2824e-06
17110.0 4.2719e-06
17130.0 4.2608e-06
17150.0 4.2502e-06
17170.0 4.2398e-06
17190.0 4.229e-06
17210.0 4.2182e-06
17230.0 4.2078e-06
17250.0 4.197e-06
17270.0 4.1858e-06
17290.0 4.1751e-06
17310.0 4.1644e-06
17330.0 4.1533e-06
17350.0 4.1422e-06
17370.0 4.1316e-06
17390.0 4.1207e-06
17410.0 4.1095e-06
17430.0 4.0986e-06
17450.0 4.0878e-06
17470.0 4.0763e-06
17490.0 4.0651e-06
17510.0 4.0542e-06
17530.0 4.043e-06
17550.0 4.0316e-06
17570.0 4.0205e-06
17590.0 4.0096e-06
17610.0 3.9981e-06
17630.0 3.9867e-06
17650.0 3.9756e-06
17670.0 3.9643e-06
17690.0 3.9524e-06
17710.0 3.9412e-06
17730.0 3.93e-06
17750.0 3.9184e-06
17770.0 3.9069e-06
17790.0 3.8958e-06
17810.0 3.8841e-06
17830.0 3.8723e-06
17850.0 3.8609e-06
17870.0 3.8494e-06
17890.0 3.8375e-06
17910.0 3.8257e-06
17930.0 3.8145e-06
17950.0 3.8027e-06
17970.0 3.7908e-06
17990.0 3.7794e-06
18010.0 3.7678e-06
18030.0 3.7556e-06
18050.0 3.7438e-06
18070.0 3.7323e-06
18090.0 3.7203e-06
18110.0 3.7082e-06
18130.0 3.6966e-06
18150.0 3.6849e-06
18170.0 3.6728e-06
18190.0 3.6609e-06
18210.0 3.6493e-06
18230.0 3.6371e-06
18250.0 3.6248e-06
18270.0 3.6131e-06
18290.0 3.6012e-06
18310.0 3.5889e-06
18330.0 3.577e-06
18350.0 3.5653e-06
18370.0 3.553e-06
18390.0 3.5407e-06
18410.0 3.5289e-06
18430.0 3.5168e-06
18450.0 3.5043e-06
18470.0 3.4923e-06
18490.0 3.4804e-06
18510.0 3.4681e-06
18530.0 3.4559e-06
18550.0 3.444e-06
18570.0 3.4318e-06
18590.0 3.4193e-06
18610.0 3.4072e-06
18630.0 3.3952e-06
18650.0 3.3827e-06
18670.0 3.3703e-06
18690.0 3.3585e-06
18710.0 3.3462e-06
18730.0 3.3338e-06
18750.0 3.3216e-06
18770.0 3.3097e-06
18790.0 3.297e-06
18810.0 3.2846e-06
18830.0 3.2726e-06
18850.0 3.2603e-06
18870.0 3.2477e-06
18890.0 3.2356e-06
18910.0 3.2236e-06
18930.0 3.211e-06
18950.0 3.1986e-06
18970.0 3.1866e-06
18990.0 3.1742e-06
19010.0 3.1614e-06
19030.0 3.1494e-06
19050.0 3.1372e-06
19070.0 3.1247e-06
19090.0 3.1124e-06
19110.0 3.1004e-06
19130.0 3.0879e-06
19150.0 3.0753e-06
19170.0 3.0632e-06
19190.0 3.051e-06
19210.0 3.0383e-06
19230.0 3.0259e-06
19250.0 3.014e-06
19270.0 3.0016e-06
19290.0 2.9891e-06
19310.0 2.977e-06
19330.0 2.9648e-06
19350.0 2.9521e-06
19370.0 2.9398e-06
19390.0 2.9277e-06
19410.0 2.9153e-06
19430.0 2.9027e-06
19450.0 2.8907e-06
19470.0 2.8785e-06
19490.0 2.866e-06
19510.0 2.8538e-06
19530.0 2.8418e-06
19550.0 2.8292e-06
19570.0 2.8166e-06
19590.0 2.8046e-06
19610.0 2.7925e-06
19630.0 2.7799e-06
19650.0 2.7678e-06
19670.0 2.7559e-06
19690.0 2.7434e-06
19710.0 2.731e-06
19730.0 2.719e-06
19750.0 2.7068e-06
19770.0 2.6941e-06
19790.0 2.682e-06
19810.0 2.6701e-06
19830.0 2.6576e-06
19850.0 2.6452e-06
19870.0 2.6329e-06
19890.0 2.6198e-06
19910.0 2.6053e-06
19930.0 2.5899e-06
19950.0 2.5722e-06
19970.0 2.5504e-06
19990.0 2.5242e-06
20010.0 2.2458e-06
20030.0 2.2133e-06
20050.0 2.1752e-06
20070.0 2.134e-06
20090.0 2.0897e-06
20110.0 2.0395e-06
20130.0 1.9887e-06
20150.0 1.9384e-06
20170.0 1.8863e-06
20190.0 1.8333e-06
20210.0 1.7834e-06
20230.0 1.7346e-06
20250.0 1.6858e-06
20270.0 1.6404e-06
20290.0 1.599e-06
20310.0 1.5597e-06
20330.0 1.5229e-06
20350.0 1.4924e-06
20370.0 1.4653e-06
20390.0 1.4416e-06
20410.0 1.4224e-06
20430.0 1.4076e-06
20450.0 1.3959e-06
20470.0 1.3881e-06
20490.0 1.3838e-06
20510.0 1.3826e-06
20530.0 1.3843e-06
20550.0 1.3886e-06
20570.0 1.3948e-06
20590.0 1.4032e-06
20610.0 1.4134e-06
20630.0 1.4247e-06
20650.0 1.4372e-06
20670.0 1.4516e-06
20690.0 1.4662e-06
20710.0 1.4814e-06
20730.0 1.4977e-06
20750.0 1.5147e-06
20770.0 1.5315e-06
20790.0 1.5491e-06
20810.0 1.5677e-06
20830.0 1.5862e-06
20850.0 1.6048e-06
20870.0 1.6248e-06
20890.0 1.6451e-06
20910.0 1.6647e-06
20930.0 1.685e-06
20950.0 1.7061e-06
20970.0 1.7266e-06
20990.0 1.7469e-06
21010.0 1.7682e-06
21030.0 1.7891e-06
21050.0 1.8089e-06
21070.0 1.8288e-06
21090.0 1.8487e-06
21110.0 1.8669e-06
21130.0 1.8839e-06
21150.0 1.9005e-06
21170.0 1.9154e-06
21190.0 1.9283e-06
21210.0 1.9399e-06
21230.0 1.9495e-06
21250.0 1.9564e-06
21270.0 1.9607e-06
21290.0 1.9624e-06
21310.0 1.9608e-06
21330.0 1.9562e-06
21350.0 1.948e-06
21370.0 1.9361e-06
21390.0 1.921e-06
21410.0 1.9024e-06
21430.0 1.8789e-06
21450.0 1.8525e-06
21470.0 1.8238e-06
21490.0 1.7912e-06
21510.0 1.7556e-06
21530.0 1.7194e-06
21550.0 1.6814e-06
21570.0 1.6409e-06
21590.0 1.6011e-06
21610.0 1.5626e-06
21630.0 1.5241e-06
21650.0 1.4865e-06
21670.0 1.4539e-06
21690.0 1.4238e-06
21710.0 1.3967e-06
21730.0 1.3746e-06
21750.0 1.3574e-06
21770.0 1.3444e-06
21790.0 1.3369e-06
21810.0 1.3348e-06
21830.0 1.3378e-06
21850.0 1.3461e-06
21870.0 1.3592e-06
21890.0 1.376e-06
21910.0 1.3976e-06
21930.0 1.423e-06
21950.0 1.4504e-06
21970.0 1.4809e-06
21990.0 1.515e-06
22010.0 1.5491e-06
22030.0 1.5838e-06
22050.0 1.6201e-06
22070.0 1.6567e-06
22090.0 1.6914e-06
22110.0 1.7263e-06
22130.0 1.7612e-06
22150.0 1.7937e-06
22170.0 1.8244e-06
22190.0 1.8549e-06
22210.0 1.8832e-06
22230.0 1.9081e-06
22250.0 1.9316e-06
22270.0 1.9532e-06
22290.0 1.9716e-06
22310.0 1.9875e-06
22330.0 2.0014e-06
22350.0 2.0122e-06
22370.0 2.0198e-06
22390.0 2.0246e-06
22410.0 2.0261e-06
22430.0 2.0242e-06
22450.0 2.019e-06
22470.0 2.01e-06
22490.0 1.9973e-06
22510.0 1.9815e-06
22530.0 1.9613e-06
22550.0 1.9368e-06
22570.0 1.9096e-06
22590.0 1.8788e-06
22610.0 1.8435e-06
22630.0 1.8053e-06
22650.0 1.7657e-06
