#lamb flux
1010.0 1.2957e-09
1030.0 1.4329e-09
1050.0 1.5907e-09
1070.0 1.7684e-09
1090.0 1.9702e-09
1110.0 2.1772e-09
1130.0 2.3855e-09
1150.0 2.6037e-09
1170.0 2.8288e-09
1190.0 3.0423e-09
1210.0 3.2586e-09
1230.0 3.4821e-09
1250.0 3.7011e-09
1270.0 3.9138e-09
1290.0 4.1386e-09
1310.0 4.3632e-09
1330.0 4.5785e-09
1350.0 4.7964e-09
1370.0 5.0212e-09
1390.0 5.2405e-09
1410.0 5.4532e-09
1430.0 5.6756e-09
1450.0 5.898e-09
1470.0 6.113e-09
1490.0 6.3302e-09
1510.0 6.5598e-09
1530.0 6.7773e-09
1550.0 6.9919e-09
1570.0 7.214e-09
1590.0 7.4363e-09
1610.0 7.6488e-09
1630.0 7.868e-09
1650.0 8.093e-09
1670.0 8.3107e-09
1690.0 8.5258e-09
1710.0 8.7494e-09
1730.0 8.9744e-09
1750.0 9.1861e-09
1770.0 9.4044e-09
1790.0 9.6272e-09
1810.0 9.8432e-09
1830.0 1.0056e-08
1850.0 1.0282e-08
1870.0 1.0502e-08
1890.0 1.0715e-08
1910.0 1.0934e-08
1930.0 1.1157e-08
1950.0 1.1371e-08
1970.0 1.1583e-08
1990.0 1.1804e-08
2010.0 1.2021e-08
2030.0 1.2231e-08
2050.0 1.2448e-08
2070.0 1.2671e-08
2090.0 1.2882e-08
2110.0 1.3092e-08
2130.0 1.3309e-08
2150.0 1.3523e-08
2170.0 1.3728e-08
2190.0 1.394e-08
2210.0 1.4155e-08
2230.0 1.4361e-08
2250.0 1.4567e-08
2270.0 1.4782e-08
2290.0 1.499e-08
2310.0 1.5191e-08
2330.0 1.5399e-08
2350.0 1.5613e-08
2370.0 1.5827e-08
2390.0 1.6058e-08
2410.0 1.6331e-08
2430.0 1.6646e-08
2450.0 1.7023e-08
2470.0 1.7506e-08
2490.0 1.8114e-08
2510.0 1.8805e-08
2530.0 1.9638e-08
2550.0 2.068e-08
2570.0 2.1977e-08
2590.0 2.3663e-08
2610.0 2.6188e-08
2630.0 2.9793e-08
2650.0 3.4506e-08
2670.0 4.0599e-08
2690.0 4.8087e-08
2710.0 5.6078e-08
2730.0 6.3974e-08
2750.0 7.1751e-08
2770.0 7.8514e-08
2790.0 8.3884e-08
2810.0 8.8144e-08
2830.0 9.1472e-08
2850.0 9.3742e-08
2870.0 9.5407e-08
2890.0 9.6725e-08
2910.0 9.7776e-08
2930.0 9.8634e-08
2950.0 9.9453e-08
2970.0 1.0025e-07
2990.0 1.01e-07
3010.0 2.8569e-06
3030.0 2.8781e-06
3050.0 2.8987e-06
3070.0 2.9163e-06
3090.0 2.9314e-06
3110.0 2.9407e-06
3130.0 2.9403e-06
3150.0 2.9271e-06
3170.0 2.8957e-06
3190.0 2.8464e-06
3210.0 2.7839e-06
3230.0 2.7124e-06
3250.0 2.6418e-06
3270.0 2.5901e-06
3290.0 2.5614e-06
3310.0 2.566e-06
3330.0 2.6031e-06
3350.0 2.6677e-06
3370.0 2.7599e-06
3390.0 2.8762e-06
3410.0 3.0028e-06
3430.0 3.1449e-06
3450.0 3.3085e-06
3470.0 3.4872e-06
3490.0 3.6766e-06
3510.0 3.8906e-06
3530.0 4.1198e-06
3550.0 4.352e-06
3570.0 4.5942e-06
3590.0 4.8576e-06
3610.0 5.1291e-06
3630.0 5.3997e-06
3650.0 5.6805e-06
3670.0 5.9368e-06
3690.0 6.1284e-06
3710.0 6.2382e-06
3730.0 6.2416e-06
3750.0 6.1542e-06
3770.0 6.121e-06
3790.0 6.0845e-06
3810.0 5.9307e-06
3830.0 6.1136e-06
3850.0 6.8428e-06
3870.0 7.2388e-06
3890.0 7.1991e-06
3910.0 7.227e-06
3930.0 7.4207e-06
3950.0 7.5424e-06
3970.0 6.8766e-06
3990.0 5.9099e-06
4010.0 1.7693e-05
4030.0 2.1429e-05
4050.0 2.4567e-05
4070.0 2.133e-05
4090.0 1.932e-05
4110.0 1.7044e-05
4130.0 1.5701e-05
4150.0 1.6719e-05
4170.0 1.6453e-05
4190.0 1.7526e-05
4210.0 1.7374e-05
4230.0 1.8388e-05
4250.0 2.1756e-05
4270.0 2.2019e-05
4290.0 2.0285e-05
4310.0 2.1067e-05
4330.0 2.2401e-05
4350.0 2.513e-05
4370.0 2.8608e-05
4390.0 2.6826e-05
4410.0 1.9798e-05
4430.0 1.6752e-05
4450.0 1.5395e-05
4470.0 1.1807e-05
4490.0 1.2758e-05
4510.0 1.9305e-05
4530.0 2.2272e-05
4550.0 2.2454e-05
4570.0 2.524e-05
4590.0 2.8743e-05
4610.0 3.8835e-05
4630.0 5.0462e-05
4650.0 5.4689e-05
4670.0 5.0634e-05
4690.0 4.8324e-05
4710.0 5.1078e-05
4730.0 4.8177e-05
4750.0 3.6e-05
4770.0 2.6398e-05
4790.0 2.4666e-05
4810.0 2.3522e-05
4830.0 2.1542e-05
4850.0 2.3636e-05
4870.0 3.1226e-05
4890.0 3.6821e-05
4910.0 3.2289e-05
4930.0 2.8585e-05
4950.0 3.1412e-05
4970.0 4.0289e-05
4990.0 5.4601e-05
5010.0 6.2816e-05
5030.0 5.5365e-05
5050.0 3.7444e-05
5070.0 2.4685e-05
5090.0 1.9897e-05
5110.0 2.0454e-05
5130.0 2.3612e-05
5150.0 2.5572e-05
5170.0 2.5183e-05
5190.0 2.3527e-05
5210.0 2.4598e-05
5230.0 2.5876e-05
5250.0 2.7898e-05
5270.0 3.0078e-05
5290.0 3.3328e-05
5310.0 3.8818e-05
5330.0 4.2954e-05
5350.0 4.2679e-05
5370.0 4.4842e-05
5390.0 5.148e-05
5410.0 5.1397e-05
5430.0 4.5428e-05
5450.0 4.1755e-05
5470.0 4.4353e-05
5490.0 5.419e-05
5510.0 6.7746e-05
5530.0 7.7706e-05
5550.0 7.5082e-05
5570.0 6.8252e-05
5590.0 5.9332e-05
5610.0 5.4739e-05
5630.0 5.3119e-05
5650.0 5.0579e-05
5670.0 4.792e-05
5690.0 4.282e-05
5710.0 4.1761e-05
5730.0 3.8478e-05
5750.0 2.71e-05
5770.0 2.1134e-05
5790.0 2.3957e-05
5810.0 2.7043e-05
5830.0 3.3219e-05
5850.0 3.9563e-05
5870.0 4.3891e-05
5890.0 4.4623e-05
5910.0 4.3777e-05
5930.0 4.1671e-05
5950.0 4.2464e-05
5970.0 4.8425e-05
5990.0 4.5504e-05
6010.0 3.8133e-05
6030.0 3.2212e-05
6050.0 2.8056e-05
6070.0 2.7925e-05
6090.0 3.0284e-05
6110.0 3.3847e-05
6130.0 3.4353e-05
6150.0 2.9547e-05
6170.0 2.5977e-05
6190.0 2.9239e-05
6210.0 3.8683e-05
6230.0 5.0795e-05
6250.0 5.5019e-05
6270.0 4.805e-05
6290.0 4.043e-05
6310.0 3.156e-05
6330.0 2.4175e-05
6350.0 2.1573e-05
6370.0 2.2686e-05
6390.0 2.623e-05
6410.0 3.2351e-05
6430.0 3.7783e-05
6450.0 4.3248e-05
6470.0 4.9497e-05
6490.0 5.9786e-05
6510.0 6.6849e-05
6530.0 6.5599e-05
6550.0 5.9324e-05
6570.0 5.0342e-05
6590.0 4.5404e-05
6610.0 3.9142e-05
6630.0 3.5487e-05
6650.0 3.3553e-05
6670.0 3.2574e-05
6690.0 2.9408e-05
6710.0 2.6742e-05
6730.0 1.922e-05
6750.0 1.9077e-05
6770.0 2.0776e-05
6790.0 2.3901e-05
6810.0 2.1836e-05
6830.0 2.2484e-05
6850.0 2.1016e-05
6870.0 1.92e-05
6890.0 1.8424e-05
6910.0 1.9646e-05
6930.0 1.8402e-05
6950.0 1.8947e-05
6970.0 1.9929e-05
6990.0 2.2619e-05
7010.0 2.2804e-05
7030.0 2.3184e-05
7050.0 2.2098e-05
7070.0 2.104e-05
7090.0 2.111e-05
7110.0 2.1726e-05
7130.0 2.339e-05
7150.0 2.4851e-05
7170.0 2.7424e-05
7190.0 3.0144e-05
7210.0 2.9605e-05
7230.0 3.0432e-05
7250.0 3.2702e-05
7270.0 3.5632e-05
7290.0 4.2302e-05
7310.0 4.5899e-05
7330.0 4.436e-05
7350.0 4.012e-05
7370.0 3.488e-05
7390.0 3.3847e-05
7410.0 3.5994e-05
7430.0 4.0008e-05
7450.0 4.3574e-05
7470.0 4.3153e-05
7490.0 3.9316e-05
7510.0 4.4617e-05
7530.0 4.411e-05
7550.0 3.9662e-05
7570.0 3.096e-05
7590.0 2.1244e-05
7610.0 1.8222e-05
7630.0 2.0724e-05
7650.0 2.4517e-05
7670.0 3.055e-05
7690.0 3.362e-05
7710.0 3.501e-05
7730.0 3.6783e-05
7750.0 4.1326e-05
7770.0 4.1979e-05
7790.0 3.8558e-05
7810.0 3.5159e-05
7830.0 3.6267e-05
7850.0 3.5278e-05
7870.0 3.2357e-05
7890.0 2.7174e-05
7910.0 2.2067e-05
7930.0 2.108e-05
7950.0 1.9204e-05
7970.0 1.7769e-05
7990.0 1.766e-05
8010.0 1.4809e-06
8030.0 1.4399e-06
8050.0 1.4413e-06
8070.0 1.4975e-06
8090.0 1.6627e-06
8110.0 1.6227e-06
8130.0 1.2485e-06
8150.0 1.2368e-06
8170.0 9.9201e-07
8190.0 8.916e-07
8210.0 1.2819e-06
8230.0 1.4499e-06
8250.0 1.177e-06
8270.0 1.0108e-06
8290.0 1.0722e-06
8310.0 8.4757e-07
8330.0 5.6471e-07
8350.0 4.0693e-07
8370.0 2.2285e-07
8390.0 4.6466e-07
8410.0 5.3841e-07
8430.0 6.6336e-07
8450.0 7.7562e-07
8470.0 1.0177e-06
8490.0 9.7856e-07
8510.0 9.285e-07
8530.0 9.0374e-07
8550.0 1.3613e-06
8570.0 1.687e-06
8590.0 1.6906e-06
8610.0 2.1952e-06
8630.0 2.6083e-06
8650.0 2.5398e-06
8670.0 2.7867e-06
8690.0 2.9659e-06
8710.0 2.6582e-06
8730.0 2.5275e-06
8750.0 2.1859e-06
8770.0 2.0521e-06
8790.0 2.052e-06
8810.0 2.0092e-06
8830.0 1.5158e-06
8850.0 1.0415e-06
8870.0 7.8822e-07
8890.0 8.6493e-07
8910.0 1.0598e-06
8930.0 1.2546e-06
8950.0 1.2994e-06
8970.0 1.2889e-06
8990.0 1.0921e-06
9010.0 9.3887e-06
9030.0 8.4465e-06
9050.0 8.4949e-06
9070.0 8.5699e-06
9090.0 8.6353e-06
9110.0 8.716e-06
9130.0 8.7778e-06
9150.0 8.8254e-06
9170.0 8.876e-06
9190.0 8.93e-06
9210.0 8.987e-06
9230.0 9.0471e-06
9250.0 9.108e-06
9270.0 9.1712e-06
9290.0 9.2363e-06
9310.0 9.3017e-06
9330.0 9.3683e-06
9350.0 9.4374e-06
9370.0 9.5072e-06
9390.0 9.5776e-06
9410.0 9.65e-06
9430.0 9.7247e-06
9450.0 9.7989e-06
9470.0 9.8746e-06
9490.0 9.9525e-06
9510.0 1.0031e-05
9530.0 1.011e-05
9550.0 1.0192e-05
9570.0 1.0275e-05
9590.0 1.0359e-05
9610.0 1.0444e-05
9630.0 1.0531e-05
9650.0 1.0619e-05
9670.0 1.0706e-05
9690.0 1.0797e-05
9710.0 1.0888e-05
9730.0 1.098e-05
9750.0 1.1073e-05
9770.0 1.1169e-05
9790.0 1.1265e-05
9810.0 1.1361e-05
9830.0 1.146e-05
9850.0 1.1559e-05
9870.0 1.1658e-05
9890.0 1.1759e-05
9910.0 1.1862e-05
9930.0 1.1964e-05
9950.0 1.2067e-05
9970.0 1.2172e-05
9990.0 1.2279e-05
10010.0 1.066e-05
10030.0 1.0751e-05
10050.0 1.0845e-05
10070.0 1.0941e-05
10090.0 1.1033e-05
10110.0 1.1126e-05
10130.0 1.122e-05
10150.0 1.1314e-05
10170.0 1.1409e-05
10190.0 1.1505e-05
10210.0 1.1601e-05
10230.0 1.1696e-05
10250.0 1.1792e-05
10270.0 1.1889e-05
10290.0 1.1984e-05
10310.0 1.208e-05
10330.0 1.2178e-05
10350.0 1.2273e-05
10370.0 1.2369e-05
10390.0 1.2465e-05
10410.0 1.2562e-05
10430.0 1.2656e-05
10450.0 1.2751e-05
10470.0 1.2846e-05
10490.0 1.294e-05
10510.0 1.3033e-05
10530.0 1.3128e-05
10550.0 1.3221e-05
10570.0 1.3312e-05
10590.0 1.3404e-05
10610.0 1.3495e-05
10630.0 1.3585e-05
10650.0 1.3673e-05
10670.0 1.3763e-05
10690.0 1.3851e-05
10710.0 1.3936e-05
10730.0 1.4022e-05
10750.0 1.4109e-05
10770.0 1.4191e-05
10790.0 1.4273e-05
10810.0 1.4355e-05
10830.0 1.4434e-05
10850.0 1.451e-05
10870.0 1.4583e-05
10890.0 1.4647e-05
10910.0 1.4697e-05
10930.0 1.4727e-05
10950.0 1.4722e-05
10970.0 1.4674e-05
10990.0 1.4577e-05
11010.0 1.4216e-05
11030.0 1.399e-05
11050.0 1.3715e-05
11070.0 1.3385e-05
11090.0 1.2989e-05
11110.0 1.2579e-05
11130.0 1.2152e-05
11150.0 1.1692e-05
11170.0 1.1217e-05
11190.0 1.0757e-05
11210.0 1.0282e-05
11230.0 9.7953e-06
11250.0 9.3298e-06
11270.0 8.8829e-06
11290.0 8.4351e-06
11310.0 8.011e-06
11330.0 7.6374e-06
11350.0 7.2845e-06
11370.0 6.9584e-06
11390.0 6.6762e-06
11410.0 6.4294e-06
11430.0 6.2e-06
11450.0 6.0023e-06
11470.0 5.8313e-06
11490.0 5.6722e-06
11510.0 5.5189e-06
11530.0 5.3767e-06
11550.0 5.2354e-06
11570.0 5.0846e-06
11590.0 4.9285e-06
11610.0 4.7696e-06
11630.0 4.5967e-06
11650.0 4.4116e-06
11670.0 4.2291e-06
11690.0 4.0441e-06
11710.0 3.8533e-06
11730.0 3.6684e-06
11750.0 3.4973e-06
11770.0 3.3294e-06
11790.0 3.1722e-06
11810.0 3.0337e-06
11830.0 2.9098e-06
11850.0 2.7957e-06
11870.0 2.7003e-06
11890.0 2.6209e-06
11910.0 2.5512e-06
11930.0 2.4912e-06
11950.0 2.4413e-06
11970.0 2.3967e-06
11990.0 2.3545e-06
12010.0 2.3155e-06
12030.0 2.2778e-06
12050.0 2.239e-06
12070.0 2.1985e-06
12090.0 2.1596e-06
12110.0 2.12e-06
12130.0 2.0804e-06
12150.0 2.0438e-06
12170.0 2.0119e-06
12190.0 1.9843e-06
12210.0 1.965e-06
12230.0 1.9557e-06
12250.0 1.9571e-06
12270.0 1.9718e-06
12290.0 1.9996e-06
12310.0 2.0395e-06
12330.0 2.0954e-06
12350.0 2.1652e-06
12370.0 2.2447e-06
12390.0 2.3363e-06
12410.0 2.4437e-06
12430.0 2.5528e-06
12450.0 2.6658e-06
12470.0 2.786e-06
12490.0 2.9067e-06
12510.0 3.02e-06
12530.0 3.1326e-06
12550.0 3.2413e-06
12570.0 3.3372e-06
12590.0 3.4214e-06
12610.0 3.4965e-06
12630.0 3.5563e-06
12650.0 3.5975e-06
12670.0 3.6247e-06
12690.0 3.6355e-06
12710.0 3.6295e-06
12730.0 3.6084e-06
12750.0 3.5708e-06
12770.0 3.5192e-06
12790.0 3.4567e-06
12810.0 3.3821e-06
12830.0 3.2957e-06
12850.0 3.2055e-06
12870.0 3.11e-06
12890.0 3.0067e-06
12910.0 2.9017e-06
12930.0 2.7982e-06
12950.0 2.6902e-06
12970.0 2.5803e-06
12990.0 2.4764e-06
13010.0 2.3737e-06
13030.0 2.2699e-06
13050.0 2.1702e-06
13070.0 2.0768e-06
13090.0 1.983e-06
13110.0 1.8923e-06
13130.0 1.8087e-06
13150.0 1.7295e-06
13170.0 1.652e-06
13190.0 1.583e-06
13210.0 1.5223e-06
13230.0 1.4668e-06
13250.0 1.419e-06
13270.0 1.3812e-06
13290.0 1.3519e-06
13310.0 1.3317e-06
13330.0 1.3224e-06
13350.0 1.3235e-06
13370.0 1.3353e-06
13390.0 1.3586e-06
13410.0 1.3901e-06
13430.0 1.431e-06
13450.0 1.4816e-06
13470.0 1.5378e-06
13490.0 1.5973e-06
13510.0 1.6644e-06
13530.0 1.7324e-06
13550.0 1.7975e-06
13570.0 1.8618e-06
13590.0 1.9244e-06
13610.0 1.98e-06
13630.0 2.0287e-06
13650.0 2.0731e-06
13670.0 2.1099e-06
13690.0 2.1384e-06
13710.0 2.1605e-06
13730.0 2.1762e-06
13750.0 2.1841e-06
13770.0 2.1859e-06
13790.0 2.182e-06
13810.0 2.1723e-06
13830.0 2.1581e-06
13850.0 2.1388e-06
13870.0 2.1145e-06
13890.0 2.0867e-06
13910.0 2.0554e-06
13930.0 2.0191e-06
13950.0 1.9795e-06
13970.0 1.939e-06
13990.0 1.8949e-06
14010.0 1.8479e-06
14030.0 1.8012e-06
14050.0 1.754e-06
14070.0 1.7042e-06
14090.0 1.6565e-06
14110.0 1.6117e-06
14130.0 1.5682e-06
14150.0 1.5273e-06
14170.0 1.4924e-06
14190.0 1.4622e-06
14210.0 1.4366e-06
14230.0 1.4177e-06
14250.0 1.4054e-06
14270.0 1.3995e-06
14290.0 1.4007e-06
14310.0 1.4085e-06
14330.0 1.4225e-06
14350.0 1.4431e-06
14370.0 1.4688e-06
14390.0 1.498e-06
14410.0 1.5324e-06
14430.0 1.5702e-06
14450.0 1.6088e-06
14470.0 1.6488e-06
14490.0 1.6913e-06
14510.0 1.732e-06
14530.0 1.7707e-06
14550.0 1.8093e-06
14570.0 1.8464e-06
14590.0 1.8802e-06
14610.0 1.9129e-06
14630.0 1.9452e-06
14650.0 1.9753e-06
14670.0 2.0044e-06
14690.0 2.0347e-06
14710.0 2.0666e-06
14730.0 2.0984e-06
14750.0 2.1337e-06
14770.0 2.1738e-06
14790.0 2.2172e-06
14810.0 2.2642e-06
14830.0 2.3199e-06
14850.0 2.3805e-06
14870.0 2.4437e-06
14890.0 2.5119e-06
14910.0 2.5843e-06
14930.0 2.654e-06
14950.0 2.7191e-06
14970.0 2.7807e-06
14990.0 2.8324e-06
15010.0 2.8719e-06
15030.0 2.9012e-06
15050.0 2.9205e-06
15070.0 2.93e-06
15090.0 2.9333e-06
15110.0 2.9324e-06
15130.0 2.9287e-06
15150.0 2.9238e-06
15170.0 2.9179e-06
15190.0 2.9117e-06
15210.0 2.9055e-06
15230.0 2.8993e-06
15250.0 2.893e-06
15270.0 2.8866e-06
15290.0 2.8807e-06
15310.0 2.8745e-06
15330.0 2.8683e-06
15350.0 2.8624e-06
15370.0 2.8565e-06
15390.0 2.8502e-06
15410.0 2.8442e-06
15430.0 2.8384e-06
15450.0 2.8325e-06
15470.0 2.8264e-06
15490.0 2.8207e-06
15510.0 2.8149e-06
15530.0 2.809e-06
15550.0 2.8032e-06
15570.0 2.7976e-06
15590.0 2.7918e-06
15610.0 2.7859e-06
15630.0 2.7803e-06
15650.0 2.7747e-06
15670.0 2.7689e-06
15690.0 2.7632e-06
15710.0 2.7578e-06
15730.0 2.7521e-06
15750.0 2.7464e-06
15770.0 2.7409e-06
15790.0 2.7354e-06
15810.0 2.7296e-06
15830.0 2.7241e-06
15850.0 2.7188e-06
15870.0 2.7132e-06
15890.0 2.7076e-06
15910.0 2.7023e-06
15930.0 2.6968e-06
15950.0 2.6911e-06
15970.0 2.6857e-06
15990.0 2.6803e-06
16010.0 2.6748e-06
16030.0 2.6692e-06
16050.0 2.6639e-06
16070.0 2.6585e-06
16090.0 2.6529e-06
16110.0 2.6476e-06
16130.0 2.6423e-06
16150.0 2.6367e-06
16170.0 2.6311e-06
16190.0 2.6258e-06
16210.0 2.6204e-06
16230.0 2.6148e-06
16250.0 2.6095e-06
16270.0 2.6042e-06
16290.0 2.5986e-06
16310.0 2.5931e-06
16330.0 2.5878e-06
16350.0 2.5824e-06
16370.0 2.5767e-06
16390.0 2.5713e-06
16410.0 2.566e-06
16430.0 2.5604e-06
16450.0 2.5549e-06
16470.0 2.5496e-06
16490.0 2.5441e-06
16510.0 2.5384e-06
16530.0 2.533e-06
16550.0 2.5276e-06
16570.0 2.5219e-06
16590.0 2.5163e-06
16610.0 2.5109e-06
16630.0 2.5054e-06
16650.0 2.4997e-06
16670.0 2.4943e-06
16690.0 2.4888e-06
16710.0 2.483e-06
16730.0 2.4773e-06
16750.0 2.4719e-06
16770.0 2.4662e-06
16790.0 2.4604e-06
16810.0 2.4549e-06
16830.0 2.4493e-06
16850.0 2.4435e-06
16870.0 2.4378e-06
16890.0 2.4323e-06
16910.0 2.4265e-06
16930.0 2.4205e-06
16950.0 2.4149e-06
16970.0 2.4092e-06
16990.0 2.4033e-06
17010.0 2.3976e-06
17030.0 2.392e-06
17050.0 2.386e-06
17070.0 2.3801e-06
17090.0 2.3744e-06
17110.0 2.3686e-06
17130.0 2.3624e-06
17150.0 2.3566e-06
17170.0 2.3508e-06
17190.0 2.3448e-06
17210.0 2.3388e-06
17230.0 2.3331e-06
17250.0 2.3271e-06
17270.0 2.3209e-06
17290.0 2.315e-06
17310.0 2.3091e-06
17330.0 2.3029e-06
17350.0 2.2967e-06
17370.0 2.2909e-06
17390.0 2.2848e-06
17410.0 2.2786e-06
17430.0 2.2726e-06
17450.0 2.2666e-06
17470.0 2.2602e-06
17490.0 2.254e-06
17510.0 2.248e-06
17530.0 2.2418e-06
17550.0 2.2354e-06
17570.0 2.2293e-06
17590.0 2.2232e-06
17610.0 2.2169e-06
17630.0 2.2105e-06
17650.0 2.2044e-06
17670.0 2.1981e-06
17690.0 2.1915e-06
17710.0 2.1854e-06
17730.0 2.1791e-06
17750.0 2.1727e-06
17770.0 2.1663e-06
17790.0 2.1601e-06
17810.0 2.1537e-06
17830.0 2.1471e-06
17850.0 2.1408e-06
17870.0 2.1344e-06
17890.0 2.1278e-06
17910.0 2.1213e-06
17930.0 2.115e-06
17950.0 2.1085e-06
17970.0 2.1019e-06
17990.0 2.0956e-06
18010.0 2.0892e-06
18030.0 2.0824e-06
18050.0 2.0759e-06
18070.0 2.0694e-06
18090.0 2.0628e-06
18110.0 2.0561e-06
18130.0 2.0497e-06
18150.0 2.0432e-06
18170.0 2.0364e-06
18190.0 2.0298e-06
18210.0 2.0234e-06
18230.0 2.0166e-06
18250.0 2.0098e-06
18270.0 2.0033e-06
18290.0 1.9967e-06
18310.0 1.9899e-06
18330.0 1.9833e-06
18350.0 1.9768e-06
18370.0 1.97e-06
18390.0 1.9632e-06
18410.0 1.9566e-06
18430.0 1.9499e-06
18450.0 1.943e-06
18470.0 1.9363e-06
18490.0 1.9297e-06
18510.0 1.9229e-06
18530.0 1.9161e-06
18550.0 1.9095e-06
18570.0 1.9027e-06
18590.0 1.8958e-06
18610.0 1.8891e-06
18630.0 1.8824e-06
18650.0 1.8755e-06
18670.0 1.8686e-06
18690.0 1.862e-06
18710.0 1.8552e-06
18730.0 1.8483e-06
18750.0 1.8416e-06
18770.0 1.8349e-06
18790.0 1.8279e-06
18810.0 1.821e-06
18830.0 1.8143e-06
18850.0 1.8075e-06
18870.0 1.8005e-06
18890.0 1.7938e-06
18910.0 1.7871e-06
18930.0 1.7802e-06
18950.0 1.7733e-06
18970.0 1.7666e-06
18990.0 1.7597e-06
19010.0 1.7526e-06
19030.0 1.746e-06
19050.0 1.7392e-06
19070.0 1.7323e-06
19090.0 1.7254e-06
19110.0 1.7188e-06
19130.0 1.7118e-06
19150.0 1.7049e-06
19170.0 1.6981e-06
19190.0 1.6913e-06
19210.0 1.6843e-06
19230.0 1.6774e-06
19250.0 1.6708e-06
19270.0 1.6639e-06
19290.0 1.657e-06
19310.0 1.6503e-06
19330.0 1.6435e-06
19350.0 1.6364e-06
19370.0 1.6296e-06
19390.0 1.6229e-06
19410.0 1.616e-06
19430.0 1.609e-06
19450.0 1.6024e-06
19470.0 1.5956e-06
19490.0 1.5887e-06
19510.0 1.5819e-06
19530.0 1.5752e-06
19550.0 1.5682e-06
19570.0 1.5613e-06
19590.0 1.5546e-06
19610.0 1.5478e-06
19630.0 1.5409e-06
19650.0 1.5341e-06
19670.0 1.5275e-06
19690.0 1.5206e-06
19710.0 1.5137e-06
19730.0 1.5071e-06
19750.0 1.5003e-06
19770.0 1.4933e-06
19790.0 1.4865e-06
19810.0 1.4799e-06
19830.0 1.473e-06
19850.0 1.4661e-06
19870.0 1.4593e-06
19890.0 1.452e-06
19910.0 1.444e-06
19930.0 1.4354e-06
19950.0 1.4256e-06
19970.0 1.4135e-06
19990.0 1.399e-06
20010.0 1.2448e-06
20030.0 1.2268e-06
20050.0 1.2057e-06
20070.0 1.1828e-06
20090.0 1.1582e-06
20110.0 1.1304e-06
20130.0 1.1023e-06
20150.0 1.0744e-06
20170.0 1.0455e-06
20190.0 1.0161e-06
20210.0 9.8843e-07
20230.0 9.6141e-07
20250.0 9.3434e-07
20270.0 9.0921e-07
20290.0 8.8626e-07
20310.0 8.6446e-07
20330.0 8.4408e-07
20350.0 8.2717e-07
20370.0 8.1215e-07
20390.0 7.9898e-07
20410.0 7.8835e-07
20430.0 7.8015e-07
20450.0 7.7365e-07
20470.0 7.693e-07
20490.0 7.6695e-07
20510.0 7.6627e-07
20530.0 7.6722e-07
20550.0 7.6958e-07
20570.0 7.7302e-07
20590.0 7.7769e-07
20610.0 7.8333e-07
20630.0 7.8956e-07
20650.0 7.9652e-07
20670.0 8.0447e-07
20690.0 8.1258e-07
20710.0 8.2097e-07
20730.0 8.3002e-07
20750.0 8.3946e-07
20770.0 8.4875e-07
20790.0 8.5851e-07
20810.0 8.6882e-07
20830.0 8.7909e-07
20850.0 8.894e-07
20870.0 9.0044e-07
20890.0 9.117e-07
20910.0 9.2256e-07
20930.0 9.3383e-07
20950.0 9.455e-07
20970.0 9.5688e-07
20990.0 9.6811e-07
21010.0 9.7992e-07
21030.0 9.9146e-07
21050.0 1.0025e-06
21070.0 1.0135e-06
21090.0 1.0245e-06
21110.0 1.0346e-06
21130.0 1.044e-06
21150.0 1.0532e-06
21170.0 1.0615e-06
21190.0 1.0686e-06
21210.0 1.075e-06
21230.0 1.0803e-06
21250.0 1.0841e-06
21270.0 1.0865e-06
21290.0 1.0874e-06
21310.0 1.0866e-06
21330.0 1.084e-06
21350.0 1.0795e-06
21370.0 1.0729e-06
21390.0 1.0645e-06
21410.0 1.0542e-06
21430.0 1.0412e-06
21450.0 1.0266e-06
21470.0 1.0106e-06
21490.0 9.9261e-07
21510.0 9.7285e-07
21530.0 9.5277e-07
21550.0 9.3174e-07
21570.0 9.0931e-07
21590.0 8.8725e-07
21610.0 8.6593e-07
21630.0 8.446e-07
21650.0 8.2375e-07
21670.0 8.0568e-07
21690.0 7.8901e-07
21710.0 7.74e-07
21730.0 7.6171e-07
21750.0 7.5223e-07
21770.0 7.45e-07
21790.0 7.4085e-07
21810.0 7.3969e-07
21830.0 7.4133e-07
21850.0 7.4596e-07
21870.0 7.5319e-07
21890.0 7.6252e-07
21910.0 7.7449e-07
21930.0 7.8853e-07
21950.0 8.0374e-07
21970.0 8.2058e-07
21990.0 8.395e-07
22010.0 8.5839e-07
22030.0 8.7759e-07
22050.0 8.9775e-07
22070.0 9.1802e-07
22090.0 9.3721e-07
22110.0 9.5656e-07
22130.0 9.7587e-07
22150.0 9.9391e-07
22170.0 1.0109e-06
22190.0 1.0278e-06
22210.0 1.0435e-06
22230.0 1.0573e-06
22250.0 1.0703e-06
22270.0 1.0822e-06
22290.0 1.0925e-06
22310.0 1.1012e-06
22330.0 1.109e-06
22350.0 1.1149e-06
22370.0 1.1192e-06
22390.0 1.1218e-06
22410.0 1.1226e-06
22430.0 1.1216e-06
22450.0 1.1187e-06
22470.0 1.1137e-06
22490.0 1.1066e-06
22510.0 1.0979e-06
22530.0 1.0867e-06
22550.0 1.0731e-06
22570.0 1.058e-06
22590.0 1.041e-06
22610.0 1.0214e-06
22630.0 1.0003e-06
