#lamb flux
1010.0 5.8467e-05
1030.0 7.0479e-05
1050.0 8.3098e-05
1070.0 9.5785e-05
1090.0 0.00010831
1110.0 0.0001185
1130.0 0.00012586
1150.0 0.00013089
1170.0 0.00013324
1190.0 0.00013195
1210.0 0.00012833
1230.0 0.0001229
1250.0 0.00011563
1270.0 0.00010706
1290.0 9.834e-05
1310.0 8.947e-05
1330.0 8.0737e-05
1350.0 7.385e-05
1370.0 7.2784e-05
1390.0 7.1167e-05
1410.0 6.9106e-05
1430.0 6.6875e-05
1450.0 6.4444e-05
1470.0 6.1841e-05
1490.0 5.9233e-05
1510.0 5.6664e-05
1530.0 5.4006e-05
1550.0 5.1476e-05
1570.0 4.9154e-05
1590.0 4.7971e-05
1610.0 4.9654e-05
1630.0 5.1832e-05
1650.0 5.4467e-05
1670.0 5.7504e-05
1690.0 6.1024e-05
1710.0 6.5182e-05
1730.0 6.9974e-05
1750.0 7.517e-05
1770.0 8.1185e-05
1790.0 8.811e-05
1810.0 9.5934e-05
1830.0 0.00010473
1850.0 0.00011388
1870.0 0.00012438
1890.0 0.00013616
1910.0 0.00014948
1930.0 0.00016451
1950.0 0.00018112
1970.0 0.00019954
1990.0 0.00022008
2010.0 0.00024266
2030.0 0.00026727
2050.0 0.0002943
2070.0 0.00032386
2090.0 0.0003555
2110.0 0.00038955
2130.0 0.00042624
2150.0 0.00046524
2170.0 0.00050623
2190.0 0.00054977
2210.0 0.00059553
2230.0 0.00064289
2250.0 0.00069196
2270.0 0.00074307
2290.0 0.00079515
2310.0 0.00084773
2330.0 0.00090135
2350.0 0.0009554
2370.0 0.0010088
2390.0 0.0010617
2410.0 0.0011142
2430.0 0.0011643
2450.0 0.0012115
2470.0 0.0012557
2490.0 0.001296
2510.0 0.0013316
2530.0 0.0013646
2550.0 0.0013982
2570.0 0.0014372
2590.0 0.0014883
2610.0 0.0015663
2630.0 0.001682
2650.0 0.0018393
2670.0 0.0020508
2690.0 0.0023267
2710.0 0.0026475
2730.0 0.0030002
2750.0 0.0033965
2770.0 0.0038014
2790.0 0.0041837
2810.0 0.004546
2830.0 0.0048871
2850.0 0.0051662
2870.0 0.0054046
2890.0 0.0056191
2910.0 0.0058089
2930.0 0.0059758
2950.0 0.0061411
2970.0 0.0063067
2990.0 0.0064657
3010.0 0.0066241
3030.0 0.0067901
3050.0 0.0069567
3070.0 0.0071124
3090.0 0.0072681
3110.0 0.0074153
3130.0 0.0075411
3150.0 0.0076441
3170.0 0.0077247
3190.0 0.0077795
3210.0 0.0078213
3230.0 0.0078679
3250.0 0.0079415
3270.0 0.0080584
3290.0 0.0082316
3310.0 0.0084753
3330.0 0.0087783
3350.0 0.0091219
3370.0 0.0095101
3390.0 0.0099202
3410.0 0.010307
3430.0 0.010665
3450.0 0.010964
3470.0 0.011764
3490.0 0.011893
3510.0 0.010472
3530.0 0.010367
3550.0 0.012945
3570.0 0.015103
3590.0 0.015691
3610.0 0.016953
3630.0 0.017507
3650.0 0.015812
3670.0 0.01465
3690.0 0.015429
3710.0 0.017065
3730.0 0.018773
3750.0 0.017726
3770.0 0.017645
3790.0 0.018432
3810.0 0.017565
3830.0 0.01536
3850.0 0.013729
3870.0 0.013705
3890.0 0.015445
3910.0 0.016716
3930.0 0.017199
3950.0 0.017573
3970.0 0.017998
3990.0 0.018626
4010.0 0.01855
4030.0 0.017215
4050.0 0.015773
4070.0 0.015789
4090.0 0.016825
4110.0 0.017724
4130.0 0.017343
4150.0 0.016913
4170.0 0.016796
4190.0 0.017358
4210.0 0.017053
4230.0 0.015663
4250.0 0.013981
4270.0 0.012691
4290.0 0.011648
4310.0 0.01078
4330.0 0.010948
4350.0 0.011829
4370.0 0.012158
4390.0 0.0126
4410.0 0.012864
4430.0 0.012879
4450.0 0.012722
4470.0 0.012497
4490.0 0.013182
4510.0 0.013541
4530.0 0.013808
4550.0 0.01405
4570.0 0.014332
4590.0 0.014644
4610.0 0.014829
4630.0 0.015188
4650.0 0.015729
4670.0 0.01511
4690.0 0.01407
4710.0 0.012907
4730.0 0.012466
4750.0 0.01221
4770.0 0.011855
4790.0 0.011418
4810.0 0.010955
4830.0 0.011428
4850.0 0.012297
4870.0 0.010092
4890.0 0.0099365
4910.0 0.010029
4930.0 0.010333
4950.0 0.0094647
4970.0 0.0086687
4990.0 0.0084502
5010.0 0.0078616
5030.0 0.0073495
5050.0 0.0074944
5070.0 0.0080619
5090.0 0.0083532
5110.0 0.009219
5130.0 0.0094876
5150.0 0.0098257
5170.0 0.01013
5190.0 0.0098419
5210.0 0.010095
5230.0 0.010294
5250.0 0.010363
5270.0 0.010568
5290.0 0.010376
5310.0 0.010122
5330.0 0.0095899
5350.0 0.0090656
5370.0 0.0085491
5390.0 0.0087542
5410.0 0.0088044
5430.0 0.008884
5450.0 0.0089108
5470.0 0.0087856
5490.0 0.0086712
5510.0 0.0084837
5530.0 0.0082661
5550.0 0.0082055
5570.0 0.0083081
5590.0 0.0084285
5610.0 0.0084672
5630.0 0.0082932
5650.0 0.0082013
5670.0 0.0079383
5690.0 0.0077367
5710.0 0.0074625
5730.0 0.0074057
5750.0 0.0073246
5770.0 0.0071035
5790.0 0.0071692
5810.0 0.0071169
5830.0 0.0072892
5850.0 0.0073864
5870.0 0.0074516
5890.0 0.0073447
5910.0 0.0073394
5930.0 0.0072301
5950.0 0.007288
5970.0 0.0071395
5990.0 0.0069972
6010.0 0.0070618
6030.0 0.007188
6050.0 0.0070721
6070.0 0.0069578
6090.0 0.0068847
6110.0 0.0069709
6130.0 0.0069571
6150.0 0.0067684
6170.0 0.0063325
6190.0 0.0058626
6210.0 0.0055774
6230.0 0.005511
6250.0 0.0055548
6270.0 0.0057111
6290.0 0.0059189
6310.0 0.0062433
6330.0 0.0064223
6350.0 0.0064634
6370.0 0.0065016
6390.0 0.0064133
6410.0 0.0062627
6430.0 0.0060608
6450.0 0.0059408
6470.0 0.0059012
6490.0 0.0058835
6510.0 0.0058424
6530.0 0.0058369
6550.0 0.0057509
6570.0 0.0055662
6590.0 0.0055348
6610.0 0.0054631
6630.0 0.0053173
6650.0 0.0051736
6670.0 0.0050219
6690.0 0.0049407
6710.0 0.0047911
6730.0 0.0047272
6750.0 0.0046472
6770.0 0.0045559
6790.0 0.0045867
6810.0 0.0045282
6830.0 0.0044257
6850.0 0.0043733
6870.0 0.0043033
6890.0 0.0042428
6910.0 0.0042075
6930.0 0.0041519
6950.0 0.0041093
6970.0 0.0040317
6990.0 0.0040326
7010.0 0.0039913
7030.0 0.0040019
7050.0 0.0039251
7070.0 0.0038684
7090.0 0.0038346
7110.0 0.0037005
7130.0 0.0036842
7150.0 0.0037307
7170.0 0.0037841
7190.0 0.0037705
7210.0 0.0038072
7230.0 0.0038873
7250.0 0.0038481
7270.0 0.003854
7290.0 0.0038088
7310.0 0.0037082
7330.0 0.0035248
7350.0 0.0035158
7370.0 0.0035094
7390.0 0.0034402
7410.0 0.0033938
7430.0 0.0033611
7450.0 0.0033199
7470.0 0.0033131
7490.0 0.0033117
7510.0 0.0031896
7530.0 0.0031615
7550.0 0.0031995
7570.0 0.0030048
7590.0 0.0028599
7610.0 0.0028554
7630.0 0.002882
7650.0 0.00284
7670.0 0.0028972
7690.0 0.0028376
7710.0 0.002934
7730.0 0.0029793
7750.0 0.0031833
7770.0 0.0032944
7790.0 0.0034171
7810.0 0.0035549
7830.0 0.003656
7850.0 0.003737
7870.0 0.0037253
7890.0 0.0036917
7910.0 0.0036048
7930.0 0.0035
7950.0 0.003418
7970.0 0.0033961
7990.0 0.0033769
8010.0 0.0030672
8030.0 0.0030488
8050.0 0.0029887
8070.0 0.00296
8090.0 0.0028807
8110.0 0.0029029
8130.0 0.0029359
8150.0 0.0029843
8170.0 0.0029533
8190.0 0.0029951
8210.0 0.0029539
8230.0 0.0028009
8250.0 0.0027487
8270.0 0.0027009
8290.0 0.0026565
8310.0 0.0025634
8330.0 0.0025961
8350.0 0.002582
8370.0 0.0025833
8390.0 0.0026302
8410.0 0.0026192
8430.0 0.002659
8450.0 0.0026947
8470.0 0.0027126
8490.0 0.0027449
8510.0 0.0026985
8530.0 0.0026059
8550.0 0.0026277
8570.0 0.0026314
8590.0 0.0025529
8610.0 0.0026081
8630.0 0.0025735
8650.0 0.0025217
8670.0 0.0025053
8690.0 0.0025019
8710.0 0.002403
8730.0 0.0024377
8750.0 0.0023556
8770.0 0.0023429
8790.0 0.0022782
8810.0 0.0022514
8830.0 0.0022472
8850.0 0.0021419
8870.0 0.0020324
8890.0 0.0020057
8910.0 0.001889
8930.0 0.0017437
8950.0 0.0017431
8970.0 0.0016854
8990.0 0.0016738
9010.0 0.00166
9030.0 0.0016487
9050.0 0.001637
9070.0 0.0016251
9090.0 0.0016132
9110.0 0.0016012
9130.0 0.0015891
9150.0 0.0015772
9170.0 0.0015652
9190.0 0.0015531
9210.0 0.0015411
9230.0 0.001529
9250.0 0.0015169
9270.0 0.0015048
9290.0 0.0014927
9310.0 0.0014806
9330.0 0.0014685
9350.0 0.0014564
9370.0 0.0014444
9390.0 0.0014324
9410.0 0.0014204
9430.0 0.0014085
9450.0 0.0013966
9470.0 0.0013856
9490.0 0.0013742
9510.0 0.001362
9530.0 0.0013499
9550.0 0.0013381
9570.0 0.0013264
9590.0 0.0013149
9610.0 0.0013034
9630.0 0.001292
9650.0 0.0012808
9670.0 0.0012695
9690.0 0.0012584
9710.0 0.0012474
9730.0 0.0012364
9750.0 0.0012255
9770.0 0.0012148
9790.0 0.0012041
9810.0 0.0011935
9830.0 0.0011829
9850.0 0.0011707
9870.0 0.0011602
9890.0 0.0011509
9910.0 0.0011415
9930.0 0.00113
9950.0 0.0011202
9970.0 0.0011112
9990.0 0.001102
10010.0 0.0010928
10030.0 0.0010835
10050.0 0.0010742
10070.0 0.0010652
10090.0 0.0010562
10110.0 0.0010471
10130.0 0.0010381
10150.0 0.0010295
10170.0 0.0010208
10190.0 0.0010121
10210.0 0.0010037
10230.0 0.00099549
10250.0 0.00098719
10270.0 0.00097904
10290.0 0.00097114
10310.0 0.0009632
10330.0 0.00095525
10350.0 0.0009476
10370.0 0.00094007
10390.0 0.00093249
10410.0 0.00092499
10430.0 0.00091775
10450.0 0.00091064
10470.0 0.00090351
10490.0 0.00089662
10510.0 0.00088984
10530.0 0.00088291
10550.0 0.0008762
10570.0 0.00086973
10590.0 0.00086323
10610.0 0.00085676
10630.0 0.00085055
10650.0 0.00084442
10670.0 0.00083819
10690.0 0.00083215
10710.0 0.0008263
10730.0 0.00082042
10750.0 0.0008145
10770.0 0.00080893
10790.0 0.0008034
10810.0 0.00079781
10830.0 0.00079239
10850.0 0.00078719
10870.0 0.00078184
10890.0 0.0007766
10910.0 0.00077165
10930.0 0.00076679
10950.0 0.00076198
10970.0 0.00075746
10990.0 0.00075327
11010.0 0.00078974
11030.0 0.00078665
11050.0 0.00078366
11070.0 0.00078057
11090.0 0.00077715
11110.0 0.00077366
11130.0 0.00076997
11150.0 0.00076591
11170.0 0.00076159
11190.0 0.00075729
11210.0 0.00075275
11230.0 0.00074799
11250.0 0.00074336
11270.0 0.00073885
11290.0 0.00073422
11310.0 0.00072974
11330.0 0.00072571
11350.0 0.00072177
11370.0 0.00071796
11390.0 0.00071452
11410.0 0.00071134
11430.0 0.00070812
11450.0 0.00070513
11470.0 0.00070234
11490.0 0.00069952
11510.0 0.00069657
11530.0 0.00069374
11550.0 0.00069086
11570.0 0.00068771
11590.0 0.00068448
11610.0 0.00068127
11630.0 0.00067779
11650.0 0.00067409
11670.0 0.00067056
11690.0 0.000667
11710.0 0.00066327
11730.0 0.00065962
11750.0 0.00065623
11770.0 0.00065272
11790.0 0.00064922
11810.0 0.00064597
11830.0 0.00064281
11850.0 0.0006395
11870.0 0.00063644
11890.0 0.00063363
11910.0 0.00063082
11930.0 0.00062811
11950.0 0.00062575
11970.0 0.00062357
11990.0 0.0006215
12010.0 0.00061983
12030.0 0.00061855
12050.0 0.00061755
12070.0 0.00061692
12090.0 0.00061682
12110.0 0.00061708
12130.0 0.00061772
12150.0 0.00061877
12170.0 0.00062018
12190.0 0.0006219
12210.0 0.00062392
12230.0 0.00062615
12250.0 0.00062856
12270.0 0.00063112
12290.0 0.00063374
12310.0 0.00063636
12330.0 0.00063899
12350.0 0.00064156
12370.0 0.00064399
12390.0 0.00064628
12410.0 0.00064838
12430.0 0.0006502
12450.0 0.00065174
12470.0 0.00065292
12490.0 0.00065369
12510.0 0.00065409
12530.0 0.00065399
12550.0 0.00065333
12570.0 0.00065223
12590.0 0.00065066
12610.0 0.00064842
12630.0 0.00064565
12650.0 0.00064266
12670.0 0.00063912
12690.0 0.00063507
12710.0 0.00063086
12730.0 0.00062645
12750.0 0.00062147
12770.0 0.00061646
12790.0 0.00061155
12810.0 0.00060645
12830.0 0.00060118
12850.0 0.00059629
12870.0 0.00059154
12890.0 0.00058673
12910.0 0.00058219
12930.0 0.00057805
12950.0 0.00057392
12970.0 0.00056995
12990.0 0.00056645
13010.0 0.00056315
13030.0 0.00055991
13050.0 0.00055692
13070.0 0.00055423
13090.0 0.00055152
13110.0 0.00054889
13130.0 0.00054647
13150.0 0.00054412
13170.0 0.00054169
13190.0 0.00053943
13210.0 0.0005373
13230.0 0.00053513
13250.0 0.00053297
13270.0 0.00053093
13290.0 0.00052886
13310.0 0.00052666
13330.0 0.0005245
13350.0 0.00052233
13370.0 0.00051998
13390.0 0.00051747
13410.0 0.00051501
13430.0 0.00051238
13450.0 0.00050952
13470.0 0.00050659
13490.0 0.00050363
13510.0 0.00050032
13530.0 0.00049693
13550.0 0.00049356
13570.0 0.00049004
13590.0 0.00048631
13610.0 0.00048262
13630.0 0.00047895
13650.0 0.00047504
13670.0 0.00047109
13690.0 0.00046722
13710.0 0.00046325
13730.0 0.00045903
13750.0 0.000455
13770.0 0.00045098
13790.0 0.00044681
13810.0 0.00044264
13830.0 0.00043863
13850.0 0.0004345
13870.0 0.0004303
13890.0 0.00042624
13910.0 0.00042225
13930.0 0.00041813
13950.0 0.00041407
13970.0 0.00041024
13990.0 0.00040635
14010.0 0.00040243
14030.0 0.00039868
14050.0 0.000395
14070.0 0.00039117
14090.0 0.00038748
14110.0 0.00038391
14130.0 0.0003803
14150.0 0.00037665
14170.0 0.00037318
14190.0 0.00036974
14210.0 0.00036623
14230.0 0.00036281
14250.0 0.0003595
14270.0 0.00035613
14290.0 0.00035278
14310.0 0.00034961
14330.0 0.00034649
14350.0 0.00034337
14370.0 0.00034037
14390.0 0.00033753
14410.0 0.00033468
14430.0 0.0003319
14450.0 0.00032927
14470.0 0.0003267
14490.0 0.00032411
14510.0 0.00032164
14530.0 0.00031927
14550.0 0.00031689
14570.0 0.00031453
14590.0 0.00031227
14610.0 0.00030999
14630.0 0.00030769
14650.0 0.00030544
14670.0 0.00030324
14690.0 0.00030101
14710.0 0.00029878
14730.0 0.00029665
14750.0 0.00029452
14770.0 0.00029239
14790.0 0.00029032
14810.0 0.00028831
14830.0 0.00028625
14850.0 0.00028426
14870.0 0.00028233
14890.0 0.00028041
14910.0 0.0002785
14930.0 0.00027666
14950.0 0.00027487
14970.0 0.00027308
14990.0 0.00027136
15010.0 0.00026972
15030.0 0.00026811
15050.0 0.00026652
15070.0 0.00026502
15090.0 0.00026354
15110.0 0.00026207
15130.0 0.00026061
15150.0 0.00025918
15170.0 0.00025774
15190.0 0.00025629
15210.0 0.00025487
15230.0 0.00025345
15250.0 0.00025201
15270.0 0.00025058
15290.0 0.00024918
15310.0 0.00024776
15330.0 0.00024634
15350.0 0.00024494
15370.0 0.00024355
15390.0 0.00024214
15410.0 0.00024074
15430.0 0.00023936
15450.0 0.00023798
15470.0 0.00023658
15490.0 0.00023522
15510.0 0.00023387
15530.0 0.00023249
15550.0 0.00023114
15570.0 0.0002298
15590.0 0.00022845
15610.0 0.00022709
15630.0 0.00022577
15650.0 0.00022446
15670.0 0.00022313
15690.0 0.00022181
15710.0 0.00022053
15730.0 0.00021922
15750.0 0.00021792
15770.0 0.00021665
15790.0 0.00021537
15810.0 0.00021408
15830.0 0.00021282
15850.0 0.00021158
15870.0 0.00021033
15890.0 0.00020908
15910.0 0.00020786
15930.0 0.00020664
15950.0 0.00020541
15970.0 0.0002042
15990.0 0.00020301
16010.0 0.00020181
16030.0 0.00020061
16050.0 0.00019945
16070.0 0.00019828
16090.0 0.00019711
16110.0 0.00019596
16130.0 0.00019483
16150.0 0.00019367
16170.0 0.00019254
16190.0 0.00019142
16210.0 0.00019031
16230.0 0.00018919
16250.0 0.0001881
16270.0 0.00018703
16290.0 0.00018594
16310.0 0.00018486
16330.0 0.00018381
16350.0 0.00018275
16370.0 0.00018168
16390.0 0.00018065
16410.0 0.00017963
16430.0 0.0001786
16450.0 0.00017758
16470.0 0.00017658
16490.0 0.00017558
16510.0 0.00017458
16530.0 0.0001736
16550.0 0.00017263
16570.0 0.00017165
16590.0 0.00017069
16610.0 0.00016975
16630.0 0.00016881
16650.0 0.00016786
16670.0 0.00016694
16690.0 0.00016603
16710.0 0.0001651
16730.0 0.0001642
16750.0 0.00016331
16770.0 0.00016242
16790.0 0.00016153
16810.0 0.00016066
16830.0 0.0001598
16850.0 0.00015894
16870.0 0.00015809
16890.0 0.00015725
16910.0 0.00015641
16930.0 0.00015557
16950.0 0.00015476
16970.0 0.00015395
16990.0 0.00015313
17010.0 0.00015233
17030.0 0.00015155
17050.0 0.00015076
17070.0 0.00014997
17090.0 0.00014921
17110.0 0.00014845
17130.0 0.00014767
17150.0 0.00014692
17170.0 0.00014619
17190.0 0.00014545
17210.0 0.00014471
17230.0 0.000144
17250.0 0.00014328
17270.0 0.00014256
17290.0 0.00014185
17310.0 0.00014116
17330.0 0.00014046
17350.0 0.00013977
17370.0 0.0001391
17390.0 0.00013843
17410.0 0.00013775
17430.0 0.0001371
17450.0 0.00013645
17470.0 0.00013579
17490.0 0.00013514
17510.0 0.00013451
17530.0 0.00013387
17550.0 0.00013324
17570.0 0.00013262
17590.0 0.00013202
17610.0 0.0001314
17630.0 0.00013079
17650.0 0.0001302
17670.0 0.00012961
17690.0 0.000129
17710.0 0.00012842
17730.0 0.00012785
17750.0 0.00012727
17770.0 0.0001267
17790.0 0.00012615
17810.0 0.00012559
17830.0 0.00012502
17850.0 0.00012448
17870.0 0.00012394
17890.0 0.00012339
17910.0 0.00012285
17930.0 0.00012233
17950.0 0.00012181
17970.0 0.00012128
17990.0 0.00012077
18010.0 0.00012026
18030.0 0.00011974
18050.0 0.00011923
18070.0 0.00011874
18090.0 0.00011824
18110.0 0.00011774
18130.0 0.00011726
18150.0 0.00011678
18170.0 0.00011629
18190.0 0.00011582
18210.0 0.00011536
18230.0 0.00011488
18250.0 0.0001144
18270.0 0.00011395
18290.0 0.00011349
18310.0 0.00011303
18330.0 0.00011258
18350.0 0.00011215
18370.0 0.00011169
18390.0 0.00011125
18410.0 0.00011081
18430.0 0.00011038
18450.0 0.00010993
18470.0 0.00010951
18490.0 0.00010909
18510.0 0.00010866
18530.0 0.00010824
18550.0 0.00010783
18570.0 0.00010741
18590.0 0.00010699
18610.0 0.00010658
18630.0 0.00010618
18650.0 0.00010577
18670.0 0.00010536
18690.0 0.00010497
18710.0 0.00010458
18730.0 0.00010417
18750.0 0.00010378
18770.0 0.0001034
18790.0 0.000103
18810.0 0.00010261
18830.0 0.00010223
18850.0 0.00010185
18870.0 0.00010146
18890.0 0.00010109
18910.0 0.00010072
18930.0 0.00010034
18950.0 9.996e-05
18970.0 9.9598e-05
18990.0 9.9226e-05
19010.0 9.884e-05
19030.0 9.8482e-05
19050.0 9.8123e-05
19070.0 9.7751e-05
19090.0 9.7388e-05
19110.0 9.704e-05
19130.0 9.6673e-05
19150.0 9.6305e-05
19170.0 9.5953e-05
19190.0 9.5601e-05
19210.0 9.5234e-05
19230.0 9.4877e-05
19250.0 9.4536e-05
19270.0 9.418e-05
19290.0 9.3823e-05
19310.0 9.3481e-05
19330.0 9.3136e-05
19350.0 9.2771e-05
19370.0 9.2423e-05
19390.0 9.2083e-05
19410.0 9.1732e-05
19430.0 9.1377e-05
19450.0 9.1041e-05
19470.0 9.0699e-05
19490.0 9.0346e-05
19510.0 9.0003e-05
19530.0 8.9668e-05
19550.0 8.9315e-05
19570.0 8.896e-05
19590.0 8.8627e-05
19610.0 8.8286e-05
19630.0 8.7934e-05
19650.0 8.7595e-05
19670.0 8.7263e-05
19690.0 8.6911e-05
19710.0 8.6563e-05
19730.0 8.6228e-05
19750.0 8.5886e-05
19770.0 8.5529e-05
19790.0 8.5189e-05
19810.0 8.4855e-05
19830.0 8.4506e-05
19850.0 8.4159e-05
19870.0 8.3827e-05
19890.0 8.3482e-05
19910.0 8.3127e-05
19930.0 8.279e-05
19950.0 8.2457e-05
19970.0 8.2113e-05
19990.0 8.1774e-05
20010.0 8.1456e-05
20030.0 8.1128e-05
20050.0 8.0795e-05
20070.0 8.0473e-05
20090.0 8.0153e-05
20110.0 7.9806e-05
20130.0 7.9467e-05
20150.0 7.9136e-05
20170.0 7.8792e-05
20190.0 7.8438e-05
20210.0 7.81e-05
20230.0 7.7762e-05
20250.0 7.7409e-05
20270.0 7.707e-05
20290.0 7.6746e-05
20310.0 7.642e-05
20330.0 7.6092e-05
20350.0 7.58e-05
20370.0 7.5517e-05
20390.0 7.5238e-05
20410.0 7.4981e-05
20430.0 7.475e-05
20450.0 7.4521e-05
20470.0 7.4312e-05
20490.0 7.4132e-05
20510.0 7.3969e-05
20530.0 7.3822e-05
20550.0 7.3701e-05
20570.0 7.3608e-05
20590.0 7.3533e-05
20610.0 7.3483e-05
20630.0 7.346e-05
20650.0 7.3459e-05
20670.0 7.3482e-05
20690.0 7.3528e-05
20710.0 7.3594e-05
20730.0 7.368e-05
20750.0 7.3781e-05
20770.0 7.389e-05
20790.0 7.4007e-05
20810.0 7.413e-05
20830.0 7.4246e-05
20850.0 7.4354e-05
20870.0 7.4452e-05
20890.0 7.4531e-05
20910.0 7.4584e-05
20930.0 7.4612e-05
20950.0 7.4607e-05
20970.0 7.457e-05
20990.0 7.4499e-05
21010.0 7.4386e-05
21030.0 7.4235e-05
21050.0 7.4053e-05
21070.0 7.3832e-05
21090.0 7.3568e-05
21110.0 7.3285e-05
21130.0 7.2978e-05
21150.0 7.2637e-05
21170.0 7.2278e-05
21190.0 7.1918e-05
21210.0 7.1532e-05
21230.0 7.1129e-05
21250.0 7.0738e-05
21270.0 7.0346e-05
21290.0 6.994e-05
21310.0 6.954e-05
21330.0 6.9158e-05
21350.0 6.8765e-05
21370.0 6.8368e-05
21390.0 6.7984e-05
21410.0 6.76e-05
21430.0 6.7192e-05
21450.0 6.6791e-05
21470.0 6.6397e-05
21490.0 6.5984e-05
21510.0 6.5556e-05
21530.0 6.5136e-05
21550.0 6.4704e-05
21570.0 6.4246e-05
21590.0 6.3788e-05
21610.0 6.3333e-05
21630.0 6.2858e-05
21650.0 6.2364e-05
21670.0 6.1897e-05
21690.0 6.142e-05
21710.0 6.0931e-05
21730.0 6.0452e-05
21750.0 5.999e-05
21770.0 5.9507e-05
21790.0 5.9033e-05
21810.0 5.8579e-05
21830.0 5.8128e-05
21850.0 5.767e-05
21870.0 5.7229e-05
21890.0 5.6806e-05
21910.0 5.6372e-05
21930.0 5.5943e-05
21950.0 5.5529e-05
21970.0 5.5112e-05
21990.0 5.4679e-05
22010.0 5.4261e-05
22030.0 5.3846e-05
22050.0 5.3414e-05
22070.0 5.2977e-05
22090.0 5.2551e-05
22110.0 5.2108e-05
22130.0 5.1648e-05
22150.0 5.1192e-05
22170.0 5.0734e-05
22190.0 5.0249e-05
22210.0 4.9759e-05
22230.0 4.9283e-05
22250.0 4.8792e-05
22270.0 4.8286e-05
22290.0 4.7792e-05
22310.0 4.73e-05
22330.0 4.6786e-05
22350.0 4.6279e-05
22370.0 4.5787e-05
22390.0 4.5288e-05
22410.0 4.478e-05
22430.0 4.4298e-05
22450.0 4.3825e-05
22470.0 4.3345e-05
22490.0 4.2879e-05
22510.0 4.2435e-05
22530.0 4.1986e-05
22550.0 4.1543e-05
22570.0 4.1127e-05
22590.0 4.0721e-05
22610.0 4.0318e-05
22630.0 3.993e-05
22650.0 3.9565e-05
22670.0 3.92e-05
22690.0 3.8843e-05
22710.0 3.8505e-05
22730.0 3.8176e-05
22750.0 3.7842e-05
22770.0 3.7526e-05
22790.0 3.7225e-05
22810.0 3.6925e-05
22830.0 3.6631e-05
22850.0 3.6354e-05
22870.0 3.6084e-05
22890.0 3.5817e-05
22910.0 3.5565e-05
22930.0 3.5326e-05
22950.0 3.5095e-05
22970.0 3.4874e-05
22990.0 3.4673e-05
23010.0 3.4483e-05
23030.0 3.4306e-05
23050.0 3.4146e-05
23070.0 3.4001e-05
23090.0 3.3872e-05
23110.0 3.376e-05
23130.0 3.3665e-05
