#lamb flux
1010.0 1.6538e-08
1030.0 1.8225e-08
1050.0 2.0165e-08
1070.0 2.2348e-08
1090.0 2.4829e-08
1110.0 2.7373e-08
1130.0 2.9933e-08
1150.0 3.2615e-08
1170.0 3.5382e-08
1190.0 3.8006e-08
1210.0 4.0665e-08
1230.0 4.3412e-08
1250.0 4.6104e-08
1270.0 4.8719e-08
1290.0 5.1481e-08
1310.0 5.4242e-08
1330.0 5.6889e-08
1350.0 5.9566e-08
1370.0 6.233e-08
1390.0 6.5024e-08
1410.0 6.7639e-08
1430.0 7.0372e-08
1450.0 7.3104e-08
1470.0 7.5745e-08
1490.0 7.8414e-08
1510.0 8.1233e-08
1530.0 8.3904e-08
1550.0 8.6537e-08
1570.0 8.9262e-08
1590.0 9.1988e-08
1610.0 9.4592e-08
1630.0 9.7275e-08
1650.0 1.0003e-07
1670.0 1.0269e-07
1690.0 1.0531e-07
1710.0 1.0804e-07
1730.0 1.1077e-07
1750.0 1.1334e-07
1770.0 1.1599e-07
1790.0 1.1868e-07
1810.0 1.2127e-07
1830.0 1.2382e-07
1850.0 1.2652e-07
1870.0 1.2914e-07
1890.0 1.3165e-07
1910.0 1.3421e-07
1930.0 1.3682e-07
1950.0 1.3929e-07
1970.0 1.4172e-07
1990.0 1.4422e-07
2010.0 1.4665e-07
2030.0 1.4897e-07
2050.0 1.5133e-07
2070.0 1.5374e-07
2090.0 1.5595e-07
2110.0 1.5812e-07
2130.0 1.6033e-07
2150.0 1.6244e-07
2170.0 1.644e-07
2190.0 1.6639e-07
2210.0 1.6835e-07
2230.0 1.7014e-07
2250.0 1.7186e-07
2270.0 1.7362e-07
2290.0 1.7523e-07
2310.0 1.7667e-07
2330.0 1.781e-07
2350.0 1.7949e-07
2370.0 1.8071e-07
2390.0 1.8191e-07
2410.0 1.8323e-07
2430.0 1.8455e-07
2450.0 1.8598e-07
2470.0 1.8781e-07
2490.0 1.9027e-07
2510.0 1.934e-07
2530.0 1.9812e-07
2550.0 2.0584e-07
2570.0 2.1766e-07
2590.0 2.3493e-07
2610.0 2.6165e-07
2630.0 2.9795e-07
2650.0 3.4113e-07
2670.0 3.9109e-07
2690.0 4.4525e-07
2710.0 4.9558e-07
2730.0 5.3873e-07
2750.0 5.7564e-07
2770.0 6.0286e-07
2790.0 6.2082e-07
2810.0 6.3285e-07
2830.0 6.413e-07
2850.0 6.4621e-07
2870.0 6.4978e-07
2890.0 6.5326e-07
2910.0 6.565e-07
2930.0 6.5912e-07
2950.0 6.6214e-07
2970.0 6.6539e-07
2990.0 6.6816e-07
3010.0 7.8382e-06
3030.0 7.8728e-06
3050.0 7.9049e-06
3070.0 7.9244e-06
3090.0 7.938e-06
3110.0 7.9354e-06
3130.0 7.9033e-06
3150.0 7.8369e-06
3170.0 7.7278e-06
3190.0 7.5782e-06
3210.0 7.4059e-06
3230.0 7.2295e-06
3250.0 7.089e-06
3270.0 7.0023e-06
3290.0 7.0067e-06
3310.0 7.0856e-06
3330.0 7.2651e-06
3350.0 7.5168e-06
3370.0 7.845e-06
3390.0 8.2373e-06
3410.0 8.6487e-06
3430.0 9.096e-06
3450.0 9.5909e-06
3470.0 1.0108e-05
3490.0 1.0633e-05
3510.0 1.1205e-05
3530.0 1.1799e-05
3550.0 1.238e-05
3570.0 1.2973e-05
3590.0 1.3624e-05
3610.0 1.4262e-05
3630.0 1.4919e-05
3650.0 1.557e-05
3670.0 1.6165e-05
3690.0 1.6622e-05
3710.0 1.6929e-05
3730.0 1.7092e-05
3750.0 1.7145e-05
3770.0 1.5973e-05
3790.0 1.4825e-05
3810.0 1.3024e-05
3830.0 9.7361e-06
3850.0 7.0905e-06
3870.0 6.9387e-06
3890.0 8.7132e-06
3910.0 1.3538e-05
3930.0 1.8006e-05
3950.0 2.031e-05
3970.0 2.1325e-05
3990.0 2.2769e-05
4010.0 2.5215e-05
4030.0 2.5191e-05
4050.0 2.3709e-05
4070.0 2.2002e-05
4090.0 2.106e-05
4110.0 2.2604e-05
4130.0 2.3233e-05
4150.0 2.3255e-05
4170.0 2.3901e-05
4190.0 2.3904e-05
4210.0 2.4421e-05
4230.0 2.6412e-05
4250.0 2.8877e-05
4270.0 3.0101e-05
4290.0 2.9816e-05
4310.0 3.0376e-05
4330.0 3.2464e-05
4350.0 3.7611e-05
4370.0 4.2291e-05
4390.0 3.9738e-05
4410.0 3.2717e-05
4430.0 2.7998e-05
4450.0 2.3691e-05
4470.0 2.1932e-05
4490.0 2.4771e-05
4510.0 2.9423e-05
4530.0 3.2553e-05
4550.0 3.5943e-05
4570.0 4.2021e-05
4590.0 5.15e-05
4610.0 6.7627e-05
4630.0 8.1591e-05
4650.0 8.2638e-05
4670.0 8.1955e-05
4690.0 8.6988e-05
4710.0 8.7831e-05
4730.0 7.3036e-05
4750.0 5.5096e-05
4770.0 4.4646e-05
4790.0 4.3209e-05
4810.0 4.1064e-05
4830.0 4.0947e-05
4850.0 4.8306e-05
4870.0 6.0083e-05
4890.0 6.4433e-05
4910.0 5.5843e-05
4930.0 5.2614e-05
4950.0 6.1039e-05
4970.0 8.0362e-05
4990.0 9.8388e-05
5010.0 0.00010064
5030.0 8.0708e-05
5050.0 5.5155e-05
5070.0 4.058e-05
5090.0 3.5028e-05
5110.0 3.456e-05
5130.0 3.7468e-05
5150.0 3.8803e-05
5170.0 3.8291e-05
5190.0 3.7998e-05
5210.0 3.7158e-05
5230.0 3.9085e-05
5250.0 4.275e-05
5270.0 4.8976e-05
5290.0 5.671e-05
5310.0 6.1777e-05
5330.0 6.3884e-05
5350.0 6.7826e-05
5370.0 7.4362e-05
5390.0 7.7066e-05
5410.0 7.1013e-05
5430.0 6.2796e-05
5450.0 6.1874e-05
5470.0 7.3787e-05
5490.0 9.3515e-05
5510.0 0.00011373
5530.0 0.00012306
5550.0 0.00011931
5570.0 0.00011059
5590.0 0.00010014
5610.0 9.6008e-05
5630.0 9.6432e-05
5650.0 9.696e-05
5670.0 9.514e-05
5690.0 8.9947e-05
5710.0 8.5988e-05
5730.0 7.6378e-05
5750.0 5.8753e-05
5770.0 5.1591e-05
5790.0 5.5898e-05
5810.0 6.5287e-05
5830.0 7.419e-05
5850.0 7.9474e-05
5870.0 7.9771e-05
5890.0 7.4404e-05
5910.0 7.2149e-05
5930.0 7.3022e-05
5950.0 7.6667e-05
5970.0 7.926e-05
5990.0 7.2422e-05
6010.0 5.9827e-05
6030.0 4.9525e-05
6050.0 4.5388e-05
6070.0 4.722e-05
6090.0 5.2166e-05
6110.0 5.3225e-05
6130.0 4.959e-05
6150.0 4.8285e-05
6170.0 5.2974e-05
6190.0 6.3388e-05
6210.0 7.6131e-05
6230.0 8.4851e-05
6250.0 8.4144e-05
6270.0 7.4436e-05
6290.0 6.139e-05
6310.0 4.9199e-05
6330.0 4.0696e-05
6350.0 3.854e-05
6370.0 4.2294e-05
6390.0 4.8604e-05
6410.0 5.646e-05
6430.0 6.5246e-05
6450.0 7.6666e-05
6470.0 9.4791e-05
6490.0 0.00011559
6510.0 0.00012237
6530.0 0.00011533
6550.0 0.00011003
6570.0 0.00010875
6590.0 0.00010433
6610.0 9.6147e-05
6630.0 8.9491e-05
6650.0 8.5876e-05
6670.0 8.5722e-05
6690.0 8.3276e-05
6710.0 7.492e-05
6730.0 6.4974e-05
6750.0 5.9593e-05
6770.0 6.2718e-05
6790.0 6.7385e-05
6810.0 6.9457e-05
6830.0 7.0375e-05
6850.0 6.783e-05
6870.0 6.4684e-05
6890.0 6.2654e-05
6910.0 5.9695e-05
6930.0 5.7688e-05
6950.0 5.821e-05
6970.0 6.0342e-05
6990.0 6.6309e-05
7010.0 6.9235e-05
7030.0 6.6098e-05
7050.0 6.0564e-05
7070.0 5.2748e-05
7090.0 4.483e-05
7110.0 4.2004e-05
7130.0 4.3846e-05
7150.0 4.5734e-05
7170.0 4.6951e-05
7190.0 4.6055e-05
7210.0 4.5825e-05
7230.0 5.1313e-05
7250.0 5.9631e-05
7270.0 6.6998e-05
7290.0 7.0771e-05
7310.0 6.6203e-05
7330.0 5.9163e-05
7350.0 5.3948e-05
7370.0 5.2661e-05
7390.0 5.5113e-05
7410.0 5.9241e-05
7430.0 6.5156e-05
7450.0 7.2057e-05
7470.0 7.8339e-05
7490.0 7.9755e-05
7510.0 6.9325e-05
7530.0 6.8693e-05
7550.0 6.2191e-05
7570.0 5.3075e-05
7590.0 4.2684e-05
7610.0 3.9863e-05
7630.0 4.3416e-05
7650.0 5.0559e-05
7670.0 5.7924e-05
7690.0 6.3952e-05
7710.0 7.0181e-05
7730.0 7.575e-05
7750.0 7.9729e-05
7770.0 7.8499e-05
7790.0 7.7998e-05
7810.0 7.9375e-05
7830.0 7.8582e-05
7850.0 7.5437e-05
7870.0 7.0834e-05
7890.0 6.517e-05
7910.0 5.7678e-05
7930.0 5.1158e-05
7950.0 4.7072e-05
7970.0 4.5961e-05
7990.0 4.7541e-05
8010.0 4.8566e-05
8030.0 4.9185e-05
8050.0 4.9663e-05
8070.0 4.9099e-05
8090.0 4.8919e-05
8110.0 4.714e-05
8130.0 4.4022e-05
8150.0 4.1551e-05
8170.0 4.1083e-05
8190.0 4.177e-05
8210.0 4.2145e-05
8230.0 4.1763e-05
8250.0 4.0332e-05
8270.0 3.5593e-05
8290.0 2.8129e-05
8310.0 2.0464e-05
8330.0 1.376e-05
8350.0 9.8263e-06
8370.0 9.9721e-06
8390.0 1.2087e-05
8410.0 1.5262e-05
8430.0 1.8624e-05
8450.0 2.0453e-05
8470.0 2.1463e-05
8490.0 2.2488e-05
8510.0 2.3667e-05
8530.0 2.6256e-05
8550.0 3.0561e-05
8570.0 3.5919e-05
8590.0 4.1473e-05
8610.0 4.8372e-05
8630.0 5.6168e-05
8650.0 6.0901e-05
8670.0 6.0879e-05
8690.0 5.8727e-05
8710.0 5.5731e-05
8730.0 5.339e-05
8750.0 5.1211e-05
8770.0 4.9818e-05
8790.0 4.7829e-05
8810.0 4.4389e-05
8830.0 4.0576e-05
8850.0 3.4814e-05
8870.0 3.0799e-05
8890.0 2.8566e-05
8910.0 2.9989e-05
8930.0 2.9417e-05
8950.0 3.022e-05
8970.0 3.0566e-05
8990.0 3.0986e-05
9010.0 3.1512e-05
9030.0 3.1085e-05
9050.0 3.1058e-05
9070.0 3.108e-05
9090.0 3.1104e-05
9110.0 3.1119e-05
9130.0 3.1148e-05
9150.0 3.1192e-05
9170.0 3.1219e-05
9190.0 3.1225e-05
9210.0 3.1396e-05
9230.0 3.1422e-05
9250.0 3.1469e-05
9270.0 3.1522e-05
9290.0 3.1582e-05
9310.0 3.1649e-05
9330.0 3.1721e-05
9350.0 3.1796e-05
9370.0 3.1876e-05
9390.0 3.1961e-05
9410.0 3.2049e-05
9430.0 3.2139e-05
9450.0 3.2235e-05
9470.0 3.2334e-05
9490.0 3.2436e-05
9510.0 3.2541e-05
9530.0 3.265e-05
9550.0 3.2762e-05
9570.0 3.2876e-05
9590.0 3.2994e-05
9610.0 3.3116e-05
9630.0 3.3239e-05
9650.0 3.3366e-05
9670.0 3.3496e-05
9690.0 3.3627e-05
9710.0 3.3762e-05
9730.0 3.3899e-05
9750.0 3.4039e-05
9770.0 3.4179e-05
9790.0 3.4322e-05
9810.0 3.4468e-05
9830.0 3.4615e-05
9850.0 3.4763e-05
9870.0 3.4914e-05
9890.0 3.5066e-05
9910.0 3.5219e-05
9930.0 3.5373e-05
9950.0 3.552e-05
9970.0 3.5677e-05
9990.0 3.5835e-05
10010.0 3.5953e-05
10030.0 3.6112e-05
10050.0 3.6261e-05
10070.0 3.6371e-05
10090.0 3.6546e-05
10110.0 3.6716e-05
10130.0 3.6882e-05
10150.0 3.7046e-05
10170.0 3.7204e-05
10190.0 3.7357e-05
10210.0 3.7511e-05
10230.0 3.7665e-05
10250.0 3.7813e-05
10270.0 3.796e-05
10290.0 3.8109e-05
10310.0 3.8252e-05
10330.0 3.839e-05
10350.0 3.8531e-05
10370.0 3.8669e-05
10390.0 3.88e-05
10410.0 3.893e-05
10430.0 3.9061e-05
10450.0 3.9185e-05
10470.0 3.9304e-05
10490.0 3.9423e-05
10510.0 3.9538e-05
10530.0 3.9644e-05
10550.0 3.9749e-05
10570.0 3.9853e-05
10590.0 3.995e-05
10610.0 4.0041e-05
10630.0 4.0131e-05
10650.0 4.0217e-05
10670.0 4.0293e-05
10690.0 4.0366e-05
10710.0 4.0438e-05
10730.0 4.0501e-05
10750.0 4.0555e-05
10770.0 4.0611e-05
10790.0 4.0661e-05
10810.0 4.0701e-05
10830.0 4.0736e-05
10850.0 4.0765e-05
10870.0 4.0774e-05
10890.0 4.076e-05
10910.0 4.0714e-05
10930.0 4.0612e-05
10950.0 4.0415e-05
10970.0 4.0108e-05
10990.0 3.9685e-05
11010.0 3.8363e-05
11030.0 3.7579e-05
11050.0 3.6678e-05
11070.0 3.5643e-05
11090.0 3.444e-05
11110.0 3.3235e-05
11130.0 3.2017e-05
11150.0 3.0755e-05
11170.0 2.9513e-05
11190.0 2.8373e-05
11210.0 2.7265e-05
11230.0 2.6208e-05
11250.0 2.5275e-05
11270.0 2.4449e-05
11290.0 2.3689e-05
11310.0 2.303e-05
11330.0 2.2494e-05
11350.0 2.2017e-05
11370.0 2.1594e-05
11390.0 2.1229e-05
11410.0 2.0894e-05
11430.0 2.0549e-05
11450.0 2.0203e-05
11470.0 1.9846e-05
11490.0 1.9451e-05
11510.0 1.9003e-05
11530.0 1.8534e-05
11550.0 1.8031e-05
11570.0 1.7477e-05
11590.0 1.6901e-05
11610.0 1.6329e-05
11630.0 1.5731e-05
11650.0 1.5125e-05
11670.0 1.4563e-05
11690.0 1.4027e-05
11710.0 1.3507e-05
11730.0 1.3033e-05
11750.0 1.2617e-05
11770.0 1.2227e-05
11790.0 1.1873e-05
11810.0 1.1568e-05
11830.0 1.1293e-05
11850.0 1.1032e-05
11870.0 1.0798e-05
11890.0 1.0581e-05
11910.0 1.0364e-05
11930.0 1.0145e-05
11950.0 9.9273e-06
11970.0 9.7003e-06
11990.0 9.4543e-06
12010.0 9.2035e-06
12030.0 8.9494e-06
12050.0 8.6827e-06
12070.0 8.4095e-06
12090.0 8.1559e-06
12110.0 7.9094e-06
12130.0 7.6744e-06
12150.0 7.4684e-06
12170.0 7.296e-06
12190.0 7.1515e-06
12210.0 7.0506e-06
12230.0 6.9956e-06
12250.0 6.9847e-06
12270.0 7.0224e-06
12290.0 7.1043e-06
12310.0 7.2227e-06
12330.0 7.3861e-06
12350.0 7.5832e-06
12370.0 7.7984e-06
12390.0 8.0358e-06
12410.0 8.3005e-06
12430.0 8.5527e-06
12450.0 8.7976e-06
12470.0 9.0403e-06
12490.0 9.2639e-06
12510.0 9.4529e-06
12530.0 9.6209e-06
12550.0 9.7604e-06
12570.0 9.8589e-06
12590.0 9.921e-06
12610.0 9.9499e-06
12630.0 9.9406e-06
12650.0 9.8963e-06
12670.0 9.8212e-06
12690.0 9.7157e-06
12710.0 9.5872e-06
12730.0 9.4391e-06
12750.0 9.2664e-06
12770.0 9.0816e-06
12790.0 8.8904e-06
12810.0 8.6877e-06
12830.0 8.4743e-06
12850.0 8.2647e-06
12870.0 8.0531e-06
12890.0 7.832e-06
12910.0 7.611e-06
12930.0 7.3936e-06
12950.0 7.1664e-06
12970.0 6.9323e-06
12990.0 6.7057e-06
13010.0 6.4774e-06
13030.0 6.2423e-06
13050.0 6.0122e-06
13070.0 5.7937e-06
13090.0 5.5739e-06
13110.0 5.3624e-06
13130.0 5.1698e-06
13150.0 4.9922e-06
13170.0 4.8261e-06
13190.0 4.6866e-06
13210.0 4.5729e-06
13230.0 4.48e-06
13250.0 4.4124e-06
13270.0 4.371e-06
13290.0 4.3527e-06
13310.0 4.3586e-06
13330.0 4.3856e-06
13350.0 4.43e-06
13370.0 4.4926e-06
13390.0 4.5707e-06
13410.0 4.6526e-06
13430.0 4.7426e-06
13450.0 4.8392e-06
13470.0 4.9334e-06
13490.0 5.0225e-06
13510.0 5.1138e-06
13530.0 5.1971e-06
13550.0 5.2691e-06
13570.0 5.3341e-06
13590.0 5.3922e-06
13610.0 5.4387e-06
13630.0 5.4751e-06
13650.0 5.5054e-06
13670.0 5.5269e-06
13690.0 5.5397e-06
13710.0 5.5461e-06
13730.0 5.5464e-06
13750.0 5.5394e-06
13770.0 5.5266e-06
13790.0 5.5081e-06
13810.0 5.4836e-06
13830.0 5.4541e-06
13850.0 5.4185e-06
13870.0 5.3765e-06
13890.0 5.3297e-06
13910.0 5.2781e-06
13930.0 5.2197e-06
13950.0 5.1569e-06
13970.0 5.0933e-06
13990.0 5.0256e-06
14010.0 4.9556e-06
14030.0 4.8875e-06
14050.0 4.8209e-06
14070.0 4.7538e-06
14090.0 4.6919e-06
14110.0 4.6362e-06
14130.0 4.5851e-06
14150.0 4.5398e-06
14170.0 4.5033e-06
14190.0 4.4742e-06
14210.0 4.4524e-06
14230.0 4.4393e-06
14250.0 4.4343e-06
14270.0 4.4377e-06
14290.0 4.4501e-06
14310.0 4.4693e-06
14330.0 4.4956e-06
14350.0 4.5297e-06
14370.0 4.5687e-06
14390.0 4.6105e-06
14410.0 4.6579e-06
14430.0 4.7084e-06
14450.0 4.7587e-06
14470.0 4.8104e-06
14490.0 4.8661e-06
14510.0 4.9208e-06
14530.0 4.9756e-06
14550.0 5.0354e-06
14570.0 5.1001e-06
14590.0 5.1677e-06
14610.0 5.2442e-06
14630.0 5.3339e-06
14650.0 5.4319e-06
14670.0 5.54e-06
14690.0 5.6651e-06
14710.0 5.8058e-06
14730.0 5.9501e-06
14750.0 6.1081e-06
14770.0 6.2795e-06
14790.0 6.4523e-06
14810.0 6.6235e-06
14830.0 6.8051e-06
14850.0 6.9788e-06
14870.0 7.1373e-06
14890.0 7.2865e-06
14910.0 7.4234e-06
14930.0 7.5367e-06
14950.0 7.6281e-06
14970.0 7.7021e-06
14990.0 7.7534e-06
15010.0 7.7841e-06
15030.0 7.7988e-06
15050.0 7.7998e-06
15070.0 7.7905e-06
15090.0 7.775e-06
15110.0 7.7548e-06
15130.0 7.7323e-06
15150.0 7.7097e-06
15170.0 7.6857e-06
15190.0 7.6612e-06
15210.0 7.6376e-06
15230.0 7.6142e-06
15250.0 7.5901e-06
15270.0 7.5662e-06
15290.0 7.5437e-06
15310.0 7.5206e-06
15330.0 7.4972e-06
15350.0 7.4748e-06
15370.0 7.4526e-06
15390.0 7.4292e-06
15410.0 7.4067e-06
15430.0 7.3848e-06
15450.0 7.3625e-06
15470.0 7.3398e-06
15490.0 7.3183e-06
15510.0 7.2968e-06
15530.0 7.2745e-06
15550.0 7.2528e-06
15570.0 7.2318e-06
15590.0 7.2099e-06
15610.0 7.1877e-06
15630.0 7.1668e-06
15650.0 7.1457e-06
15670.0 7.1239e-06
15690.0 7.1027e-06
15710.0 7.0823e-06
15730.0 7.0608e-06
15750.0 7.0393e-06
15770.0 7.0187e-06
15790.0 6.9979e-06
15810.0 6.9761e-06
15830.0 6.9552e-06
15850.0 6.9348e-06
15870.0 6.9137e-06
15890.0 6.8925e-06
15910.0 6.8723e-06
15930.0 6.8515e-06
15950.0 6.8299e-06
15970.0 6.8092e-06
15990.0 6.7888e-06
16010.0 6.7675e-06
16030.0 6.7461e-06
16050.0 6.7259e-06
16070.0 6.7052e-06
16090.0 6.6838e-06
16110.0 6.6631e-06
16130.0 6.6428e-06
16150.0 6.621e-06
16170.0 6.5997e-06
16190.0 6.5792e-06
16210.0 6.5582e-06
16230.0 6.5365e-06
16250.0 6.5157e-06
16270.0 6.4951e-06
16290.0 6.4735e-06
16310.0 6.452e-06
16330.0 6.4313e-06
16350.0 6.41e-06
16370.0 6.3876e-06
16390.0 6.3666e-06
16410.0 6.3455e-06
16430.0 6.3236e-06
16450.0 6.3019e-06
16470.0 6.2811e-06
16490.0 6.2592e-06
16510.0 6.2369e-06
16530.0 6.2154e-06
16550.0 6.1939e-06
16570.0 6.1713e-06
16590.0 6.149e-06
16610.0 6.1277e-06
16630.0 6.1055e-06
16650.0 6.083e-06
16670.0 6.0612e-06
16690.0 6.0393e-06
16710.0 6.0161e-06
16730.0 5.9936e-06
16750.0 5.9716e-06
16770.0 5.9489e-06
16790.0 5.9256e-06
16810.0 5.9035e-06
16830.0 5.8811e-06
16850.0 5.8578e-06
16870.0 5.8349e-06
16890.0 5.8126e-06
16910.0 5.7891e-06
16930.0 5.7653e-06
16950.0 5.7426e-06
16970.0 5.7196e-06
16990.0 5.6958e-06
17010.0 5.6725e-06
17030.0 5.6497e-06
17050.0 5.6258e-06
17070.0 5.6019e-06
17090.0 5.5787e-06
17110.0 5.5551e-06
17130.0 5.5304e-06
17150.0 5.5067e-06
17170.0 5.4834e-06
17190.0 5.4591e-06
17210.0 5.4348e-06
17230.0 5.4114e-06
17250.0 5.3872e-06
17270.0 5.3623e-06
17290.0 5.3381e-06
17310.0 5.3142e-06
17330.0 5.2894e-06
17350.0 5.2644e-06
17370.0 5.2406e-06
17390.0 5.2161e-06
17410.0 5.191e-06
17430.0 5.1665e-06
17450.0 5.1424e-06
17470.0 5.1167e-06
17490.0 5.0916e-06
17510.0 5.0672e-06
17530.0 5.0422e-06
17550.0 5.0166e-06
17570.0 4.9919e-06
17590.0 4.9673e-06
17610.0 4.9417e-06
17630.0 4.9163e-06
17650.0 4.8916e-06
17670.0 4.8663e-06
17690.0 4.8399e-06
17710.0 4.815e-06
17730.0 4.79e-06
17750.0 4.7642e-06
17770.0 4.7386e-06
17790.0 4.7139e-06
17810.0 4.688e-06
17830.0 4.6619e-06
17850.0 4.6366e-06
17870.0 4.6112e-06
17890.0 4.5849e-06
17910.0 4.5589e-06
17930.0 4.5339e-06
17950.0 4.508e-06
17970.0 4.4819e-06
17990.0 4.4566e-06
18010.0 4.4311e-06
18030.0 4.4044e-06
18050.0 4.3785e-06
18070.0 4.3531e-06
18090.0 4.327e-06
18110.0 4.3005e-06
18130.0 4.2752e-06
18150.0 4.2495e-06
18170.0 4.223e-06
18190.0 4.1972e-06
18210.0 4.1718e-06
18230.0 4.1453e-06
18250.0 4.1187e-06
18270.0 4.0932e-06
18290.0 4.0674e-06
18310.0 4.0409e-06
18330.0 4.0151e-06
18350.0 3.9897e-06
18370.0 3.9633e-06
18390.0 3.937e-06
18410.0 3.9114e-06
18430.0 3.8855e-06
18450.0 3.8587e-06
18470.0 3.8329e-06
18490.0 3.8075e-06
18510.0 3.7812e-06
18530.0 3.7551e-06
18550.0 3.7298e-06
18570.0 3.7038e-06
18590.0 3.6772e-06
18610.0 3.6515e-06
18630.0 3.626e-06
18650.0 3.5997e-06
18670.0 3.5734e-06
18690.0 3.5483e-06
18710.0 3.5226e-06
18730.0 3.4963e-06
18750.0 3.4708e-06
18770.0 3.4457e-06
18790.0 3.4191e-06
18810.0 3.3931e-06
18830.0 3.368e-06
18850.0 3.3423e-06
18870.0 3.3162e-06
18890.0 3.291e-06
18910.0 3.2659e-06
18930.0 3.2398e-06
18950.0 3.2142e-06
18970.0 3.1892e-06
18990.0 3.1637e-06
19010.0 3.1373e-06
19030.0 3.1125e-06
19050.0 3.0874e-06
19070.0 3.0617e-06
19090.0 3.0364e-06
19110.0 3.0119e-06
19130.0 2.9863e-06
19150.0 2.9607e-06
19170.0 2.9359e-06
19190.0 2.911e-06
19210.0 2.8853e-06
19230.0 2.8602e-06
19250.0 2.8359e-06
19270.0 2.8108e-06
19290.0 2.7856e-06
19310.0 2.7612e-06
19330.0 2.7366e-06
19350.0 2.711e-06
19370.0 2.6863e-06
19390.0 2.6621e-06
19410.0 2.6372e-06
19430.0 2.6121e-06
19450.0 2.5881e-06
19470.0 2.5638e-06
19490.0 2.5389e-06
19510.0 2.5145e-06
19530.0 2.4907e-06
19550.0 2.4658e-06
19570.0 2.4409e-06
19590.0 2.4172e-06
19610.0 2.3932e-06
19630.0 2.3685e-06
19650.0 2.3446e-06
19670.0 2.3212e-06
19690.0 2.2966e-06
19710.0 2.2724e-06
19730.0 2.2489e-06
19750.0 2.2251e-06
19770.0 2.2004e-06
19790.0 2.1768e-06
19810.0 2.1536e-06
19830.0 2.1295e-06
19850.0 2.1055e-06
19870.0 2.0822e-06
19890.0 2.0578e-06
19910.0 2.032e-06
19930.0 2.006e-06
19950.0 1.9784e-06
19970.0 1.9474e-06
19990.0 1.9133e-06
20010.0 1.8778e-06
20030.0 1.838e-06
20050.0 1.795e-06
20070.0 1.7516e-06
20090.0 1.708e-06
20110.0 1.6621e-06
20130.0 1.6191e-06
20150.0 1.5794e-06
20170.0 1.5412e-06
20190.0 1.5054e-06
20210.0 1.4742e-06
20230.0 1.446e-06
20250.0 1.42e-06
20270.0 1.398e-06
20290.0 1.3797e-06
20310.0 1.3642e-06
20330.0 1.3516e-06
20350.0 1.3428e-06
20370.0 1.3369e-06
20390.0 1.3338e-06
20410.0 1.3337e-06
20430.0 1.3361e-06
20450.0 1.3415e-06
20470.0 1.3495e-06
20490.0 1.3597e-06
20510.0 1.3722e-06
20530.0 1.3874e-06
20550.0 1.4043e-06
20570.0 1.4223e-06
20590.0 1.4426e-06
20610.0 1.4643e-06
20630.0 1.4861e-06
20650.0 1.5088e-06
20670.0 1.5332e-06
20690.0 1.5566e-06
20710.0 1.5794e-06
20730.0 1.6027e-06
20750.0 1.6256e-06
20770.0 1.6469e-06
20790.0 1.6682e-06
20810.0 1.6896e-06
20830.0 1.7101e-06
20850.0 1.7301e-06
20870.0 1.7511e-06
20890.0 1.7725e-06
20910.0 1.7931e-06
20930.0 1.8148e-06
20950.0 1.8377e-06
20970.0 1.8605e-06
20990.0 1.8833e-06
21010.0 1.9076e-06
21030.0 1.9315e-06
21050.0 1.9542e-06
21070.0 1.9766e-06
21090.0 1.9984e-06
21110.0 2.0175e-06
21130.0 2.0344e-06
21150.0 2.0497e-06
21170.0 2.062e-06
21190.0 2.0712e-06
21210.0 2.0778e-06
21230.0 2.0812e-06
21250.0 2.0812e-06
21270.0 2.0781e-06
21290.0 2.0718e-06
21310.0 2.0623e-06
21330.0 2.0503e-06
21350.0 2.0353e-06
21370.0 2.0173e-06
21390.0 1.9974e-06
21410.0 1.9757e-06
21430.0 1.9506e-06
21450.0 1.9248e-06
21470.0 1.8985e-06
21490.0 1.8707e-06
21510.0 1.842e-06
21530.0 1.8144e-06
21550.0 1.787e-06
21570.0 1.7593e-06
21590.0 1.7335e-06
21610.0 1.7098e-06
21630.0 1.6873e-06
21650.0 1.6668e-06
21670.0 1.6501e-06
21690.0 1.636e-06
21710.0 1.6246e-06
21730.0 1.6168e-06
21750.0 1.6124e-06
21770.0 1.6112e-06
21790.0 1.6137e-06
21810.0 1.6194e-06
21830.0 1.6284e-06
21850.0 1.6411e-06
21870.0 1.6564e-06
21890.0 1.6739e-06
21910.0 1.6948e-06
21930.0 1.7181e-06
21950.0 1.7426e-06
21970.0 1.7693e-06
21990.0 1.799e-06
22010.0 1.8286e-06
22030.0 1.8587e-06
22050.0 1.8905e-06
22070.0 1.9227e-06
22090.0 1.9534e-06
22110.0 1.9846e-06
22130.0 2.0159e-06
22150.0 2.0453e-06
22170.0 2.0729e-06
22190.0 2.1e-06
22210.0 2.1247e-06
22230.0 2.1458e-06
22250.0 2.1646e-06
22270.0 2.1807e-06
22290.0 2.1928e-06
22310.0 2.2013e-06
22330.0 2.2061e-06
22350.0 2.2067e-06
22370.0 2.203e-06
22390.0 2.195e-06
22410.0 2.1821e-06
22430.0 2.1655e-06
22450.0 2.145e-06
22470.0 2.1195e-06
22490.0 2.0903e-06
22510.0 2.0587e-06
22530.0 2.0223e-06
22550.0 1.982e-06
22570.0 1.9407e-06
22590.0 1.8972e-06
22610.0 1.8501e-06
