#lamb flux
1010.0 5.4793e-09
1030.0 6.0479e-09
1050.0 6.7018e-09
1070.0 7.4379e-09
1090.0 8.2741e-09
1110.0 9.1317e-09
1130.0 9.9948e-09
1150.0 1.0899e-08
1170.0 1.1832e-08
1190.0 1.2716e-08
1210.0 1.3612e-08
1230.0 1.4539e-08
1250.0 1.5446e-08
1270.0 1.6327e-08
1290.0 1.7259e-08
1310.0 1.8189e-08
1330.0 1.9081e-08
1350.0 1.9984e-08
1370.0 2.0916e-08
1390.0 2.1824e-08
1410.0 2.2705e-08
1430.0 2.3627e-08
1450.0 2.4548e-08
1470.0 2.5439e-08
1490.0 2.6339e-08
1510.0 2.729e-08
1530.0 2.8191e-08
1550.0 2.908e-08
1570.0 3e-08
1590.0 3.0921e-08
1610.0 3.1801e-08
1630.0 3.2709e-08
1650.0 3.3641e-08
1670.0 3.4543e-08
1690.0 3.5434e-08
1710.0 3.6359e-08
1730.0 3.7291e-08
1750.0 3.8167e-08
1770.0 3.907e-08
1790.0 3.9992e-08
1810.0 4.0886e-08
1830.0 4.1765e-08
1850.0 4.2698e-08
1870.0 4.3609e-08
1890.0 4.4491e-08
1910.0 4.5391e-08
1930.0 4.6314e-08
1950.0 4.7197e-08
1970.0 4.8071e-08
1990.0 4.8979e-08
2010.0 4.9873e-08
2030.0 5.0736e-08
2050.0 5.1627e-08
2070.0 5.2542e-08
2090.0 5.3405e-08
2110.0 5.4266e-08
2130.0 5.5154e-08
2150.0 5.6026e-08
2170.0 5.686e-08
2190.0 5.7726e-08
2210.0 5.8597e-08
2230.0 5.9433e-08
2250.0 6.0263e-08
2270.0 6.1132e-08
2290.0 6.1972e-08
2310.0 6.2777e-08
2330.0 6.3614e-08
2350.0 6.4472e-08
2370.0 6.5326e-08
2390.0 6.6252e-08
2410.0 6.7355e-08
2430.0 6.8631e-08
2450.0 7.0164e-08
2470.0 7.214e-08
2490.0 7.4642e-08
2510.0 7.7493e-08
2530.0 8.0932e-08
2550.0 8.5245e-08
2570.0 9.0614e-08
2590.0 9.7595e-08
2610.0 1.0804e-07
2630.0 1.2294e-07
2650.0 1.4238e-07
2670.0 1.6748e-07
2690.0 1.9827e-07
2710.0 2.3108e-07
2730.0 2.6342e-07
2750.0 2.9521e-07
2770.0 3.2277e-07
2790.0 3.4456e-07
2810.0 3.6175e-07
2830.0 3.7509e-07
2850.0 3.8407e-07
2870.0 3.9057e-07
2890.0 3.9563e-07
2910.0 3.996e-07
2930.0 4.0279e-07
2950.0 4.0583e-07
2970.0 4.0879e-07
2990.0 4.1155e-07
3010.0 1.1804e-05
3030.0 1.1883e-05
3050.0 1.1959e-05
3070.0 1.2023e-05
3090.0 1.2077e-05
3110.0 1.2108e-05
3130.0 1.2098e-05
3150.0 1.2037e-05
3170.0 1.1901e-05
3190.0 1.1692e-05
3210.0 1.1428e-05
3230.0 1.1128e-05
3250.0 1.0829e-05
3270.0 1.0611e-05
3290.0 1.0484e-05
3310.0 1.0497e-05
3330.0 1.0642e-05
3350.0 1.0899e-05
3370.0 1.1271e-05
3390.0 1.174e-05
3410.0 1.2252e-05
3430.0 1.2828e-05
3450.0 1.3491e-05
3470.0 1.4216e-05
3490.0 1.4985e-05
3510.0 1.5855e-05
3530.0 1.6788e-05
3550.0 1.7736e-05
3570.0 1.8731e-05
3590.0 1.9813e-05
3610.0 2.0937e-05
3630.0 2.2055e-05
3650.0 2.3217e-05
3670.0 2.4276e-05
3690.0 2.5066e-05
3710.0 2.5513e-05
3730.0 2.5504e-05
3750.0 2.5102e-05
3770.0 2.5042e-05
3790.0 2.4886e-05
3810.0 2.3862e-05
3830.0 2.453e-05
3850.0 2.809e-05
3870.0 2.9627e-05
3890.0 2.886e-05
3910.0 2.8745e-05
3930.0 2.9838e-05
3950.0 3.0732e-05
3970.0 2.8475e-05
3990.0 2.3845e-05
4010.0 6.9684e-05
4030.0 8.3601e-05
4050.0 9.5829e-05
4070.0 8.4355e-05
4090.0 7.6574e-05
4110.0 6.7213e-05
4130.0 6.3101e-05
4150.0 6.8726e-05
4170.0 6.6245e-05
4190.0 6.9597e-05
4210.0 6.9678e-05
4230.0 7.4667e-05
4250.0 8.8573e-05
4270.0 9.0266e-05
4290.0 8.2702e-05
4310.0 8.5023e-05
4330.0 8.9789e-05
4350.0 0.00010181
4370.0 0.00011666
4390.0 0.00010776
4410.0 7.7751e-05
4430.0 6.5086e-05
4450.0 5.9942e-05
4470.0 4.5213e-05
4490.0 5.025e-05
4510.0 7.8894e-05
4530.0 9.1595e-05
4550.0 9.1443e-05
4570.0 0.00010063
4590.0 0.00011392
4610.0 0.00015958
4630.0 0.00020938
4650.0 0.00022376
4670.0 0.00020604
4690.0 0.00019763
4710.0 0.00020854
4730.0 0.00019439
4750.0 0.00014368
4770.0 0.00010459
4790.0 9.9038e-05
4810.0 9.54e-05
4830.0 8.8027e-05
4850.0 9.6418e-05
4870.0 0.00012741
4890.0 0.00014993
4910.0 0.00013009
4930.0 0.00011626
4950.0 0.00012838
4970.0 0.00016515
4990.0 0.00022378
5010.0 0.0002578
5030.0 0.00022515
5050.0 0.00015104
5070.0 0.00010024
5090.0 8.0206e-05
5110.0 8.1722e-05
5130.0 9.4789e-05
5150.0 0.00010175
5170.0 9.9802e-05
5190.0 9.2812e-05
5210.0 9.765e-05
5230.0 0.00010421
5250.0 0.0001132
5270.0 0.00012028
5290.0 0.00013287
5310.0 0.00015683
5330.0 0.00017323
5350.0 0.000172
5370.0 0.00018179
5390.0 0.00021054
5410.0 0.0002071
5430.0 0.00018093
5450.0 0.00016766
5470.0 0.00017949
5490.0 0.00021965
5510.0 0.0002737
5530.0 0.00031432
5550.0 0.00030183
5570.0 0.0002741
5590.0 0.00023706
5610.0 0.00022056
5630.0 0.00021725
5650.0 0.00020594
5670.0 0.00019445
5690.0 0.00017203
5710.0 0.00016866
5730.0 0.00015618
5750.0 0.00010755
5770.0 8.3185e-05
5790.0 9.4943e-05
5810.0 0.00010646
5830.0 0.00013354
5850.0 0.0001606
5870.0 0.00017775
5890.0 0.00017969
5910.0 0.00017621
5930.0 0.0001678
5950.0 0.00017114
5970.0 0.00019689
5990.0 0.00018259
6010.0 0.00015188
6030.0 0.00012796
6050.0 0.0001117
6070.0 0.00011304
6090.0 0.00012296
6110.0 0.00013618
6130.0 0.0001371
6150.0 0.000117
6170.0 0.00010163
6190.0 0.00011494
6210.0 0.00015453
6230.0 0.0002055
6250.0 0.00022268
6270.0 0.00019199
6290.0 0.00016184
6310.0 0.00012606
6330.0 9.6113e-05
6350.0 8.6534e-05
6370.0 9.0981e-05
6390.0 0.00010547
6410.0 0.00013079
6430.0 0.00015323
6450.0 0.00017667
6470.0 0.00020034
6490.0 0.00024166
6510.0 0.00027027
6530.0 0.00026654
6550.0 0.00024149
6570.0 0.00020337
6590.0 0.00018428
6610.0 0.00015818
6630.0 0.00014561
6650.0 0.00013822
6670.0 0.00013242
6690.0 0.0001175
6710.0 0.00010765
6730.0 7.3919e-05
6750.0 7.5245e-05
6770.0 8.5311e-05
6790.0 9.9925e-05
6810.0 8.8416e-05
6830.0 9.0947e-05
6850.0 8.3919e-05
6870.0 7.679e-05
6890.0 7.2769e-05
6910.0 7.8704e-05
6930.0 7.3779e-05
6950.0 7.7204e-05
6970.0 8.1173e-05
6990.0 9.1906e-05
7010.0 9.2103e-05
7030.0 9.509e-05
7050.0 8.9642e-05
7070.0 8.4088e-05
7090.0 8.5027e-05
7110.0 8.7919e-05
7130.0 9.5433e-05
7150.0 0.00010215
7170.0 0.00011299
7190.0 0.0001239
7210.0 0.00012036
7230.0 0.00012353
7250.0 0.00013261
7270.0 0.0001441
7290.0 0.00017194
7310.0 0.00018625
7330.0 0.00017957
7350.0 0.00016227
7370.0 0.0001388
7390.0 0.00013539
7410.0 0.00014608
7430.0 0.00016287
7450.0 0.00017718
7470.0 0.00017379
7490.0 0.00015578
7510.0 0.00018369
7530.0 0.00018003
7550.0 0.00016303
7570.0 0.00012529
7590.0 8.2652e-05
7610.0 6.996e-05
7630.0 8.1249e-05
7650.0 9.7212e-05
7670.0 0.00012424
7690.0 0.00013684
7710.0 0.00014036
7730.0 0.00014673
7750.0 0.00016762
7770.0 0.00017055
7790.0 0.00015653
7810.0 0.00014082
7830.0 0.00014608
7850.0 0.00014406
7870.0 0.00013316
7890.0 0.00011083
7910.0 8.8228e-05
7930.0 8.5058e-05
7950.0 7.7444e-05
7970.0 7.0963e-05
7990.0 6.9911e-05
8010.0 9.6236e-06
8030.0 8.9535e-06
8050.0 9.3825e-06
8070.0 1.0428e-05
8090.0 1.2534e-05
8110.0 1.1997e-05
8130.0 7.6375e-06
8150.0 7.931e-06
8170.0 4.9931e-06
8190.0 3.568e-06
8210.0 7.6271e-06
8230.0 9.0502e-06
8250.0 4.9092e-06
8270.0 3.9954e-06
8290.0 5.9821e-06
8310.0 5.1431e-06
8330.0 3.2938e-06
8350.0 2.5006e-06
8370.0 8.0846e-07
8390.0 2.7685e-06
8410.0 3.1597e-06
8430.0 3.8944e-06
8450.0 4.4853e-06
8470.0 6.9129e-06
8490.0 6.0466e-06
8510.0 5.0907e-06
8530.0 3.6905e-06
8550.0 8.4849e-06
8570.0 1.1965e-05
8590.0 9.649e-06
8610.0 1.3675e-05
8630.0 1.5545e-05
8650.0 1.1481e-05
8670.0 1.4404e-05
8690.0 1.8621e-05
8710.0 1.6188e-05
8730.0 1.6459e-05
8750.0 1.3401e-05
8770.0 1.217e-05
8790.0 1.2876e-05
8810.0 1.3418e-05
8830.0 8.4419e-06
8850.0 4.4909e-06
8870.0 3.2398e-06
8890.0 5.531e-06
8910.0 8.0712e-06
8930.0 1.041e-05
8950.0 1.1183e-05
8970.0 1.0823e-05
8990.0 8.236e-06
9010.0 3.5094e-05
9030.0 3.0497e-05
9050.0 3.0817e-05
9070.0 3.1239e-05
9090.0 3.1598e-05
9110.0 3.2042e-05
9130.0 3.2372e-05
9150.0 3.2618e-05
9170.0 3.2879e-05
9190.0 3.3158e-05
9210.0 3.3452e-05
9230.0 3.3762e-05
9250.0 3.4076e-05
9270.0 3.44e-05
9290.0 3.4734e-05
9310.0 3.5067e-05
9330.0 3.5406e-05
9350.0 3.5757e-05
9370.0 3.6111e-05
9390.0 3.6466e-05
9410.0 3.6831e-05
9430.0 3.7207e-05
9450.0 3.7579e-05
9470.0 3.7958e-05
9490.0 3.8348e-05
9510.0 3.8741e-05
9530.0 3.9134e-05
9550.0 3.9542e-05
9570.0 3.9956e-05
9590.0 4.037e-05
9610.0 4.0791e-05
9630.0 4.1223e-05
9650.0 4.1657e-05
9670.0 4.2091e-05
9690.0 4.2538e-05
9710.0 4.2991e-05
9730.0 4.3444e-05
9750.0 4.3903e-05
9770.0 4.4377e-05
9790.0 4.4849e-05
9810.0 4.5322e-05
9830.0 4.5806e-05
9850.0 4.6297e-05
9870.0 4.6784e-05
9890.0 4.7279e-05
9910.0 4.7785e-05
9930.0 4.829e-05
9950.0 4.8796e-05
9970.0 4.9313e-05
9990.0 4.9836e-05
10010.0 4.3388e-05
10030.0 4.3839e-05
10050.0 4.43e-05
10070.0 4.4767e-05
10090.0 4.5219e-05
10110.0 4.5683e-05
10130.0 4.6148e-05
10150.0 4.661e-05
10170.0 4.7078e-05
10190.0 4.7553e-05
10210.0 4.8022e-05
10230.0 4.849e-05
10250.0 4.8966e-05
10270.0 4.9441e-05
10290.0 4.991e-05
10310.0 5.0385e-05
10330.0 5.0865e-05
10350.0 5.1337e-05
10370.0 5.1807e-05
10390.0 5.2283e-05
10410.0 5.2756e-05
10430.0 5.322e-05
10450.0 5.3689e-05
10470.0 5.4159e-05
10490.0 5.462e-05
10510.0 5.5078e-05
10530.0 5.5545e-05
10550.0 5.6004e-05
10570.0 5.6452e-05
10590.0 5.6903e-05
10610.0 5.7353e-05
10630.0 5.7792e-05
10650.0 5.8227e-05
10670.0 5.8667e-05
10690.0 5.9098e-05
10710.0 5.9518e-05
10730.0 5.9941e-05
10750.0 6.0364e-05
10770.0 6.0768e-05
10790.0 6.1169e-05
10810.0 6.1571e-05
10830.0 6.1959e-05
10850.0 6.2328e-05
10870.0 6.2688e-05
10890.0 6.3009e-05
10910.0 6.3264e-05
10930.0 6.3426e-05
10950.0 6.344e-05
10970.0 6.3259e-05
10990.0 6.2863e-05
11010.0 5.907e-05
11030.0 5.8134e-05
11050.0 5.6989e-05
11070.0 5.5617e-05
11090.0 5.3968e-05
11110.0 5.2261e-05
11130.0 5.0481e-05
11150.0 4.8565e-05
11170.0 4.6592e-05
11190.0 4.4679e-05
11210.0 4.2706e-05
11230.0 4.0683e-05
11250.0 3.8753e-05
11270.0 3.6899e-05
11290.0 3.5043e-05
11310.0 3.3286e-05
11330.0 3.1737e-05
11350.0 3.0274e-05
11370.0 2.8921e-05
11390.0 2.7749e-05
11410.0 2.6723e-05
11430.0 2.5767e-05
11450.0 2.4941e-05
11470.0 2.4225e-05
11490.0 2.3557e-05
11510.0 2.2913e-05
11530.0 2.2314e-05
11550.0 2.1719e-05
11570.0 2.1085e-05
11590.0 2.043e-05
11610.0 1.9765e-05
11630.0 1.9042e-05
11650.0 1.8269e-05
11670.0 1.7508e-05
11690.0 1.6738e-05
11710.0 1.5943e-05
11730.0 1.5174e-05
11750.0 1.4461e-05
11770.0 1.3763e-05
11790.0 1.3107e-05
11810.0 1.253e-05
11830.0 1.2012e-05
11850.0 1.1535e-05
11870.0 1.1134e-05
11890.0 1.08e-05
11910.0 1.0505e-05
11930.0 1.025e-05
11950.0 1.0037e-05
11970.0 9.8466e-06
11990.0 9.666e-06
12010.0 9.4989e-06
12030.0 9.338e-06
12050.0 9.1722e-06
12070.0 9.0003e-06
12090.0 8.8347e-06
12110.0 8.6668e-06
12130.0 8.4987e-06
12150.0 8.3433e-06
12170.0 8.2068e-06
12190.0 8.0876e-06
12210.0 8.0022e-06
12230.0 7.9573e-06
12250.0 7.956e-06
12270.0 8.0084e-06
12290.0 8.1141e-06
12310.0 8.2691e-06
12330.0 8.4886e-06
12350.0 8.7644e-06
12370.0 9.0795e-06
12390.0 9.4438e-06
12410.0 9.8716e-06
12430.0 1.0307e-05
12450.0 1.0758e-05
12470.0 1.1237e-05
12490.0 1.1719e-05
12510.0 1.2171e-05
12530.0 1.262e-05
12550.0 1.3053e-05
12570.0 1.3435e-05
12590.0 1.377e-05
12610.0 1.4068e-05
12630.0 1.4305e-05
12650.0 1.4467e-05
12670.0 1.4572e-05
12690.0 1.4612e-05
12710.0 1.4585e-05
12730.0 1.4496e-05
12750.0 1.4341e-05
12770.0 1.4131e-05
12790.0 1.3876e-05
12810.0 1.3572e-05
12830.0 1.3222e-05
12850.0 1.2856e-05
12870.0 1.2469e-05
12890.0 1.2051e-05
12910.0 1.1627e-05
12930.0 1.1209e-05
12950.0 1.0774e-05
12970.0 1.0331e-05
12990.0 9.9116e-06
13010.0 9.4982e-06
13030.0 9.0804e-06
13050.0 8.6793e-06
13070.0 8.3036e-06
13090.0 7.9266e-06
13110.0 7.562e-06
13130.0 7.2256e-06
13150.0 6.9069e-06
13170.0 6.5947e-06
13190.0 6.3166e-06
13210.0 6.0714e-06
13230.0 5.8469e-06
13250.0 5.653e-06
13270.0 5.4994e-06
13290.0 5.379e-06
13310.0 5.2949e-06
13330.0 5.2547e-06
13350.0 5.2555e-06
13370.0 5.2994e-06
13390.0 5.389e-06
13410.0 5.5118e-06
13430.0 5.6724e-06
13450.0 5.8719e-06
13470.0 6.094e-06
13490.0 6.3299e-06
13510.0 6.5966e-06
13530.0 6.8675e-06
13550.0 7.1273e-06
13570.0 7.384e-06
13590.0 7.6347e-06
13610.0 7.8581e-06
13630.0 8.0535e-06
13650.0 8.2323e-06
13670.0 8.3812e-06
13690.0 8.4967e-06
13710.0 8.5865e-06
13730.0 8.6511e-06
13750.0 8.6841e-06
13770.0 8.6926e-06
13790.0 8.678e-06
13810.0 8.6405e-06
13830.0 8.5845e-06
13850.0 8.5081e-06
13870.0 8.4116e-06
13890.0 8.3009e-06
13910.0 8.176e-06
13930.0 8.0314e-06
13950.0 7.8735e-06
13970.0 7.7119e-06
13990.0 7.536e-06
14010.0 7.349e-06
14030.0 7.1625e-06
14050.0 6.9745e-06
14070.0 6.7761e-06
14090.0 6.586e-06
14110.0 6.4074e-06
14130.0 6.2341e-06
14150.0 6.071e-06
14170.0 5.9317e-06
14190.0 5.8111e-06
14210.0 5.7087e-06
14230.0 5.6326e-06
14250.0 5.5832e-06
14270.0 5.5589e-06
14290.0 5.5631e-06
14310.0 5.5935e-06
14330.0 5.6486e-06
14350.0 5.7301e-06
14370.0 5.832e-06
14390.0 5.9479e-06
14410.0 6.0847e-06
14430.0 6.2351e-06
14450.0 6.389e-06
14470.0 6.5488e-06
14490.0 6.7191e-06
14510.0 6.8821e-06
14530.0 7.0371e-06
14550.0 7.1922e-06
14570.0 7.3413e-06
14590.0 7.4771e-06
14610.0 7.6085e-06
14630.0 7.7385e-06
14650.0 7.8596e-06
14670.0 7.9765e-06
14690.0 8.0982e-06
14710.0 8.2261e-06
14730.0 8.3538e-06
14750.0 8.4954e-06
14770.0 8.6558e-06
14790.0 8.8298e-06
14810.0 9.0184e-06
14830.0 9.2419e-06
14850.0 9.485e-06
14870.0 9.7388e-06
14890.0 1.0013e-05
14910.0 1.0304e-05
14930.0 1.0584e-05
14950.0 1.0846e-05
14970.0 1.1095e-05
14990.0 1.1303e-05
15010.0 1.1463e-05
15030.0 1.1582e-05
15050.0 1.1662e-05
15070.0 1.1701e-05
15090.0 1.1716e-05
15110.0 1.1714e-05
15130.0 1.1701e-05
15150.0 1.1682e-05
15170.0 1.166e-05
15190.0 1.1637e-05
15210.0 1.1614e-05
15230.0 1.1591e-05
15250.0 1.1567e-05
15270.0 1.1543e-05
15290.0 1.152e-05
15310.0 1.1497e-05
15330.0 1.1474e-05
15350.0 1.1452e-05
15370.0 1.143e-05
15390.0 1.1407e-05
15410.0 1.1384e-05
15430.0 1.1362e-05
15450.0 1.134e-05
15470.0 1.1318e-05
15490.0 1.1296e-05
15510.0 1.1275e-05
15530.0 1.1253e-05
15550.0 1.1231e-05
15570.0 1.121e-05
15590.0 1.1189e-05
15610.0 1.1167e-05
15630.0 1.1146e-05
15650.0 1.1125e-05
15670.0 1.1103e-05
15690.0 1.1082e-05
15710.0 1.1062e-05
15730.0 1.1041e-05
15750.0 1.102e-05
15770.0 1.1e-05
15790.0 1.0979e-05
15810.0 1.0957e-05
15830.0 1.0937e-05
15850.0 1.0917e-05
15870.0 1.0896e-05
15890.0 1.0875e-05
15910.0 1.0856e-05
15930.0 1.0835e-05
15950.0 1.0814e-05
15970.0 1.0794e-05
15990.0 1.0774e-05
16010.0 1.0753e-05
16030.0 1.0732e-05
16050.0 1.0712e-05
16070.0 1.0692e-05
16090.0 1.0671e-05
16110.0 1.0651e-05
16130.0 1.0632e-05
16150.0 1.061e-05
16170.0 1.0589e-05
16190.0 1.057e-05
16210.0 1.0549e-05
16230.0 1.0528e-05
16250.0 1.0508e-05
16270.0 1.0488e-05
16290.0 1.0467e-05
16310.0 1.0446e-05
16330.0 1.0426e-05
16350.0 1.0406e-05
16370.0 1.0384e-05
16390.0 1.0364e-05
16410.0 1.0344e-05
16430.0 1.0322e-05
16450.0 1.0301e-05
16470.0 1.0281e-05
16490.0 1.026e-05
16510.0 1.0239e-05
16530.0 1.0218e-05
16550.0 1.0197e-05
16570.0 1.0176e-05
16590.0 1.0154e-05
16610.0 1.0134e-05
16630.0 1.0112e-05
16650.0 1.009e-05
16670.0 1.0069e-05
16690.0 1.0048e-05
16710.0 1.0026e-05
16730.0 1.0004e-05
16750.0 9.9831e-06
16770.0 9.9611e-06
16790.0 9.9386e-06
16810.0 9.9173e-06
16830.0 9.8957e-06
16850.0 9.8731e-06
16870.0 9.851e-06
16890.0 9.8294e-06
16910.0 9.8066e-06
16930.0 9.7835e-06
16950.0 9.7616e-06
16970.0 9.7393e-06
16990.0 9.7161e-06
17010.0 9.6935e-06
17030.0 9.6715e-06
17050.0 9.6482e-06
17070.0 9.6249e-06
17090.0 9.6023e-06
17110.0 9.5794e-06
17130.0 9.5552e-06
17150.0 9.532e-06
17170.0 9.5093e-06
17190.0 9.4855e-06
17210.0 9.4617e-06
17230.0 9.4388e-06
17250.0 9.4151e-06
17270.0 9.3905e-06
17290.0 9.3668e-06
17310.0 9.3433e-06
17330.0 9.3188e-06
17350.0 9.294e-06
17370.0 9.2706e-06
17390.0 9.2464e-06
17410.0 9.2215e-06
17430.0 9.1973e-06
17450.0 9.1735e-06
17470.0 9.1478e-06
17490.0 9.1228e-06
17510.0 9.0986e-06
17530.0 9.0737e-06
17550.0 9.048e-06
17570.0 9.0234e-06
17590.0 8.9988e-06
17610.0 8.9731e-06
17630.0 8.9476e-06
17650.0 8.9228e-06
17670.0 8.8973e-06
17690.0 8.8706e-06
17710.0 8.8455e-06
17730.0 8.8203e-06
17750.0 8.7941e-06
17770.0 8.7681e-06
17790.0 8.7431e-06
17810.0 8.7168e-06
17830.0 8.6901e-06
17850.0 8.6644e-06
17870.0 8.6385e-06
17890.0 8.6115e-06
17910.0 8.5849e-06
17930.0 8.5594e-06
17950.0 8.5328e-06
17970.0 8.5058e-06
17990.0 8.4798e-06
18010.0 8.4536e-06
18030.0 8.4258e-06
18050.0 8.399e-06
18070.0 8.3728e-06
18090.0 8.3456e-06
18110.0 8.3181e-06
18130.0 8.2917e-06
18150.0 8.265e-06
18170.0 8.2373e-06
18190.0 8.2102e-06
18210.0 8.1837e-06
18230.0 8.1559e-06
18250.0 8.1278e-06
18270.0 8.1011e-06
18290.0 8.0739e-06
18310.0 8.0459e-06
18330.0 8.0185e-06
18350.0 7.9918e-06
18370.0 7.9637e-06
18390.0 7.9357e-06
18410.0 7.9085e-06
18430.0 7.881e-06
18450.0 7.8522e-06
18470.0 7.8247e-06
18490.0 7.7975e-06
18510.0 7.7693e-06
18530.0 7.7412e-06
18550.0 7.7141e-06
18570.0 7.6861e-06
18590.0 7.6573e-06
18610.0 7.6295e-06
18630.0 7.6019e-06
18650.0 7.5734e-06
18670.0 7.5448e-06
18690.0 7.5176e-06
18710.0 7.4895e-06
18730.0 7.4609e-06
18750.0 7.433e-06
18770.0 7.4055e-06
18790.0 7.3763e-06
18810.0 7.3478e-06
18830.0 7.3202e-06
18850.0 7.2919e-06
18870.0 7.263e-06
18890.0 7.2352e-06
18910.0 7.2075e-06
18930.0 7.1786e-06
18950.0 7.1502e-06
18970.0 7.1225e-06
18990.0 7.094e-06
19010.0 7.0645e-06
19030.0 7.0368e-06
19050.0 7.0089e-06
19070.0 6.9801e-06
19090.0 6.9517e-06
19110.0 6.9242e-06
19130.0 6.8954e-06
19150.0 6.8665e-06
19170.0 6.8385e-06
19190.0 6.8105e-06
19210.0 6.7814e-06
19230.0 6.7528e-06
19250.0 6.7253e-06
19270.0 6.6968e-06
19290.0 6.6681e-06
19310.0 6.6403e-06
19330.0 6.6123e-06
19350.0 6.5829e-06
19370.0 6.5547e-06
19390.0 6.5269e-06
19410.0 6.4983e-06
19430.0 6.4695e-06
19450.0 6.4419e-06
19470.0 6.4139e-06
19490.0 6.3851e-06
19510.0 6.357e-06
19530.0 6.3294e-06
19550.0 6.3006e-06
19570.0 6.2717e-06
19590.0 6.2442e-06
19610.0 6.2161e-06
19630.0 6.1874e-06
19650.0 6.1595e-06
19670.0 6.1322e-06
19690.0 6.1035e-06
19710.0 6.0751e-06
19730.0 6.0475e-06
19750.0 6.0195e-06
19770.0 5.9905e-06
19790.0 5.9628e-06
19810.0 5.9354e-06
19830.0 5.9069e-06
19850.0 5.8783e-06
19870.0 5.8502e-06
19890.0 5.8202e-06
19910.0 5.7873e-06
19930.0 5.7521e-06
19950.0 5.712e-06
19970.0 5.6629e-06
19990.0 5.6039e-06
20010.0 4.9963e-06
20030.0 4.9234e-06
20050.0 4.8381e-06
20070.0 4.7459e-06
20090.0 4.6468e-06
20110.0 4.5348e-06
20130.0 4.4215e-06
20150.0 4.3093e-06
20170.0 4.193e-06
20190.0 4.0751e-06
20210.0 3.9638e-06
20230.0 3.8552e-06
20250.0 3.7465e-06
20270.0 3.6456e-06
20290.0 3.5534e-06
20310.0 3.4659e-06
20330.0 3.384e-06
20350.0 3.3159e-06
20370.0 3.2555e-06
20390.0 3.2024e-06
20410.0 3.1595e-06
20430.0 3.1262e-06
20450.0 3.0998e-06
20470.0 3.0819e-06
20490.0 3.0721e-06
20510.0 3.069e-06
20530.0 3.0724e-06
20550.0 3.0815e-06
20570.0 3.0949e-06
20590.0 3.1133e-06
20610.0 3.1356e-06
20630.0 3.1604e-06
20650.0 3.1881e-06
20670.0 3.2198e-06
20690.0 3.2522e-06
20710.0 3.2857e-06
20730.0 3.3219e-06
20750.0 3.3597e-06
20770.0 3.3968e-06
20790.0 3.4358e-06
20810.0 3.477e-06
20830.0 3.518e-06
20850.0 3.5592e-06
20870.0 3.6032e-06
20890.0 3.6481e-06
20910.0 3.6913e-06
20930.0 3.7361e-06
20950.0 3.7825e-06
20970.0 3.8277e-06
20990.0 3.8723e-06
21010.0 3.9192e-06
21030.0 3.965e-06
21050.0 4.0086e-06
21070.0 4.0522e-06
21090.0 4.0959e-06
21110.0 4.1357e-06
21130.0 4.173e-06
21150.0 4.2092e-06
21170.0 4.242e-06
21190.0 4.2701e-06
21210.0 4.2954e-06
21230.0 4.3164e-06
21250.0 4.3313e-06
21270.0 4.3407e-06
21290.0 4.344e-06
21310.0 4.3403e-06
21330.0 4.3299e-06
21350.0 4.3118e-06
21370.0 4.2853e-06
21390.0 4.2517e-06
21410.0 4.2105e-06
21430.0 4.1584e-06
21450.0 4.1e-06
21470.0 4.0364e-06
21490.0 3.9645e-06
21510.0 3.8856e-06
21530.0 3.8055e-06
21550.0 3.7216e-06
21570.0 3.6321e-06
21590.0 3.5441e-06
21610.0 3.4591e-06
21630.0 3.374e-06
21650.0 3.2908e-06
21670.0 3.2187e-06
21690.0 3.1522e-06
21710.0 3.0923e-06
21730.0 3.0432e-06
21750.0 3.0053e-06
21770.0 2.9764e-06
21790.0 2.9596e-06
21810.0 2.9549e-06
21830.0 2.9612e-06
21850.0 2.9794e-06
21870.0 3.0079e-06
21890.0 3.0447e-06
21910.0 3.0921e-06
21930.0 3.1477e-06
21950.0 3.2079e-06
21970.0 3.2746e-06
21990.0 3.3495e-06
22010.0 3.4244e-06
22030.0 3.5005e-06
22050.0 3.5804e-06
22070.0 3.6608e-06
22090.0 3.7368e-06
22110.0 3.8135e-06
22130.0 3.8901e-06
22150.0 3.9617e-06
22170.0 4.0291e-06
22190.0 4.096e-06
22210.0 4.1581e-06
22230.0 4.2129e-06
22250.0 4.2644e-06
22270.0 4.3118e-06
22290.0 4.3523e-06
22310.0 4.3871e-06
22330.0 4.4176e-06
22350.0 4.4412e-06
22370.0 4.4578e-06
22390.0 4.4681e-06
22410.0 4.4713e-06
22430.0 4.4669e-06
22450.0 4.4553e-06
22470.0 4.4353e-06
22490.0 4.4072e-06
22510.0 4.3724e-06
22530.0 4.3278e-06
22550.0 4.2737e-06
22570.0 4.2136e-06
22590.0 4.1459e-06
22610.0 4.068e-06
22630.0 3.9837e-06
