#lamb flux
1010.0 2.2578e-07
1030.0 2.5175e-07
1050.0 2.8162e-07
1070.0 3.1525e-07
1090.0 3.5345e-07
1110.0 3.9262e-07
1130.0 4.3206e-07
1150.0 4.7336e-07
1170.0 5.1596e-07
1190.0 5.5636e-07
1210.0 5.9731e-07
1230.0 6.3962e-07
1250.0 6.8107e-07
1270.0 7.2133e-07
1290.0 7.6387e-07
1310.0 8.0638e-07
1330.0 8.4714e-07
1350.0 8.8836e-07
1370.0 9.3091e-07
1390.0 9.724e-07
1410.0 1.0126e-06
1430.0 1.0547e-06
1450.0 1.0968e-06
1470.0 1.1374e-06
1490.0 1.1785e-06
1510.0 1.2219e-06
1530.0 1.263e-06
1550.0 1.3035e-06
1570.0 1.3454e-06
1590.0 1.3874e-06
1610.0 1.4274e-06
1630.0 1.4687e-06
1650.0 1.511e-06
1670.0 1.5518e-06
1690.0 1.5921e-06
1710.0 1.6339e-06
1730.0 1.6759e-06
1750.0 1.7153e-06
1770.0 1.7557e-06
1790.0 1.7968e-06
1810.0 1.8365e-06
1830.0 1.8753e-06
1850.0 1.9164e-06
1870.0 1.9562e-06
1890.0 1.9944e-06
1910.0 2.0331e-06
1930.0 2.0725e-06
1950.0 2.1097e-06
1970.0 2.146e-06
1990.0 2.1833e-06
2010.0 2.2195e-06
2030.0 2.2537e-06
2050.0 2.2885e-06
2070.0 2.3237e-06
2090.0 2.3558e-06
2110.0 2.387e-06
2130.0 2.4185e-06
2150.0 2.4483e-06
2170.0 2.4754e-06
2190.0 2.5029e-06
2210.0 2.5294e-06
2230.0 2.5532e-06
2250.0 2.5755e-06
2270.0 2.5982e-06
2290.0 2.6182e-06
2310.0 2.6352e-06
2330.0 2.652e-06
2350.0 2.6677e-06
2370.0 2.6811e-06
2390.0 2.6945e-06
2410.0 2.7107e-06
2430.0 2.7284e-06
2450.0 2.7494e-06
2470.0 2.7787e-06
2490.0 2.8182e-06
2510.0 2.8639e-06
2530.0 2.9248e-06
2550.0 3.0128e-06
2570.0 3.1375e-06
2590.0 3.3172e-06
2610.0 3.6067e-06
2630.0 4.0258e-06
2650.0 4.5609e-06
2670.0 5.2286e-06
2690.0 6.0115e-06
2710.0 6.7963e-06
2730.0 7.5188e-06
2750.0 8.1804e-06
2770.0 8.6992e-06
2790.0 9.0543e-06
2810.0 9.2869e-06
2830.0 9.4236e-06
2850.0 9.4628e-06
2870.0 9.4494e-06
2890.0 9.4083e-06
2910.0 9.3471e-06
2930.0 9.2724e-06
2950.0 9.1974e-06
2970.0 9.1235e-06
2990.0 9.0482e-06
3010.0 0.00025498
3030.0 0.000253
3050.0 0.00025106
3070.0 0.00024899
3090.0 0.00024683
3110.0 0.00024432
3130.0 0.00024119
3150.0 0.00023726
3170.0 0.00023212
3190.0 0.0002259
3210.0 0.000219
3230.0 0.00021177
3250.0 0.0002048
3270.0 0.00019969
3290.0 0.0001963
3310.0 0.0001959
3330.0 0.0001979
3350.0 0.00020205
3370.0 0.00020837
3390.0 0.00021661
3410.0 0.00022574
3430.0 0.00023617
3450.0 0.0002483
3470.0 0.00026165
3490.0 0.00027594
3510.0 0.00029215
3530.0 0.00030976
3550.0 0.00032834
3570.0 0.00034863
3590.0 0.00037154
3610.0 0.00039673
3630.0 0.00042254
3650.0 0.00044994
3670.0 0.00047514
3690.0 0.00049431
3710.0 0.00050466
3730.0 0.00050125
3750.0 0.00048371
3770.0 0.00047457
3790.0 0.00044714
3810.0 0.00036328
3830.0 0.00033002
3850.0 0.00038445
3870.0 0.00031445
3890.0 0.00029832
3910.0 0.00039597
3930.0 0.00050971
3950.0 0.00055128
3970.0 0.00062728
3990.0 0.00056758
4010.0 0.00082542
4030.0 0.0007721
4050.0 0.00069795
4070.0 0.00074487
4090.0 0.00071482
4110.0 0.00076375
4130.0 0.00090174
4150.0 0.0010747
4170.0 0.00092767
4190.0 0.00085872
4210.0 0.00091764
4230.0 0.0011082
4250.0 0.0012664
4270.0 0.0013468
4290.0 0.00127
4310.0 0.0012083
4330.0 0.0012571
4350.0 0.0015608
4370.0 0.0018469
4390.0 0.0015653
4410.0 0.001045
4430.0 0.00080854
4450.0 0.00071599
4470.0 0.00060209
4490.0 0.00080491
4510.0 0.0012473
4530.0 0.0014671
4550.0 0.0015212
4570.0 0.0015382
4590.0 0.0017517
4610.0 0.0028644
4630.0 0.0038043
4650.0 0.003674
4670.0 0.0033304
4690.0 0.0035267
4710.0 0.0037409
4730.0 0.0030573
4750.0 0.0020173
4770.0 0.0015174
4790.0 0.0016049
4810.0 0.0015909
4830.0 0.0015437
4850.0 0.001717
4870.0 0.0022633
4890.0 0.0026369
4910.0 0.002094
4930.0 0.0019345
4950.0 0.0021997
4970.0 0.002972
4990.0 0.0039667
5010.0 0.0044391
5030.0 0.0035582
5050.0 0.002167
5070.0 0.0015216
5090.0 0.0012523
5110.0 0.0012345
5130.0 0.0013992
5150.0 0.0013923
5170.0 0.0013475
5190.0 0.0012614
5210.0 0.0012953
5230.0 0.0014895
5250.0 0.001682
5270.0 0.001695
5290.0 0.001899
5310.0 0.002353
5330.0 0.0024454
5350.0 0.0024199
5370.0 0.0027022
5390.0 0.0032068
5410.0 0.0028661
5430.0 0.0022654
5450.0 0.0021907
5470.0 0.0025276
5490.0 0.0032303
5510.0 0.0040555
5530.0 0.0046348
5550.0 0.0042788
5570.0 0.0038269
5590.0 0.0032392
5610.0 0.0031737
5630.0 0.00334
5650.0 0.0032306
5670.0 0.0030497
5690.0 0.0025969
5710.0 0.0025822
5730.0 0.0024643
5750.0 0.0014525
5770.0 0.0011504
5790.0 0.0013716
5810.0 0.0015729
5830.0 0.0021208
5850.0 0.0025806
5870.0 0.0027042
5890.0 0.0025728
5910.0 0.002474
5930.0 0.0024355
5950.0 0.0025361
5970.0 0.0029834
5990.0 0.0025863
6010.0 0.0020518
6030.0 0.0016785
6050.0 0.0014731
6070.0 0.0016412
6090.0 0.0018709
6110.0 0.0019703
6130.0 0.0018278
6150.0 0.001531
6170.0 0.0014341
6190.0 0.0017696
6210.0 0.0024717
6230.0 0.0032682
6250.0 0.0033902
6270.0 0.0027569
6290.0 0.0023207
6310.0 0.0018
6330.0 0.0013605
6350.0 0.0012794
6370.0 0.0013554
6390.0 0.0016337
6410.0 0.0020094
6430.0 0.0023876
6450.0 0.0028854
6470.0 0.0032348
6490.0 0.003951
6510.0 0.0044286
6530.0 0.0043048
6550.0 0.0039518
6570.0 0.0034801
6590.0 0.0033695
6610.0 0.0028675
6630.0 0.0028019
6650.0 0.0026352
6670.0 0.0025022
6690.0 0.0022001
6710.0 0.0020472
6730.0 0.0013907
6750.0 0.0014404
6770.0 0.0017547
6790.0 0.0021824
6810.0 0.0018279
6830.0 0.0018759
6850.0 0.0017053
6870.0 0.0016246
6890.0 0.0014872
6910.0 0.0015863
6930.0 0.0014817
6950.0 0.001653
6970.0 0.0016734
6990.0 0.0018627
7010.0 0.0019131
7030.0 0.0019504
7050.0 0.0017494
7070.0 0.0015921
7090.0 0.0015807
7110.0 0.0015632
7130.0 0.0017
7150.0 0.0018867
7170.0 0.002067
7190.0 0.0021305
7210.0 0.0019531
7230.0 0.0019856
7250.0 0.0022049
7270.0 0.0024912
7290.0 0.0028888
7310.0 0.0029155
7330.0 0.0026281
7350.0 0.0023421
7370.0 0.0019248
7390.0 0.0019874
7410.0 0.0023031
7430.0 0.0025702
7450.0 0.0027706
7470.0 0.002762
7490.0 0.0026924
7510.0 0.0035449
7530.0 0.0032147
7550.0 0.0028359
7570.0 0.0020315
7590.0 0.0011642
7610.0 0.00094571
7630.0 0.0011654
7650.0 0.0014383
7670.0 0.0019623
7690.0 0.002221
7710.0 0.0021624
7730.0 0.0021628
7750.0 0.0025349
7770.0 0.0025576
7790.0 0.0023985
7810.0 0.0021589
7830.0 0.0022133
7850.0 0.0022164
7870.0 0.0020991
7890.0 0.0017471
7910.0 0.0013073
7930.0 0.0012316
7950.0 0.0011078
7970.0 0.0010036
7990.0 0.00096862
8010.0 0.00096711
8030.0 0.00094294
8050.0 0.00097434
8070.0 0.00099737
8090.0 0.0010849
8110.0 0.0010177
8130.0 0.00078258
8150.0 0.00074938
8170.0 0.00060472
8190.0 0.00054476
8210.0 0.00070682
8230.0 0.0007864
8250.0 0.00059365
8270.0 0.00051834
8290.0 0.00051496
8310.0 0.00038007
8330.0 0.00024074
8350.0 0.00018333
8370.0 0.00013637
8390.0 0.00021373
8410.0 0.00026457
8430.0 0.00032725
8450.0 0.00036467
8470.0 0.00046851
8490.0 0.00042623
8510.0 0.00039189
8530.0 0.00033991
8550.0 0.00054808
8570.0 0.00074606
8590.0 0.00070734
8610.0 0.00092069
8630.0 0.0010412
8650.0 0.00089972
8670.0 0.0010068
8690.0 0.00117
8710.0 0.0010634
8730.0 0.0010674
8750.0 0.00092679
8770.0 0.00086726
8790.0 0.00089955
8810.0 0.0009008
8830.0 0.00065269
8850.0 0.00046244
8870.0 0.000372
8890.0 0.00046085
8910.0 0.00057824
8930.0 0.00067765
8950.0 0.00076983
8970.0 0.00076517
8990.0 0.00067473
9010.0 0.00055187
9030.0 0.00050825
9050.0 0.00051917
9070.0 0.00052887
9090.0 0.00053638
9110.0 0.00054456
9130.0 0.00055078
9150.0 0.00055564
9170.0 0.00056081
9190.0 0.00056634
9210.0 0.00057212
9230.0 0.00057826
9250.0 0.00058458
9270.0 0.00059113
9290.0 0.00059789
9310.0 0.00060478
9330.0 0.00061185
9350.0 0.00061913
9370.0 0.00062656
9390.0 0.00063414
9410.0 0.00064191
9430.0 0.00064988
9450.0 0.00065796
9470.0 0.00066622
9490.0 0.00067468
9510.0 0.00068328
9530.0 0.00069202
9550.0 0.00070097
9570.0 0.00071008
9590.0 0.00071932
9610.0 0.00072872
9630.0 0.0007383
9650.0 0.00074803
9670.0 0.00075786
9690.0 0.00076788
9710.0 0.00077806
9730.0 0.00078833
9750.0 0.00079875
9770.0 0.00080937
9790.0 0.00082006
9810.0 0.00083086
9830.0 0.00084182
9850.0 0.00085289
9870.0 0.00086403
9890.0 0.0008753
9910.0 0.0008867
9930.0 0.00089817
9950.0 0.00090971
9970.0 0.00092137
9990.0 0.00093312
10010.0 0.00087501
10030.0 0.00088573
10050.0 0.0008965
10070.0 0.00090722
10090.0 0.00091809
10110.0 0.00092903
10130.0 0.00093996
10150.0 0.00095089
10170.0 0.00096183
10190.0 0.00097278
10210.0 0.0009837
10230.0 0.00099459
10250.0 0.0010055
10270.0 0.0010163
10290.0 0.0010271
10310.0 0.0010379
10330.0 0.0010486
10350.0 0.0010593
10370.0 0.0010698
10390.0 0.0010803
10410.0 0.0010907
10430.0 0.001101
10450.0 0.0011112
10470.0 0.0011213
10490.0 0.0011312
10510.0 0.001141
10530.0 0.0011507
10550.0 0.0011603
10570.0 0.0011696
10590.0 0.0011789
10610.0 0.0011879
10630.0 0.0011968
10650.0 0.0012055
10670.0 0.001214
10690.0 0.0012223
10710.0 0.0012303
10730.0 0.0012382
10750.0 0.0012459
10770.0 0.0012533
10790.0 0.0012605
10810.0 0.0012675
10830.0 0.0012741
10850.0 0.0012804
10870.0 0.0012862
10890.0 0.0012912
10910.0 0.001295
10930.0 0.001297
10950.0 0.001296
10970.0 0.0012914
10990.0 0.0012828
11010.0 0.0012836
11030.0 0.0012641
11050.0 0.0012402
11070.0 0.0012115
11090.0 0.0011767
11110.0 0.0011407
11130.0 0.0011029
11150.0 0.0010622
11170.0 0.0010204
11190.0 0.00097997
11210.0 0.00093851
11230.0 0.00089638
11250.0 0.00085657
11270.0 0.00081879
11290.0 0.0007814
11310.0 0.00074642
11330.0 0.00071592
11350.0 0.00068733
11370.0 0.00066105
11390.0 0.0006383
11410.0 0.00061827
11430.0 0.0005994
11450.0 0.00058273
11470.0 0.00056782
11490.0 0.00055343
11510.0 0.000539
11530.0 0.0005251
11550.0 0.00051094
11570.0 0.00049564
11590.0 0.00047972
11610.0 0.00046354
11630.0 0.00044609
11650.0 0.00042764
11670.0 0.00040963
11690.0 0.00039159
11710.0 0.00037322
11730.0 0.00035558
11750.0 0.00033936
11770.0 0.00032357
11790.0 0.00030884
11810.0 0.00029585
11830.0 0.00028418
11850.0 0.00027337
11870.0 0.00026416
11890.0 0.00025629
11910.0 0.00024917
11930.0 0.00024277
11950.0 0.00023714
11970.0 0.00023183
11990.0 0.00022657
12010.0 0.00022146
12030.0 0.00021638
12050.0 0.00021105
12070.0 0.00020547
12090.0 0.00020002
12110.0 0.00019446
12130.0 0.0001888
12150.0 0.00018343
12170.0 0.00017849
12190.0 0.0001738
12210.0 0.00016982
12230.0 0.00016672
12250.0 0.00016448
12270.0 0.00016325
12290.0 0.00016311
12310.0 0.00016396
12330.0 0.00016597
12350.0 0.00016903
12370.0 0.00017285
12390.0 0.00017753
12410.0 0.00018326
12430.0 0.00018913
12450.0 0.00019525
12470.0 0.00020178
12490.0 0.00020828
12510.0 0.00021425
12530.0 0.0002201
12550.0 0.00022561
12570.0 0.00023026
12590.0 0.00023413
12610.0 0.00023738
12630.0 0.00023969
12650.0 0.00024091
12670.0 0.0002413
12690.0 0.00024079
12710.0 0.00023937
12730.0 0.00023716
12750.0 0.00023412
12770.0 0.00023039
12790.0 0.00022614
12810.0 0.00022132
12830.0 0.00021594
12850.0 0.00021039
12870.0 0.0002046
12890.0 0.00019843
12910.0 0.00019217
12930.0 0.00018597
12950.0 0.0001795
12970.0 0.00017288
12990.0 0.00016652
13010.0 0.00016017
13030.0 0.00015369
13050.0 0.00014736
13070.0 0.00014133
13090.0 0.00013523
13110.0 0.00012925
13130.0 0.00012365
13150.0 0.0001183
13170.0 0.00011303
13190.0 0.00010829
13210.0 0.00010407
13230.0 0.00010018
13250.0 9.6799e-05
13270.0 9.4062e-05
13290.0 9.1856e-05
13310.0 9.0214e-05
13330.0 8.9242e-05
13350.0 8.8878e-05
13370.0 8.9131e-05
13390.0 9.0018e-05
13410.0 9.1351e-05
13430.0 9.3181e-05
13450.0 9.5505e-05
13470.0 9.8104e-05
13490.0 0.00010086
13510.0 0.000104
13530.0 0.00010717
13550.0 0.00011019
13570.0 0.00011317
13590.0 0.00011608
13610.0 0.00011865
13630.0 0.00012087
13650.0 0.00012289
13670.0 0.00012453
13690.0 0.00012575
13710.0 0.00012665
13730.0 0.00012722
13750.0 0.00012738
13770.0 0.00012723
13790.0 0.00012678
13810.0 0.00012604
13830.0 0.00012507
13850.0 0.00012386
13870.0 0.00012241
13890.0 0.00012082
13910.0 0.00011907
13930.0 0.00011712
13950.0 0.00011505
13970.0 0.00011297
13990.0 0.00011077
14010.0 0.00010847
14030.0 0.00010622
14050.0 0.00010399
14070.0 0.00010168
14090.0 9.9495e-05
14110.0 9.7469e-05
14130.0 9.5533e-05
14150.0 9.3735e-05
14170.0 9.2214e-05
14190.0 9.0911e-05
14210.0 8.9822e-05
14230.0 8.9026e-05
14250.0 8.8522e-05
14270.0 8.8296e-05
14290.0 8.8382e-05
14310.0 8.8748e-05
14330.0 8.9383e-05
14350.0 9.0311e-05
14370.0 9.1463e-05
14390.0 9.2776e-05
14410.0 9.4333e-05
14430.0 9.6064e-05
14450.0 9.7859e-05
14470.0 9.9761e-05
14490.0 0.00010184
14510.0 0.0001039
14530.0 0.00010594
14550.0 0.00010808
14570.0 0.00011028
14590.0 0.00011241
14610.0 0.00011464
14630.0 0.00011702
14650.0 0.00011943
14670.0 0.0001219
14690.0 0.00012461
14710.0 0.00012755
14730.0 0.00013051
14750.0 0.00013374
14770.0 0.0001373
14790.0 0.00014099
14810.0 0.00014481
14830.0 0.00014909
14850.0 0.00015347
14870.0 0.00015782
14890.0 0.00016228
14910.0 0.00016679
14930.0 0.00017096
14950.0 0.00017474
14970.0 0.00017821
14990.0 0.00018106
15010.0 0.00018321
15030.0 0.00018479
15050.0 0.00018585
15070.0 0.00018639
15090.0 0.00018663
15110.0 0.00018665
15130.0 0.00018653
15150.0 0.00018637
15170.0 0.00018615
15190.0 0.00018592
15210.0 0.00018569
15230.0 0.00018547
15250.0 0.00018524
15270.0 0.00018501
15290.0 0.0001848
15310.0 0.00018459
15330.0 0.00018437
15350.0 0.00018417
15370.0 0.00018397
15390.0 0.00018375
15410.0 0.00018355
15430.0 0.00018336
15450.0 0.00018316
15470.0 0.00018295
15490.0 0.00018276
15510.0 0.00018258
15530.0 0.00018237
15550.0 0.00018218
15570.0 0.000182
15590.0 0.0001818
15610.0 0.0001816
15630.0 0.00018141
15650.0 0.00018123
15670.0 0.00018102
15690.0 0.00018083
15710.0 0.00018065
15730.0 0.00018045
15750.0 0.00018025
15770.0 0.00018006
15790.0 0.00017987
15810.0 0.00017965
15830.0 0.00017945
15850.0 0.00017926
15870.0 0.00017905
15890.0 0.00017884
15910.0 0.00017864
15930.0 0.00017843
15950.0 0.00017821
15970.0 0.00017799
15990.0 0.00017778
16010.0 0.00017755
16030.0 0.00017731
16050.0 0.0001771
16070.0 0.00017687
16090.0 0.00017663
16110.0 0.00017639
16130.0 0.00017617
16150.0 0.0001759
16170.0 0.00017565
16190.0 0.0001754
16210.0 0.00017515
16230.0 0.00017487
16250.0 0.00017461
16270.0 0.00017435
16290.0 0.00017407
16310.0 0.00017379
16330.0 0.00017351
16350.0 0.00017323
16370.0 0.00017291
16390.0 0.00017262
16410.0 0.00017233
16430.0 0.00017201
16450.0 0.0001717
16470.0 0.0001714
16490.0 0.00017107
16510.0 0.00017073
16530.0 0.0001704
16550.0 0.00017007
16570.0 0.00016972
16590.0 0.00016936
16610.0 0.00016902
16630.0 0.00016866
16650.0 0.00016829
16670.0 0.00016793
16690.0 0.00016756
16710.0 0.00016716
16730.0 0.00016678
16750.0 0.0001664
16770.0 0.000166
16790.0 0.00016558
16810.0 0.00016518
16830.0 0.00016478
16850.0 0.00016435
16870.0 0.00016393
16890.0 0.00016351
16910.0 0.00016307
16930.0 0.00016261
16950.0 0.00016217
16970.0 0.00016173
16990.0 0.00016126
17010.0 0.0001608
17030.0 0.00016035
17050.0 0.00015987
17070.0 0.00015938
17090.0 0.00015891
17110.0 0.00015842
17130.0 0.00015791
17150.0 0.00015741
17170.0 0.00015692
17190.0 0.00015641
17210.0 0.00015589
17230.0 0.00015538
17250.0 0.00015486
17270.0 0.00015431
17290.0 0.00015378
17310.0 0.00015325
17330.0 0.0001527
17350.0 0.00015214
17370.0 0.00015161
17390.0 0.00015105
17410.0 0.00015048
17430.0 0.00014992
17450.0 0.00014936
17470.0 0.00014877
17490.0 0.00014818
17510.0 0.00014761
17530.0 0.00014702
17550.0 0.00014642
17570.0 0.00014583
17590.0 0.00014525
17610.0 0.00014463
17630.0 0.00014402
17650.0 0.00014342
17670.0 0.00014281
17690.0 0.00014217
17710.0 0.00014156
17730.0 0.00014094
17750.0 0.00014031
17770.0 0.00013968
17790.0 0.00013906
17810.0 0.00013842
17830.0 0.00013776
17850.0 0.00013713
17870.0 0.00013649
17890.0 0.00013583
17910.0 0.00013517
17930.0 0.00013454
17950.0 0.00013388
17970.0 0.00013321
17990.0 0.00013256
18010.0 0.00013191
18030.0 0.00013122
18050.0 0.00013056
18070.0 0.0001299
18090.0 0.00012922
18110.0 0.00012854
18130.0 0.00012788
18150.0 0.00012721
18170.0 0.00012652
18190.0 0.00012585
18210.0 0.00012518
18230.0 0.00012449
18250.0 0.00012379
18270.0 0.00012312
18290.0 0.00012244
18310.0 0.00012174
18330.0 0.00012106
18350.0 0.00012039
18370.0 0.00011969
18390.0 0.00011899
18410.0 0.00011831
18430.0 0.00011763
18450.0 0.00011692
18470.0 0.00011623
18490.0 0.00011555
18510.0 0.00011485
18530.0 0.00011416
18550.0 0.00011348
18570.0 0.00011279
18590.0 0.00011208
18610.0 0.00011139
18630.0 0.00011071
18650.0 0.00011001
18670.0 0.00010931
18690.0 0.00010864
18710.0 0.00010795
18730.0 0.00010725
18750.0 0.00010656
18770.0 0.00010589
18790.0 0.00010518
18810.0 0.00010449
18830.0 0.00010382
18850.0 0.00010313
18870.0 0.00010243
18890.0 0.00010176
18910.0 0.00010109
18930.0 0.00010039
18950.0 9.9712e-05
18970.0 9.9044e-05
18990.0 9.8364e-05
19010.0 9.7666e-05
19030.0 9.7002e-05
19050.0 9.6336e-05
19070.0 9.5654e-05
19090.0 9.4982e-05
19110.0 9.4329e-05
19130.0 9.3652e-05
19150.0 9.2976e-05
19170.0 9.2318e-05
19190.0 9.1659e-05
19210.0 9.0985e-05
19230.0 9.0321e-05
19250.0 8.9678e-05
19270.0 8.9018e-05
19290.0 8.8356e-05
19310.0 8.7713e-05
19330.0 8.7069e-05
19350.0 8.6401e-05
19370.0 8.5755e-05
19390.0 8.512e-05
19410.0 8.4471e-05
19430.0 8.3821e-05
19450.0 8.3194e-05
19470.0 8.2562e-05
19490.0 8.1917e-05
19510.0 8.1286e-05
19530.0 8.0667e-05
19550.0 8.0028e-05
19570.0 7.939e-05
19590.0 7.8777e-05
19610.0 7.8158e-05
19630.0 7.7529e-05
19650.0 7.6916e-05
19670.0 7.6314e-05
19690.0 7.5691e-05
19710.0 7.5075e-05
19730.0 7.4476e-05
19750.0 7.3872e-05
19770.0 7.3252e-05
19790.0 7.2656e-05
19810.0 7.2067e-05
19830.0 7.1463e-05
19850.0 7.0861e-05
19870.0 7.0272e-05
19890.0 6.9657e-05
19910.0 6.9008e-05
19930.0 6.8341e-05
19950.0 6.762e-05
19970.0 6.6795e-05
19990.0 6.5864e-05
20010.0 6.5002e-05
20030.0 6.384e-05
20050.0 6.2537e-05
20070.0 6.1169e-05
20090.0 5.9737e-05
20110.0 5.8167e-05
20130.0 5.6609e-05
20150.0 5.5092e-05
20170.0 5.3548e-05
20190.0 5.2007e-05
20210.0 5.0565e-05
20230.0 4.9172e-05
20250.0 4.7789e-05
20270.0 4.6508e-05
20290.0 4.5338e-05
20310.0 4.4228e-05
20330.0 4.3187e-05
20350.0 4.2312e-05
20370.0 4.1527e-05
20390.0 4.0832e-05
20410.0 4.0257e-05
20430.0 3.98e-05
20450.0 3.9428e-05
20470.0 3.9163e-05
20490.0 3.9e-05
20510.0 3.8924e-05
20530.0 3.8936e-05
20550.0 3.9025e-05
20570.0 3.9174e-05
20590.0 3.9395e-05
20610.0 3.9673e-05
20630.0 3.9986e-05
20650.0 4.0342e-05
20670.0 4.0758e-05
20690.0 4.1182e-05
20710.0 4.162e-05
20730.0 4.2093e-05
20750.0 4.2584e-05
20770.0 4.3059e-05
20790.0 4.3554e-05
20810.0 4.4073e-05
20830.0 4.4579e-05
20850.0 4.5079e-05
20870.0 4.561e-05
20890.0 4.6143e-05
20910.0 4.6648e-05
20930.0 4.7169e-05
20950.0 4.7706e-05
20970.0 4.8224e-05
20990.0 4.8732e-05
21010.0 4.9269e-05
21030.0 4.9793e-05
21050.0 5.0292e-05
21070.0 5.0793e-05
21090.0 5.1301e-05
21110.0 5.1766e-05
21130.0 5.2207e-05
21150.0 5.2644e-05
21170.0 5.305e-05
21190.0 5.3409e-05
21210.0 5.375e-05
21230.0 5.4059e-05
21250.0 5.4306e-05
21270.0 5.4504e-05
21290.0 5.4655e-05
21310.0 5.4739e-05
21330.0 5.4752e-05
21350.0 5.4697e-05
21370.0 5.456e-05
21390.0 5.4342e-05
21410.0 5.4041e-05
21430.0 5.3631e-05
21450.0 5.3136e-05
21470.0 5.2565e-05
21490.0 5.1893e-05
21510.0 5.1124e-05
21530.0 5.0312e-05
21550.0 4.9431e-05
21570.0 4.8461e-05
21590.0 4.7471e-05
21610.0 4.648e-05
21630.0 4.5453e-05
21650.0 4.4407e-05
21670.0 4.3455e-05
21690.0 4.2531e-05
21710.0 4.1643e-05
21730.0 4.0851e-05
21750.0 4.0165e-05
21770.0 3.9543e-05
21790.0 3.9038e-05
21810.0 3.8663e-05
21830.0 3.8399e-05
21850.0 3.8252e-05
21870.0 3.8228e-05
21890.0 3.8312e-05
21910.0 3.851e-05
21930.0 3.8815e-05
21950.0 3.9201e-05
21970.0 3.9677e-05
21990.0 4.0264e-05
22010.0 4.0892e-05
22030.0 4.1567e-05
22050.0 4.2315e-05
22070.0 4.3106e-05
22090.0 4.3887e-05
22110.0 4.4709e-05
22130.0 4.5564e-05
22150.0 4.6392e-05
22170.0 4.7199e-05
22190.0 4.8028e-05
22210.0 4.8824e-05
22230.0 4.9543e-05
22250.0 5.0238e-05
22270.0 5.0896e-05
22290.0 5.147e-05
22310.0 5.1973e-05
22330.0 5.2429e-05
22350.0 5.2792e-05
22370.0 5.3061e-05
22390.0 5.3247e-05
22410.0 5.3341e-05
22430.0 5.333e-05
22450.0 5.3224e-05
22470.0 5.3013e-05
22490.0 5.27e-05
22510.0 5.2298e-05
22530.0 5.1779e-05
22550.0 5.1144e-05
22570.0 5.0436e-05
22590.0 4.9635e-05
22610.0 4.8713e-05
22630.0 4.7712e-05
22650.0 4.6674e-05
22670.0 4.5524e-05
22690.0 4.4292e-05
22710.0 4.3043e-05
22730.0 4.175e-05
22750.0 4.0341e-05
22770.0 3.8957e-05
22790.0 3.7597e-05
22810.0 3.6195e-05
22830.0 3.4789e-05
22850.0 3.3467e-05
22870.0 3.2167e-05
