#lamb flux
1010.0 2.5146e-06
1030.0 2.525e-06
1050.0 2.5364e-06
1070.0 2.5959e-06
1090.0 2.7594e-06
1110.0 2.8864e-06
1130.0 2.9771e-06
1150.0 3.0497e-06
1170.0 3.1027e-06
1190.0 3.1183e-06
1210.0 3.1218e-06
1230.0 3.1208e-06
1250.0 3.1075e-06
1270.0 3.0838e-06
1290.0 3.0683e-06
1310.0 3.0517e-06
1330.0 3.0301e-06
1350.0 3.0152e-06
1370.0 3.0117e-06
1390.0 3.0133e-06
1410.0 3.0227e-06
1430.0 3.0521e-06
1450.0 3.0981e-06
1470.0 3.1596e-06
1490.0 3.245e-06
1510.0 3.3631e-06
1530.0 3.5041e-06
1550.0 3.6767e-06
1570.0 3.8912e-06
1590.0 4.1483e-06
1610.0 4.4476e-06
1630.0 4.8067e-06
1650.0 5.23e-06
1670.0 5.7159e-06
1690.0 6.2744e-06
1710.0 6.9223e-06
1730.0 7.6636e-06
1750.0 8.4928e-06
1770.0 9.4354e-06
1790.0 1.05e-05
1810.0 1.168e-05
1830.0 1.2984e-05
1850.0 1.4441e-05
1870.0 1.6027e-05
1890.0 1.7739e-05
1910.0 1.9591e-05
1930.0 2.1582e-05
1950.0 2.3671e-05
1970.0 2.5857e-05
1990.0 2.8149e-05
2010.0 3.0501e-05
2030.0 3.2876e-05
2050.0 3.5286e-05
2070.0 3.7706e-05
2090.0 4.0051e-05
2110.0 4.2329e-05
2130.0 4.4538e-05
2150.0 4.6619e-05
2170.0 4.8529e-05
2190.0 5.031e-05
2210.0 5.1928e-05
2230.0 5.3332e-05
2250.0 5.4546e-05
2270.0 5.5608e-05
2290.0 5.6458e-05
2310.0 5.7094e-05
2330.0 5.7585e-05
2350.0 5.7926e-05
2370.0 5.8093e-05
2390.0 5.8147e-05
2410.0 5.8144e-05
2430.0 5.8048e-05
2450.0 5.7895e-05
2470.0 5.7763e-05
2490.0 5.7682e-05
2510.0 5.7629e-05
2530.0 5.7769e-05
2550.0 5.8308e-05
2570.0 5.9408e-05
2590.0 6.1293e-05
2610.0 6.4613e-05
2630.0 6.9476e-05
2650.0 7.5614e-05
2670.0 8.3221e-05
2690.0 9.2206e-05
2710.0 0.00010154
2730.0 0.00011084
2750.0 0.00012061
2770.0 0.00013021
2790.0 0.00013941
2810.0 0.00014883
2830.0 0.000159
2850.0 0.00016891
2870.0 0.00017911
2890.0 0.00019008
2910.0 0.00020147
2930.0 0.00021282
2950.0 0.00022502
2970.0 0.00023797
2990.0 0.00025104
3010.0 0.00026455
3030.0 0.000279
3050.0 0.00029391
3070.0 0.00030844
3090.0 0.00032326
3110.0 0.00033766
3130.0 0.00035055
3150.0 0.00036157
3170.0 0.00037036
3190.0 0.0003765
3210.0 0.0003809
3230.0 0.00038457
3250.0 0.00038888
3270.0 0.00039544
3290.0 0.00040513
3310.0 0.00041875
3330.0 0.0004359
3350.0 0.00045549
3370.0 0.00047717
3390.0 0.00049944
3410.0 0.00052211
3430.0 0.00056796
3450.0 0.00060188
3470.0 0.00063185
3490.0 0.00064151
3510.0 0.00063311
3530.0 0.00071739
3550.0 0.00085341
3570.0 0.00093826
3590.0 0.0010026
3610.0 0.0010111
3630.0 0.00095907
3650.0 0.0010308
3670.0 0.001233
3690.0 0.0013855
3710.0 0.0014466
3730.0 0.0014809
3750.0 0.0015579
3770.0 0.0015615
3790.0 0.0014966
3810.0 0.0014086
3830.0 0.0013139
3850.0 0.0013102
3870.0 0.0013902
3890.0 0.0014687
3910.0 0.0015295
3930.0 0.0015479
3950.0 0.0016518
3970.0 0.0017646
3990.0 0.0017
4010.0 0.0015185
4030.0 0.0013486
4050.0 0.0012982
4070.0 0.0013515
4090.0 0.0013625
4110.0 0.0013242
4130.0 0.0013075
4150.0 0.0013422
4170.0 0.0014816
4190.0 0.0016044
4210.0 0.0015541
4230.0 0.0014507
4250.0 0.0013949
4270.0 0.0013632
4290.0 0.0013874
4310.0 0.001429
4330.0 0.0013609
4350.0 0.0011971
4370.0 0.0010597
4390.0 0.00096544
4410.0 0.00089122
4430.0 0.00089155
4450.0 0.00096979
4470.0 0.0010486
4490.0 0.0011412
4510.0 0.001291
4530.0 0.0015794
4550.0 0.0019063
4570.0 0.0021025
4590.0 0.0022484
4610.0 0.0024176
4630.0 0.0024994
4650.0 0.0023283
4670.0 0.0019533
4690.0 0.0016603
4710.0 0.0015596
4730.0 0.0015076
4750.0 0.0013509
4770.0 0.0012258
4790.0 0.001273
4810.0 0.0013835
4830.0 0.0013775
4850.0 0.0012699
4870.0 0.0012438
4890.0 0.0012977
4910.0 0.0013576
4930.0 0.001356
4950.0 0.0013185
4970.0 0.0012559
4990.0 0.0011543
5010.0 0.0010602
5030.0 0.0010067
5050.0 0.000982
5070.0 0.00096533
5090.0 0.00094986
5110.0 0.00094847
5130.0 0.00096307
5150.0 0.0010172
5170.0 0.0011233
5190.0 0.0012521
5210.0 0.0013875
5230.0 0.0014706
5250.0 0.0015141
5270.0 0.0015924
5290.0 0.0016687
5310.0 0.0016875
5330.0 0.0016252
5350.0 0.0015526
5370.0 0.0015533
5390.0 0.0016377
5410.0 0.0017194
5430.0 0.0017481
5450.0 0.0017386
5470.0 0.0016886
5490.0 0.001627
5510.0 0.001596
5530.0 0.0016034
5550.0 0.0016279
5570.0 0.0016444
5590.0 0.0015963
5610.0 0.0015057
5630.0 0.0014168
5650.0 0.0013471
5670.0 0.0013045
5690.0 0.0012522
5710.0 0.0012122
5730.0 0.0012304
5750.0 0.0012282
5770.0 0.0012029
5790.0 0.001214
5810.0 0.0012424
5830.0 0.0012691
5850.0 0.0012789
5870.0 0.0012529
5890.0 0.0011997
5910.0 0.0011388
5930.0 0.001052
5950.0 0.00098993
5970.0 0.00098881
5990.0 0.0010203
6010.0 0.0010317
6030.0 0.00099528
6050.0 0.00098036
6070.0 0.0010182
6090.0 0.0010686
6110.0 0.0010874
6130.0 0.0010502
6150.0 0.00098902
6170.0 0.00094876
6190.0 0.00090894
6210.0 0.00086637
6230.0 0.00083399
6250.0 0.00082406
6270.0 0.00084537
6290.0 0.00088364
6310.0 0.00093283
6330.0 0.00098681
6350.0 0.0010316
6370.0 0.0010517
6390.0 0.0010538
6410.0 0.0010648
6430.0 0.0010779
6450.0 0.0010815
6470.0 0.0010954
6490.0 0.0011122
6510.0 0.0011168
6530.0 0.0011048
6550.0 0.0010736
6570.0 0.0010341
6590.0 0.001004
6610.0 0.00098168
6630.0 0.00096211
6650.0 0.00092902
6670.0 0.00088977
6690.0 0.0008604
6710.0 0.0008422
6730.0 0.00083659
6750.0 0.00082634
6770.0 0.00080976
6790.0 0.00079719
6810.0 0.00078715
6830.0 0.00078508
6850.0 0.00078568
6870.0 0.0007796
6890.0 0.00077472
6910.0 0.00075849
6930.0 0.00074078
6950.0 0.00073667
6970.0 0.00072425
6990.0 0.00070166
7010.0 0.00069092
7030.0 0.00068225
7050.0 0.0006669
7070.0 0.0006487
7090.0 0.00063576
7110.0 0.00064243
7130.0 0.00066744
7150.0 0.000696
7170.0 0.00071441
7190.0 0.00070905
7210.0 0.0006953
7230.0 0.00068628
7250.0 0.00067719
7270.0 0.00067132
7290.0 0.00066266
7310.0 0.00065841
7330.0 0.00066983
7350.0 0.00068295
7370.0 0.00068992
7390.0 0.00068316
7410.0 0.00066646
7430.0 0.00065837
7450.0 0.00065096
7470.0 0.00061928
7490.0 0.0005962
7510.0 0.00057108
7530.0 0.0005525
7550.0 0.00054992
7570.0 0.00055617
7590.0 0.00055266
7610.0 0.00054695
7630.0 0.00054439
7650.0 0.00054192
7670.0 0.00055201
7690.0 0.00057183
7710.0 0.00059533
7730.0 0.00061314
7750.0 0.00063051
7770.0 0.00063901
7790.0 0.00063712
7810.0 0.00062718
7830.0 0.00063357
7850.0 0.00063236
7870.0 0.00061158
7890.0 0.00058932
7910.0 0.00057034
7930.0 0.00055111
7950.0 0.00053761
7970.0 0.00053533
7990.0 0.00054174
8010.0 0.00053555
8030.0 0.0005291
8050.0 0.0005198
8070.0 0.00050961
8090.0 0.000499
8110.0 0.00049939
8130.0 0.000503
8150.0 0.0005019
8170.0 0.00049799
8190.0 0.00048742
8210.0 0.00046252
8230.0 0.00043107
8250.0 0.00041163
8270.0 0.00039921
8290.0 0.00039135
8310.0 0.00039228
8330.0 0.00039833
8350.0 0.00038954
8370.0 0.0003803
8390.0 0.00038699
8410.0 0.00040443
8430.0 0.00043006
8450.0 0.00045489
8470.0 0.00046481
8490.0 0.0004725
8510.0 0.00047443
8530.0 0.0004768
8550.0 0.00048214
8570.0 0.00048441
8590.0 0.00048654
8610.0 0.00049971
8630.0 0.00050487
8650.0 0.00049404
8670.0 0.00049352
8690.0 0.00049707
8710.0 0.00049603
8730.0 0.00049157
8750.0 0.00047748
8770.0 0.00047107
8790.0 0.00046733
8810.0 0.00046149
8830.0 0.00043529
8850.0 0.00040035
8870.0 0.00037477
8890.0 0.00036022
8910.0 0.00033883
8930.0 0.0003153
8950.0 0.00030328
8970.0 0.00030155
8990.0 0.000303
9010.0 0.00030144
9030.0 0.00029931
9050.0 0.00029735
9070.0 0.00029553
9090.0 0.00029374
9110.0 0.00029196
9130.0 0.00029018
9150.0 0.00028841
9170.0 0.00028665
9190.0 0.00028488
9210.0 0.00028311
9230.0 0.00028137
9250.0 0.00027964
9270.0 0.00027791
9290.0 0.00027619
9310.0 0.00027447
9330.0 0.00027276
9350.0 0.00027107
9370.0 0.00026937
9390.0 0.00026769
9410.0 0.000266
9430.0 0.00026432
9450.0 0.00026259
9470.0 0.0002609
9490.0 0.00025932
9510.0 0.00025771
9530.0 0.0002561
9550.0 0.00025449
9570.0 0.00025288
9590.0 0.00025128
9610.0 0.00024969
9630.0 0.0002481
9650.0 0.00024652
9670.0 0.00024496
9690.0 0.0002434
9710.0 0.00024184
9730.0 0.0002403
9750.0 0.00023877
9770.0 0.00023723
9790.0 0.00023571
9810.0 0.0002342
9830.0 0.00023267
9850.0 0.00023097
9870.0 0.00022953
9890.0 0.00022811
9910.0 0.00022668
9930.0 0.00022521
9950.0 0.0002238
9970.0 0.00022235
9990.0 0.00022087
10010.0 0.00021922
10030.0 0.0002177
10050.0 0.00021638
10070.0 0.00021504
10090.0 0.00021369
10110.0 0.00021224
10130.0 0.00021048
10150.0 0.00020915
10170.0 0.00020789
10190.0 0.00020653
10210.0 0.0002052
10230.0 0.00020388
10250.0 0.00020248
10270.0 0.0002011
10290.0 0.00019975
10310.0 0.00019837
10330.0 0.00019694
10350.0 0.00019558
10370.0 0.00019422
10390.0 0.00019282
10410.0 0.00019143
10430.0 0.0001901
10450.0 0.00018872
10470.0 0.00018732
10490.0 0.00018597
10510.0 0.00018462
10530.0 0.0001832
10550.0 0.00018181
10570.0 0.00018048
10590.0 0.0001791
10610.0 0.00017769
10630.0 0.00017635
10650.0 0.00017499
10670.0 0.00017357
10690.0 0.00017219
10710.0 0.00017083
10730.0 0.00016944
10750.0 0.00016799
10770.0 0.00016664
10790.0 0.00016527
10810.0 0.00016385
10830.0 0.00016245
10850.0 0.0001611
10870.0 0.00015966
10890.0 0.00015823
10910.0 0.00015687
10930.0 0.0001555
10950.0 0.0001541
10970.0 0.00015276
10990.0 0.00015149
11010.0 0.0001545
11030.0 0.00015334
11050.0 0.00015224
11070.0 0.00015113
11090.0 0.00014995
11110.0 0.00014881
11130.0 0.00014769
11150.0 0.00014652
11170.0 0.00014534
11190.0 0.00014424
11210.0 0.00014312
11230.0 0.00014201
11250.0 0.00014097
11270.0 0.00013999
11290.0 0.00013901
11310.0 0.00013808
11330.0 0.00013725
11350.0 0.00013643
11370.0 0.00013564
11390.0 0.0001349
11410.0 0.00013419
11430.0 0.00013346
11450.0 0.00013275
11470.0 0.00013205
11490.0 0.00013131
11510.0 0.00013053
11530.0 0.00012975
11550.0 0.00012893
11570.0 0.00012803
11590.0 0.00012709
11610.0 0.00012612
11630.0 0.00012507
11650.0 0.00012393
11670.0 0.00012279
11690.0 0.00012161
11710.0 0.00012035
11730.0 0.00011907
11750.0 0.00011781
11770.0 0.00011649
11790.0 0.00011515
11810.0 0.00011385
11830.0 0.00011255
11850.0 0.0001112
11870.0 0.0001099
11890.0 0.00010866
11910.0 0.00010741
11930.0 0.00010617
11950.0 0.00010501
11970.0 0.00010386
11990.0 0.00010272
12010.0 0.00010164
12030.0 0.00010062
12050.0 9.9624e-05
12070.0 9.8653e-05
12090.0 9.7781e-05
12110.0 9.6947e-05
12130.0 9.6147e-05
12150.0 9.542e-05
12170.0 9.4768e-05
12190.0 9.4151e-05
12210.0 9.361e-05
12230.0 9.3154e-05
12250.0 9.2766e-05
12270.0 9.2447e-05
12290.0 9.2207e-05
12310.0 9.2036e-05
12330.0 9.1931e-05
12350.0 9.1887e-05
12370.0 9.1889e-05
12390.0 9.1935e-05
12410.0 9.2026e-05
12430.0 9.2125e-05
12450.0 9.2229e-05
12470.0 9.2339e-05
12490.0 9.2433e-05
12510.0 9.249e-05
12530.0 9.2517e-05
12550.0 9.2498e-05
12570.0 9.2416e-05
12590.0 9.2269e-05
12610.0 9.2048e-05
12630.0 9.1743e-05
12650.0 9.1368e-05
12670.0 9.0908e-05
12690.0 9.036e-05
12710.0 8.975e-05
12730.0 8.9079e-05
12750.0 8.8315e-05
12770.0 8.7508e-05
12790.0 8.6677e-05
12810.0 8.5796e-05
12830.0 8.4869e-05
12850.0 8.3959e-05
12870.0 8.3045e-05
12890.0 8.2099e-05
12910.0 8.1165e-05
12930.0 8.0262e-05
12950.0 7.9339e-05
12970.0 7.841e-05
12990.0 7.753e-05
13010.0 7.6662e-05
13030.0 7.5782e-05
13050.0 7.493e-05
13070.0 7.4119e-05
13090.0 7.3299e-05
13110.0 7.2493e-05
13130.0 7.1732e-05
13150.0 7.0996e-05
13170.0 7.0258e-05
13190.0 6.9573e-05
13210.0 6.8937e-05
13230.0 6.8317e-05
13250.0 6.7726e-05
13270.0 6.7186e-05
13290.0 6.6669e-05
13310.0 6.6163e-05
13330.0 6.5691e-05
13350.0 6.5243e-05
13370.0 6.4797e-05
13390.0 6.4353e-05
13410.0 6.3934e-05
13430.0 6.3509e-05
13450.0 6.307e-05
13470.0 6.2635e-05
13490.0 6.2202e-05
13510.0 6.1739e-05
13530.0 6.1272e-05
13550.0 6.081e-05
13570.0 6.0336e-05
13590.0 5.9843e-05
13610.0 5.9358e-05
13630.0 5.888e-05
13650.0 5.8381e-05
13670.0 5.7883e-05
13690.0 5.7399e-05
13710.0 5.6909e-05
13730.0 5.6397e-05
13750.0 5.5911e-05
13770.0 5.5428e-05
13790.0 5.4931e-05
13810.0 5.4434e-05
13830.0 5.3955e-05
13850.0 5.346e-05
13870.0 5.2952e-05
13890.0 5.2458e-05
13910.0 5.1965e-05
13930.0 5.145e-05
13950.0 5.0934e-05
13970.0 5.044e-05
13990.0 4.9929e-05
14010.0 4.9408e-05
14030.0 4.89e-05
14050.0 4.8395e-05
14070.0 4.7861e-05
14090.0 4.7341e-05
14110.0 4.6838e-05
14130.0 4.6326e-05
14150.0 4.5809e-05
14170.0 4.5325e-05
14190.0 4.4852e-05
14210.0 4.4378e-05
14230.0 4.3929e-05
14250.0 4.3512e-05
14270.0 4.3099e-05
14290.0 4.2703e-05
14310.0 4.2349e-05
14330.0 4.2015e-05
14350.0 4.1693e-05
14370.0 4.1398e-05
14390.0 4.1132e-05
14410.0 4.0871e-05
14430.0 4.0625e-05
14450.0 4.0402e-05
14470.0 4.0188e-05
14490.0 3.9974e-05
14510.0 3.9777e-05
14530.0 3.9593e-05
14550.0 3.9407e-05
14570.0 3.9225e-05
14590.0 3.9055e-05
14610.0 3.8885e-05
14630.0 3.8713e-05
14650.0 3.8551e-05
14670.0 3.8397e-05
14690.0 3.8245e-05
14710.0 3.8101e-05
14730.0 3.7979e-05
14750.0 3.7869e-05
14770.0 3.7776e-05
14790.0 3.7712e-05
14810.0 3.7677e-05
14830.0 3.7672e-05
14850.0 3.7707e-05
14870.0 3.7781e-05
14890.0 3.7893e-05
14910.0 3.8043e-05
14930.0 3.8217e-05
14950.0 3.8403e-05
14970.0 3.8598e-05
14990.0 3.878e-05
15010.0 3.8935e-05
15030.0 3.9065e-05
15050.0 3.9165e-05
15070.0 3.9236e-05
15090.0 3.9287e-05
15110.0 3.9324e-05
15130.0 3.9352e-05
15150.0 3.9377e-05
15170.0 3.9399e-05
15190.0 3.942e-05
15210.0 3.9444e-05
15230.0 3.9469e-05
15250.0 3.9493e-05
15270.0 3.9519e-05
15290.0 3.9548e-05
15310.0 3.9577e-05
15330.0 3.9607e-05
15350.0 3.964e-05
15370.0 3.9673e-05
15390.0 3.9706e-05
15410.0 3.9741e-05
15430.0 3.9778e-05
15450.0 3.9816e-05
15470.0 3.9853e-05
15490.0 3.9894e-05
15510.0 3.9936e-05
15530.0 3.9977e-05
15550.0 4.002e-05
15570.0 4.0065e-05
15590.0 4.011e-05
15610.0 4.0155e-05
15630.0 4.0203e-05
15650.0 4.0252e-05
15670.0 4.03e-05
15690.0 4.0351e-05
15710.0 4.0403e-05
15730.0 4.0455e-05
15750.0 4.0507e-05
15770.0 4.0562e-05
15790.0 4.0617e-05
15810.0 4.0671e-05
15830.0 4.0727e-05
15850.0 4.0786e-05
15870.0 4.0843e-05
15890.0 4.0901e-05
15910.0 4.0962e-05
15930.0 4.1023e-05
15950.0 4.1082e-05
15970.0 4.1144e-05
15990.0 4.1207e-05
16010.0 4.1269e-05
16030.0 4.1332e-05
16050.0 4.1397e-05
16070.0 4.1462e-05
16090.0 4.1526e-05
16110.0 4.1592e-05
16130.0 4.166e-05
16150.0 4.1725e-05
16170.0 4.1791e-05
16190.0 4.186e-05
16210.0 4.1928e-05
16230.0 4.1995e-05
16250.0 4.2064e-05
16270.0 4.2134e-05
16290.0 4.2202e-05
16310.0 4.2271e-05
16330.0 4.2342e-05
16350.0 4.2412e-05
16370.0 4.2479e-05
16390.0 4.255e-05
16410.0 4.2621e-05
16430.0 4.2691e-05
16450.0 4.2761e-05
16470.0 4.2833e-05
16490.0 4.2903e-05
16510.0 4.2972e-05
16530.0 4.3043e-05
16550.0 4.3114e-05
16570.0 4.3183e-05
16590.0 4.3252e-05
16610.0 4.3324e-05
16630.0 4.3393e-05
16650.0 4.3461e-05
16670.0 4.3532e-05
16690.0 4.3601e-05
16710.0 4.3668e-05
16730.0 4.3736e-05
16750.0 4.3805e-05
16770.0 4.3872e-05
16790.0 4.3937e-05
16810.0 4.4005e-05
16830.0 4.4071e-05
16850.0 4.4136e-05
16870.0 4.42e-05
16890.0 4.4266e-05
16910.0 4.4329e-05
16930.0 4.439e-05
16950.0 4.4453e-05
16970.0 4.4515e-05
16990.0 4.4574e-05
17010.0 4.4635e-05
17030.0 4.4695e-05
17050.0 4.4753e-05
17070.0 4.4809e-05
17090.0 4.4866e-05
17110.0 4.4922e-05
17130.0 4.4975e-05
17150.0 4.5028e-05
17170.0 4.5082e-05
17190.0 4.5133e-05
17210.0 4.5182e-05
17230.0 4.5233e-05
17250.0 4.5281e-05
17270.0 4.5326e-05
17290.0 4.5372e-05
17310.0 4.5417e-05
17330.0 4.5459e-05
17350.0 4.55e-05
17370.0 4.5542e-05
17390.0 4.5581e-05
17410.0 4.5617e-05
17430.0 4.5654e-05
17450.0 4.569e-05
17470.0 4.5722e-05
17490.0 4.5752e-05
17510.0 4.5784e-05
17530.0 4.5813e-05
17550.0 4.5838e-05
17570.0 4.5864e-05
17590.0 4.589e-05
17610.0 4.591e-05
17630.0 4.593e-05
17650.0 4.595e-05
17670.0 4.5967e-05
17690.0 4.598e-05
17710.0 4.5994e-05
17730.0 4.6007e-05
17750.0 4.6016e-05
17770.0 4.6023e-05
17790.0 4.6031e-05
17810.0 4.6035e-05
17830.0 4.6036e-05
17850.0 4.6037e-05
17870.0 4.6036e-05
17890.0 4.603e-05
17910.0 4.6024e-05
17930.0 4.6018e-05
17950.0 4.6008e-05
17970.0 4.5996e-05
17990.0 4.5983e-05
18010.0 4.5968e-05
18030.0 4.5948e-05
18050.0 4.5928e-05
18070.0 4.5907e-05
18090.0 4.5882e-05
18110.0 4.5854e-05
18130.0 4.5827e-05
18150.0 4.5797e-05
18170.0 4.5763e-05
18190.0 4.5728e-05
18210.0 4.5692e-05
18230.0 4.5651e-05
18250.0 4.5608e-05
18270.0 4.5565e-05
18290.0 4.552e-05
18310.0 4.547e-05
18330.0 4.542e-05
18350.0 4.5368e-05
18370.0 4.5312e-05
18390.0 4.5254e-05
18410.0 4.5195e-05
18430.0 4.5134e-05
18450.0 4.5067e-05
18470.0 4.5001e-05
18490.0 4.4934e-05
18510.0 4.4862e-05
18530.0 4.4789e-05
18550.0 4.4715e-05
18570.0 4.4637e-05
18590.0 4.4555e-05
18610.0 4.4474e-05
18630.0 4.439e-05
18650.0 4.4303e-05
18670.0 4.4213e-05
18690.0 4.4124e-05
18710.0 4.403e-05
18730.0 4.3934e-05
18750.0 4.3837e-05
18770.0 4.3739e-05
18790.0 4.3634e-05
18810.0 4.353e-05
18830.0 4.3425e-05
18850.0 4.3316e-05
18870.0 4.3204e-05
18890.0 4.3093e-05
18910.0 4.2979e-05
18930.0 4.2861e-05
18950.0 4.2742e-05
18970.0 4.2622e-05
18990.0 4.2499e-05
19010.0 4.2371e-05
19030.0 4.2246e-05
19050.0 4.2118e-05
19070.0 4.1986e-05
19090.0 4.1853e-05
19110.0 4.172e-05
19130.0 4.1583e-05
19150.0 4.1443e-05
19170.0 4.1303e-05
19190.0 4.1162e-05
19210.0 4.1016e-05
19230.0 4.087e-05
19250.0 4.0724e-05
19270.0 4.0574e-05
19290.0 4.0422e-05
19310.0 4.0271e-05
19330.0 4.0117e-05
19350.0 3.9959e-05
19370.0 3.9801e-05
19390.0 3.9643e-05
19410.0 3.9482e-05
19430.0 3.9318e-05
19450.0 3.9156e-05
19470.0 3.8991e-05
19490.0 3.8823e-05
19510.0 3.8655e-05
19530.0 3.8487e-05
19550.0 3.8315e-05
19570.0 3.8141e-05
19590.0 3.7969e-05
19610.0 3.7794e-05
19630.0 3.7617e-05
19650.0 3.744e-05
19670.0 3.7263e-05
19690.0 3.7082e-05
19710.0 3.6901e-05
19730.0 3.672e-05
19750.0 3.6537e-05
19770.0 3.6351e-05
19790.0 3.6166e-05
19810.0 3.5981e-05
19830.0 3.5793e-05
19850.0 3.5603e-05
19870.0 3.5411e-05
19890.0 3.5213e-05
19910.0 3.5004e-05
19930.0 3.4782e-05
19950.0 3.454e-05
19970.0 3.4264e-05
19990.0 3.395e-05
20010.0 3.3603e-05
20030.0 3.3207e-05
20050.0 3.2764e-05
20070.0 3.2296e-05
20090.0 3.1806e-05
20110.0 3.1273e-05
20130.0 3.0742e-05
20150.0 3.022e-05
20170.0 2.9689e-05
20190.0 2.9157e-05
20210.0 2.8649e-05
20230.0 2.8152e-05
20250.0 2.7653e-05
20270.0 2.7177e-05
20290.0 2.6726e-05
20310.0 2.6284e-05
20330.0 2.5851e-05
20350.0 2.5459e-05
20370.0 2.5081e-05
20390.0 2.4717e-05
20410.0 2.4378e-05
20430.0 2.4066e-05
20450.0 2.3763e-05
20470.0 2.348e-05
20490.0 2.3221e-05
20510.0 2.2979e-05
20530.0 2.275e-05
20550.0 2.254e-05
20570.0 2.2347e-05
20590.0 2.2164e-05
20610.0 2.1993e-05
20630.0 2.1834e-05
20650.0 2.1684e-05
20670.0 2.1541e-05
20690.0 2.1405e-05
20710.0 2.1275e-05
20730.0 2.1146e-05
20750.0 2.102e-05
20770.0 2.0893e-05
20790.0 2.0765e-05
20810.0 2.0634e-05
20830.0 2.0498e-05
20850.0 2.0357e-05
20870.0 2.0209e-05
20890.0 2.0052e-05
20910.0 1.9888e-05
20930.0 1.9716e-05
20950.0 1.9532e-05
20970.0 1.9341e-05
20990.0 1.9144e-05
21010.0 1.8933e-05
21030.0 1.8715e-05
21050.0 1.8494e-05
21070.0 1.8264e-05
21090.0 1.8024e-05
21110.0 1.7786e-05
21130.0 1.7546e-05
21150.0 1.7298e-05
21170.0 1.7051e-05
21190.0 1.6809e-05
21210.0 1.6562e-05
21230.0 1.6314e-05
21250.0 1.6075e-05
21270.0 1.5839e-05
21290.0 1.5604e-05
21310.0 1.5374e-05
21330.0 1.5155e-05
21350.0 1.4937e-05
21370.0 1.4723e-05
21390.0 1.4518e-05
21410.0 1.432e-05
21430.0 1.4122e-05
21450.0 1.3933e-05
21470.0 1.3751e-05
21490.0 1.3572e-05
21510.0 1.3397e-05
21530.0 1.3229e-05
21550.0 1.3065e-05
21570.0 1.2901e-05
21590.0 1.2742e-05
21610.0 1.2588e-05
21630.0 1.2434e-05
21650.0 1.2281e-05
21670.0 1.2135e-05
21690.0 1.1989e-05
21710.0 1.1844e-05
21730.0 1.1701e-05
21750.0 1.1562e-05
21770.0 1.1421e-05
21790.0 1.1281e-05
21810.0 1.1144e-05
21830.0 1.1007e-05
21850.0 1.0868e-05
21870.0 1.0732e-05
21890.0 1.0597e-05
21910.0 1.046e-05
21930.0 1.0323e-05
21950.0 1.0188e-05
21970.0 1.0052e-05
21990.0 9.9124e-06
22010.0 9.7761e-06
22030.0 9.6408e-06
22050.0 9.5035e-06
22070.0 9.3667e-06
22090.0 9.2335e-06
22110.0 9.0996e-06
22130.0 8.9652e-06
22150.0 8.8343e-06
22170.0 8.7059e-06
22190.0 8.5765e-06
22210.0 8.4494e-06
22230.0 8.3277e-06
22250.0 8.2067e-06
22270.0 8.0868e-06
22290.0 7.9712e-06
22310.0 7.8584e-06
22330.0 7.7451e-06
22350.0 7.6349e-06
22370.0 7.5282e-06
22390.0 7.422e-06
22410.0 7.3159e-06
22430.0 7.2134e-06
22450.0 7.1123e-06
22470.0 7.0104e-06
22490.0 6.9098e-06
22510.0 6.8114e-06
22530.0 6.7116e-06
22550.0 6.6113e-06
22570.0 6.5135e-06
22590.0 6.4161e-06
22610.0 6.3176e-06
22630.0 6.2203e-06
22650.0 6.1259e-06
22670.0 6.0307e-06
22690.0 5.9362e-06
22710.0 5.8448e-06
22730.0 5.7551e-06
22750.0 5.6649e-06
22770.0 5.5787e-06
