#lamb flux
1010.0 3.3131e-07
1030.0 3.734e-07
1050.0 4.2182e-07
1070.0 4.7631e-07
1090.0 5.3822e-07
1110.0 6.0171e-07
1130.0 6.6561e-07
1150.0 7.3255e-07
1170.0 8.016e-07
1190.0 8.6708e-07
1210.0 9.3344e-07
1230.0 1.002e-06
1250.0 1.0692e-06
1270.0 1.1344e-06
1290.0 1.2034e-06
1310.0 1.2723e-06
1330.0 1.3383e-06
1350.0 1.4052e-06
1370.0 1.4741e-06
1390.0 1.5414e-06
1410.0 1.6066e-06
1430.0 1.6748e-06
1450.0 1.743e-06
1470.0 1.8089e-06
1490.0 1.8755e-06
1510.0 1.9458e-06
1530.0 2.0124e-06
1550.0 2.0781e-06
1570.0 2.1461e-06
1590.0 2.214e-06
1610.0 2.279e-06
1630.0 2.3458e-06
1650.0 2.4144e-06
1670.0 2.4807e-06
1690.0 2.546e-06
1710.0 2.6138e-06
1730.0 2.6819e-06
1750.0 2.7457e-06
1770.0 2.8113e-06
1790.0 2.878e-06
1810.0 2.9424e-06
1830.0 3.0054e-06
1850.0 3.0721e-06
1870.0 3.1366e-06
1890.0 3.1986e-06
1910.0 3.2614e-06
1930.0 3.3254e-06
1950.0 3.3857e-06
1970.0 3.4446e-06
1990.0 3.5053e-06
2010.0 3.5642e-06
2030.0 3.6198e-06
2050.0 3.6764e-06
2070.0 3.7336e-06
2090.0 3.7858e-06
2110.0 3.8366e-06
2130.0 3.888e-06
2150.0 3.9366e-06
2170.0 3.9809e-06
2190.0 4.0258e-06
2210.0 4.0692e-06
2230.0 4.1082e-06
2250.0 4.1448e-06
2270.0 4.182e-06
2290.0 4.2149e-06
2310.0 4.2429e-06
2330.0 4.2704e-06
2350.0 4.2959e-06
2370.0 4.3166e-06
2390.0 4.3359e-06
2410.0 4.3568e-06
2430.0 4.3756e-06
2450.0 4.3941e-06
2470.0 4.4179e-06
2490.0 4.4492e-06
2510.0 4.4862e-06
2530.0 4.544e-06
2550.0 4.6448e-06
2570.0 4.8088e-06
2590.0 5.064e-06
2610.0 5.4881e-06
2630.0 6.0991e-06
2650.0 6.862e-06
2670.0 7.7848e-06
2690.0 8.8272e-06
2710.0 9.8303e-06
2730.0 1.0715e-05
2750.0 1.1491e-05
2770.0 1.207e-05
2790.0 1.2445e-05
2810.0 1.2678e-05
2830.0 1.2811e-05
2850.0 1.2845e-05
2870.0 1.2832e-05
2890.0 1.2798e-05
2910.0 1.275e-05
2930.0 1.2687e-05
2950.0 1.2628e-05
2970.0 1.2572e-05
2990.0 1.2512e-05
3010.0 0.00025892
3030.0 0.00025758
3050.0 0.00025625
3070.0 0.00025469
3090.0 0.00025305
3110.0 0.00025105
3130.0 0.00024838
3150.0 0.00024489
3170.0 0.00024032
3190.0 0.00023477
3210.0 0.00022872
3230.0 0.00022265
3250.0 0.00021761
3270.0 0.00021427
3290.0 0.00021351
3310.0 0.00021517
3330.0 0.00021977
3350.0 0.00022659
3370.0 0.00023578
3390.0 0.00024707
3410.0 0.00025922
3430.0 0.00027281
3450.0 0.00028835
3470.0 0.00030516
3490.0 0.0003228
3510.0 0.00034248
3530.0 0.00036336
3550.0 0.00038424
3570.0 0.000406
3590.0 0.00043023
3610.0 0.00045517
3630.0 0.00048141
3650.0 0.0005087
3670.0 0.00053435
3690.0 0.00055439
3710.0 0.00056687
3730.0 0.0005693
3750.0 0.00056164
3770.0 0.00051669
3790.0 0.00046619
3810.0 0.00043223
3830.0 0.0003775
3850.0 0.0002809
3870.0 0.0001997
3890.0 0.00033388
3910.0 0.00054299
3930.0 0.00065669
3950.0 0.00064526
3970.0 0.00065955
3990.0 0.00077469
4010.0 0.00099511
4030.0 0.0010071
4050.0 0.00089258
4070.0 0.00079114
4090.0 0.00074793
4110.0 0.00090152
4130.0 0.00094231
4150.0 0.00091956
4170.0 0.00093253
4190.0 0.00095069
4210.0 0.00093842
4230.0 0.0010365
4250.0 0.001133
4270.0 0.0011493
4290.0 0.0011636
4310.0 0.0011935
4330.0 0.0013159
4350.0 0.0015175
4370.0 0.0017229
4390.0 0.0016356
4410.0 0.0013394
4430.0 0.0011239
4450.0 0.00096272
4470.0 0.00093452
4490.0 0.0010267
4510.0 0.0011517
4530.0 0.0012726
4550.0 0.001474
4570.0 0.0017442
4590.0 0.0021145
4610.0 0.0027154
4630.0 0.0032989
4650.0 0.0033921
4670.0 0.0032753
4690.0 0.0034906
4710.0 0.0036861
4730.0 0.0031264
4750.0 0.0022338
4770.0 0.00182
4790.0 0.0017588
4810.0 0.0016354
4830.0 0.0015433
4850.0 0.0017673
4870.0 0.0022812
4890.0 0.0026219
4910.0 0.0022246
4930.0 0.0019685
4950.0 0.0022039
4970.0 0.0029539
4990.0 0.003832
5010.0 0.0040767
5030.0 0.0033723
5050.0 0.002177
5070.0 0.0014958
5090.0 0.0013274
5110.0 0.0013872
5130.0 0.0014935
5150.0 0.0015689
5170.0 0.0015671
5190.0 0.0015339
5210.0 0.0014854
5230.0 0.0015221
5250.0 0.0016265
5270.0 0.0018715
5290.0 0.002159
5310.0 0.0023786
5330.0 0.0024402
5350.0 0.0024586
5370.0 0.0026718
5390.0 0.0028869
5410.0 0.0028078
5430.0 0.0024266
5450.0 0.0022315
5470.0 0.0024996
5490.0 0.003206
5510.0 0.0040957
5530.0 0.0045533
5550.0 0.0044151
5570.0 0.0040015
5590.0 0.0035685
5610.0 0.0032969
5630.0 0.0031302
5650.0 0.0032009
5670.0 0.0031248
5690.0 0.0028999
5710.0 0.0027462
5730.0 0.0024918
5750.0 0.0017893
5770.0 0.0015533
5790.0 0.001747
5810.0 0.0021115
5830.0 0.0024038
5850.0 0.0026369
5870.0 0.0027148
5890.0 0.0026227
5910.0 0.0025107
5930.0 0.0025174
5950.0 0.0026369
5970.0 0.0028103
5990.0 0.002662
6010.0 0.0022397
6030.0 0.0018603
6050.0 0.0016144
6070.0 0.0016046
6090.0 0.0018087
6110.0 0.0019869
6130.0 0.0019149
6150.0 0.0017657
6170.0 0.0019198
6190.0 0.0023142
6210.0 0.0028232
6230.0 0.0032527
6250.0 0.0032611
6270.0 0.0029198
6290.0 0.0024183
6310.0 0.0019216
6330.0 0.0015277
6350.0 0.0013753
6370.0 0.001488
6390.0 0.0017595
6410.0 0.0020322
6430.0 0.0023561
6450.0 0.002742
6470.0 0.0033529
6490.0 0.0041282
6510.0 0.0045664
6530.0 0.0042465
6550.0 0.0038987
6570.0 0.0037864
6590.0 0.0036395
6610.0 0.0032498
6630.0 0.0029261
6650.0 0.0026926
6670.0 0.0027907
6690.0 0.0027558
6710.0 0.0024482
6730.0 0.0022247
6750.0 0.0019935
6770.0 0.0019353
6790.0 0.0021321
6810.0 0.0021942
6830.0 0.0022529
6850.0 0.0022064
6870.0 0.0021115
6890.0 0.0020611
6910.0 0.0019838
6930.0 0.0018634
6950.0 0.0018954
6970.0 0.0019235
6990.0 0.002148
7010.0 0.002289
7030.0 0.002097
7050.0 0.0019665
7070.0 0.0019088
7090.0 0.0017474
7110.0 0.0016373
7130.0 0.0016729
7150.0 0.0017558
7170.0 0.0018629
7190.0 0.001876
7210.0 0.0018612
7230.0 0.0019384
7250.0 0.0022215
7270.0 0.0025992
7290.0 0.0028183
7310.0 0.0027534
7330.0 0.0024503
7350.0 0.0021955
7370.0 0.0021172
7390.0 0.0021356
7410.0 0.0022318
7430.0 0.0024392
7450.0 0.0026412
7470.0 0.0029025
7490.0 0.0032148
7510.0 0.0031249
7530.0 0.0029586
7550.0 0.0024708
7570.0 0.002021
7590.0 0.0016037
7610.0 0.0014552
7630.0 0.0015337
7650.0 0.0017555
7670.0 0.001945
7690.0 0.002202
7710.0 0.0024217
7730.0 0.002514
7750.0 0.0025452
7770.0 0.0025319
7790.0 0.0024689
7810.0 0.0025361
7830.0 0.0024602
7850.0 0.0021971
7870.0 0.0019788
7890.0 0.0018227
7910.0 0.0016176
7930.0 0.0013877
7950.0 0.0012649
7970.0 0.0012524
7990.0 0.0013051
8010.0 0.0013841
8030.0 0.0013982
8050.0 0.0013973
8070.0 0.0013617
8090.0 0.0013693
8110.0 0.0012962
8130.0 0.0011807
8150.0 0.0011081
8170.0 0.001059
8190.0 0.0010708
8210.0 0.0010974
8230.0 0.0011569
8250.0 0.0011254
8270.0 0.0010062
8290.0 0.00078963
8310.0 0.00053706
8330.0 0.00035158
8350.0 0.00025193
8370.0 0.000291
8390.0 0.00032662
8410.0 0.00041762
8430.0 0.00050762
8450.0 0.00055798
8470.0 0.00059237
8490.0 0.00059788
8510.0 0.00061609
8530.0 0.0006734
8550.0 0.00076348
8570.0 0.00091189
8590.0 0.0010966
8610.0 0.0012986
8630.0 0.0015146
8650.0 0.0016704
8670.0 0.0016614
8690.0 0.0015851
8710.0 0.0014929
8730.0 0.0014166
8750.0 0.0013386
8770.0 0.0012943
8790.0 0.0012656
8810.0 0.0011888
8830.0 0.0010452
8850.0 0.00089108
8870.0 0.00075266
8890.0 0.0006964
8910.0 0.00071887
8930.0 0.00073515
8950.0 0.00081302
8970.0 0.00083073
8990.0 0.00084796
9010.0 0.00085749
9030.0 0.00086067
9050.0 0.00086606
9070.0 0.00087013
9090.0 0.00087313
9110.0 0.00087532
9130.0 0.00087767
9150.0 0.00088032
9170.0 0.00088308
9190.0 0.00088594
9210.0 0.00088936
9230.0 0.00089256
9250.0 0.00089609
9270.0 0.00089977
9290.0 0.00090363
9310.0 0.00090778
9330.0 0.00091212
9350.0 0.00091659
9370.0 0.00092128
9390.0 0.00092622
9410.0 0.0009313
9430.0 0.0009365
9450.0 0.000942
9470.0 0.00094767
9490.0 0.00095345
9510.0 0.00095943
9530.0 0.00096566
9550.0 0.00097193
9570.0 0.00097837
9590.0 0.00098504
9610.0 0.00099186
9630.0 0.00099875
9650.0 0.0010058
9670.0 0.0010131
9690.0 0.0010205
9710.0 0.0010279
9730.0 0.0010356
9750.0 0.0010434
9770.0 0.0010511
9790.0 0.0010591
9810.0 0.0010672
9830.0 0.0010753
9850.0 0.0010835
9870.0 0.0010919
9890.0 0.0011004
9910.0 0.0011088
9930.0 0.0011174
9950.0 0.001126
9970.0 0.0011346
9990.0 0.0011433
10010.0 0.0011137
10030.0 0.001122
10050.0 0.0011303
10070.0 0.0011385
10090.0 0.0011469
10110.0 0.0011552
10130.0 0.0011636
10150.0 0.0011719
10170.0 0.0011802
10190.0 0.0011884
10210.0 0.0011966
10230.0 0.0012048
10250.0 0.0012129
10270.0 0.0012208
10290.0 0.0012289
10310.0 0.0012367
10330.0 0.0012444
10350.0 0.001252
10370.0 0.0012596
10390.0 0.001267
10410.0 0.0012743
10430.0 0.0012816
10450.0 0.0012886
10470.0 0.0012954
10490.0 0.0013022
10510.0 0.0013088
10530.0 0.0013151
10550.0 0.0013213
10570.0 0.0013274
10590.0 0.0013332
10610.0 0.0013388
10630.0 0.0013443
10650.0 0.0013496
10670.0 0.0013545
10690.0 0.0013593
10710.0 0.0013639
10730.0 0.0013682
10750.0 0.0013722
10770.0 0.0013761
10790.0 0.0013798
10810.0 0.0013831
10830.0 0.0013861
10850.0 0.0013889
10870.0 0.0013909
10890.0 0.0013922
10910.0 0.0013925
10930.0 0.0013909
10950.0 0.0013863
10970.0 0.0013782
10990.0 0.0013665
11010.0 0.0013185
11030.0 0.0012964
11050.0 0.0012704
11070.0 0.0012399
11090.0 0.0012034
11110.0 0.001166
11130.0 0.0011271
11150.0 0.0010855
11170.0 0.001043
11190.0 0.0010024
11210.0 0.00096121
11230.0 0.00091997
11250.0 0.00088168
11270.0 0.00084598
11290.0 0.00081131
11310.0 0.00077954
11330.0 0.00075244
11350.0 0.00072748
11370.0 0.00070488
11390.0 0.00068556
11410.0 0.0006686
11430.0 0.00065247
11450.0 0.00063792
11470.0 0.00062448
11490.0 0.00061095
11510.0 0.00059673
11530.0 0.00058251
11550.0 0.00056759
11570.0 0.00055111
11590.0 0.00053379
11610.0 0.00051616
11630.0 0.00049719
11650.0 0.00047729
11670.0 0.00045814
11690.0 0.00043921
11710.0 0.0004202
11730.0 0.00040227
11750.0 0.00038606
11770.0 0.00037053
11790.0 0.00035627
11810.0 0.00034388
11830.0 0.00033289
11850.0 0.00032278
11870.0 0.00031416
11890.0 0.00030675
11910.0 0.00029989
11930.0 0.00029352
11950.0 0.00028768
11970.0 0.0002819
11990.0 0.00027588
12010.0 0.0002698
12030.0 0.0002636
12050.0 0.00025698
12070.0 0.00024998
12090.0 0.00024321
12110.0 0.00023635
12130.0 0.00022948
12150.0 0.00022309
12170.0 0.00021736
12190.0 0.00021209
12210.0 0.00020781
12230.0 0.0002047
12250.0 0.00020272
12270.0 0.00020203
12290.0 0.00020266
12310.0 0.00020446
12330.0 0.00020762
12350.0 0.00021196
12370.0 0.00021709
12390.0 0.00022313
12410.0 0.00023025
12430.0 0.00023739
12450.0 0.00024465
12470.0 0.0002522
12490.0 0.00025954
12510.0 0.00026612
12530.0 0.00027238
12550.0 0.00027808
12570.0 0.00028269
12590.0 0.00028632
12610.0 0.00028913
12630.0 0.00029082
12650.0 0.00029133
12670.0 0.00029092
12690.0 0.00028953
12710.0 0.00028726
12730.0 0.00028422
12750.0 0.00028036
12770.0 0.00027589
12790.0 0.00027101
12810.0 0.00026562
12830.0 0.00025973
12850.0 0.00025375
12870.0 0.00024756
12890.0 0.00024098
12910.0 0.00023429
12930.0 0.00022764
12950.0 0.00022065
12970.0 0.00021341
12990.0 0.00020638
13010.0 0.00019928
13030.0 0.00019196
13050.0 0.00018476
13070.0 0.00017787
13090.0 0.00017087
13110.0 0.00016402
13130.0 0.00015765
13150.0 0.00015161
13170.0 0.00014575
13190.0 0.00014058
13210.0 0.00013611
13230.0 0.00013214
13250.0 0.00012886
13270.0 0.00012639
13290.0 0.00012462
13310.0 0.00012358
13330.0 0.00012333
13350.0 0.00012377
13370.0 0.00012491
13390.0 0.00012673
13410.0 0.00012892
13430.0 0.00013158
13450.0 0.00013468
13470.0 0.00013792
13490.0 0.00014118
13510.0 0.0001447
13530.0 0.00014811
13550.0 0.00015121
13570.0 0.00015414
13590.0 0.00015688
13610.0 0.00015918
13630.0 0.00016107
13650.0 0.00016268
13670.0 0.00016388
13690.0 0.00016464
13710.0 0.00016507
13730.0 0.00016516
13750.0 0.00016488
13770.0 0.00016431
13790.0 0.00016345
13810.0 0.00016234
13830.0 0.00016103
13850.0 0.00015949
13870.0 0.00015774
13890.0 0.00015586
13910.0 0.00015385
13930.0 0.00015164
13950.0 0.00014931
13970.0 0.00014701
13990.0 0.00014458
14010.0 0.00014208
14030.0 0.00013965
14050.0 0.00013725
14070.0 0.00013481
14090.0 0.00013252
14110.0 0.00013043
14130.0 0.00012847
14150.0 0.00012669
14170.0 0.00012522
14190.0 0.00012402
14210.0 0.00012307
14230.0 0.00012245
14250.0 0.00012215
14270.0 0.00012216
14290.0 0.00012251
14310.0 0.00012313
14330.0 0.00012403
14350.0 0.00012523
14370.0 0.00012662
14390.0 0.00012815
14410.0 0.00012989
14430.0 0.00013178
14450.0 0.00013369
14470.0 0.00013568
14490.0 0.00013783
14510.0 0.00013995
14530.0 0.00014207
14550.0 0.00014433
14570.0 0.00014671
14590.0 0.00014912
14610.0 0.00015173
14630.0 0.00015466
14650.0 0.00015774
14670.0 0.00016105
14690.0 0.00016478
14710.0 0.00016891
14730.0 0.00017312
14750.0 0.00017771
14770.0 0.00018273
14790.0 0.00018785
14810.0 0.00019302
14830.0 0.00019863
14850.0 0.00020418
14870.0 0.00020946
14890.0 0.00021465
14910.0 0.00021967
14930.0 0.0002241
14950.0 0.00022793
14970.0 0.00023129
14990.0 0.0002339
15010.0 0.00023575
15030.0 0.00023699
15050.0 0.00023768
15070.0 0.00023789
15090.0 0.00023781
15110.0 0.00023752
15130.0 0.00023711
15150.0 0.00023666
15170.0 0.00023615
15190.0 0.00023563
15210.0 0.00023512
15230.0 0.00023462
15250.0 0.0002341
15270.0 0.00023358
15290.0 0.0002331
15310.0 0.0002326
15330.0 0.00023209
15350.0 0.00023161
15370.0 0.00023113
15390.0 0.00023062
15410.0 0.00023013
15430.0 0.00022966
15450.0 0.00022917
15470.0 0.00022867
15490.0 0.0002282
15510.0 0.00022773
15530.0 0.00022724
15550.0 0.00022676
15570.0 0.0002263
15590.0 0.00022581
15610.0 0.00022531
15630.0 0.00022484
15650.0 0.00022437
15670.0 0.00022387
15690.0 0.00022339
15710.0 0.00022293
15730.0 0.00022244
15750.0 0.00022195
15770.0 0.00022147
15790.0 0.00022099
15810.0 0.00022048
15830.0 0.00021999
15850.0 0.00021951
15870.0 0.00021901
15890.0 0.00021851
15910.0 0.00021803
15930.0 0.00021753
15950.0 0.00021701
15970.0 0.00021651
15990.0 0.00021601
16010.0 0.00021549
16030.0 0.00021496
16050.0 0.00021446
16070.0 0.00021394
16090.0 0.00021341
16110.0 0.00021289
16130.0 0.00021238
16150.0 0.00021182
16170.0 0.00021127
16190.0 0.00021075
16210.0 0.0002102
16230.0 0.00020964
16250.0 0.00020909
16270.0 0.00020856
16290.0 0.00020798
16310.0 0.00020741
16330.0 0.00020686
16350.0 0.00020629
16370.0 0.00020568
16390.0 0.00020512
16410.0 0.00020454
16430.0 0.00020394
16450.0 0.00020335
16470.0 0.00020277
16490.0 0.00020216
16510.0 0.00020154
16530.0 0.00020094
16550.0 0.00020033
16570.0 0.00019969
16590.0 0.00019906
16610.0 0.00019845
16630.0 0.00019782
16650.0 0.00019717
16670.0 0.00019654
16690.0 0.00019591
16710.0 0.00019523
16730.0 0.00019457
16750.0 0.00019393
16770.0 0.00019326
16790.0 0.00019257
16810.0 0.00019191
16830.0 0.00019125
16850.0 0.00019055
16870.0 0.00018987
16890.0 0.00018919
16910.0 0.00018849
16930.0 0.00018777
16950.0 0.00018708
16970.0 0.00018638
16990.0 0.00018565
17010.0 0.00018494
17030.0 0.00018424
17050.0 0.0001835
17070.0 0.00018277
17090.0 0.00018205
17110.0 0.00018132
17130.0 0.00018055
17150.0 0.00017981
17170.0 0.00017908
17190.0 0.00017832
17210.0 0.00017756
17230.0 0.00017682
17250.0 0.00017606
17270.0 0.00017528
17290.0 0.00017452
17310.0 0.00017376
17330.0 0.00017297
17350.0 0.00017218
17370.0 0.00017142
17390.0 0.00017064
17410.0 0.00016984
17430.0 0.00016906
17450.0 0.00016828
17470.0 0.00016746
17490.0 0.00016666
17510.0 0.00016587
17530.0 0.00016507
17550.0 0.00016425
17570.0 0.00016345
17590.0 0.00016266
17610.0 0.00016183
17630.0 0.00016101
17650.0 0.00016021
17670.0 0.00015939
17690.0 0.00015854
17710.0 0.00015774
17730.0 0.00015692
17750.0 0.00015609
17770.0 0.00015526
17790.0 0.00015445
17810.0 0.00015361
17830.0 0.00015277
17850.0 0.00015194
17870.0 0.00015112
17890.0 0.00015027
17910.0 0.00014942
17930.0 0.00014861
17950.0 0.00014777
17970.0 0.00014692
17990.0 0.00014609
18010.0 0.00014526
18030.0 0.0001444
18050.0 0.00014356
18070.0 0.00014273
18090.0 0.00014188
18110.0 0.00014103
18130.0 0.0001402
18150.0 0.00013937
18170.0 0.00013851
18190.0 0.00013767
18210.0 0.00013685
18230.0 0.00013599
18250.0 0.00013513
18270.0 0.00013431
18290.0 0.00013347
18310.0 0.00013262
18330.0 0.00013178
18350.0 0.00013096
18370.0 0.00013011
18390.0 0.00012927
18410.0 0.00012844
18430.0 0.00012761
18450.0 0.00012675
18470.0 0.00012592
18490.0 0.0001251
18510.0 0.00012426
18530.0 0.00012342
18550.0 0.00012261
18570.0 0.00012178
18590.0 0.00012094
18610.0 0.00012011
18630.0 0.0001193
18650.0 0.00011847
18670.0 0.00011763
18690.0 0.00011683
18710.0 0.00011601
18730.0 0.00011519
18750.0 0.00011438
18770.0 0.00011358
18790.0 0.00011274
18810.0 0.00011193
18830.0 0.00011113
18850.0 0.00011033
18870.0 0.00010951
18890.0 0.00010872
18910.0 0.00010793
18930.0 0.00010712
18950.0 0.00010632
18970.0 0.00010554
18990.0 0.00010475
19010.0 0.00010393
19030.0 0.00010316
19050.0 0.00010238
19070.0 0.00010159
19090.0 0.00010081
19110.0 0.00010005
19130.0 9.9262e-05
19150.0 9.8476e-05
19170.0 9.7714e-05
19190.0 9.6951e-05
19210.0 9.6169e-05
19230.0 9.5401e-05
19250.0 9.4659e-05
19270.0 9.3896e-05
19290.0 9.3132e-05
19310.0 9.2391e-05
19330.0 9.1647e-05
19350.0 9.0876e-05
19370.0 9.0132e-05
19390.0 8.9401e-05
19410.0 8.8654e-05
19430.0 8.7905e-05
19450.0 8.7185e-05
19470.0 8.6458e-05
19490.0 8.5716e-05
19510.0 8.4992e-05
19530.0 8.4281e-05
19550.0 8.3547e-05
19570.0 8.2814e-05
19590.0 8.2111e-05
19610.0 8.1401e-05
19630.0 8.0679e-05
19650.0 7.9976e-05
19670.0 7.9286e-05
19690.0 7.8572e-05
19710.0 7.7865e-05
19730.0 7.7179e-05
19750.0 7.6487e-05
19770.0 7.5775e-05
19790.0 7.5092e-05
19810.0 7.4418e-05
19830.0 7.3726e-05
19850.0 7.3036e-05
19870.0 7.2363e-05
19890.0 7.1661e-05
19910.0 7.0922e-05
19930.0 7.0168e-05
19950.0 6.936e-05
19970.0 6.8445e-05
19990.0 6.7424e-05
20010.0 6.7647e-05
20030.0 6.6385e-05
20050.0 6.4987e-05
20070.0 6.3539e-05
20090.0 6.2043e-05
20110.0 6.0422e-05
20130.0 5.8837e-05
20150.0 5.7315e-05
20170.0 5.5786e-05
20190.0 5.428e-05
20210.0 5.2891e-05
20230.0 5.1565e-05
20250.0 5.0266e-05
20270.0 4.9082e-05
20290.0 4.8016e-05
20310.0 4.7022e-05
20330.0 4.611e-05
20350.0 4.5363e-05
20370.0 4.4714e-05
20390.0 4.4164e-05
20410.0 4.3739e-05
20430.0 4.3431e-05
20450.0 4.3221e-05
20470.0 4.3122e-05
20490.0 4.3122e-05
20510.0 4.3212e-05
20530.0 4.3397e-05
20550.0 4.3655e-05
20570.0 4.3965e-05
20590.0 4.4348e-05
20610.0 4.4786e-05
20630.0 4.5245e-05
20650.0 4.5743e-05
20670.0 4.6298e-05
20690.0 4.6845e-05
20710.0 4.7395e-05
20730.0 4.7975e-05
20750.0 4.8565e-05
20770.0 4.9128e-05
20790.0 4.9707e-05
20810.0 5.0308e-05
20830.0 5.0894e-05
20850.0 5.1472e-05
20870.0 5.2088e-05
20890.0 5.2712e-05
20910.0 5.3311e-05
20930.0 5.3933e-05
20950.0 5.4583e-05
20970.0 5.522e-05
20990.0 5.5851e-05
21010.0 5.6523e-05
21030.0 5.7185e-05
21050.0 5.7819e-05
21070.0 5.8456e-05
21090.0 5.9102e-05
21110.0 5.9691e-05
21130.0 6.0248e-05
21150.0 6.0793e-05
21170.0 6.1293e-05
21190.0 6.173e-05
21210.0 6.2137e-05
21230.0 6.2497e-05
21250.0 6.278e-05
21270.0 6.3e-05
21290.0 6.3161e-05
21310.0 6.3245e-05
21330.0 6.3249e-05
21350.0 6.3177e-05
21370.0 6.3017e-05
21390.0 6.2773e-05
21410.0 6.2444e-05
21430.0 6.2e-05
21450.0 6.1472e-05
21470.0 6.087e-05
21490.0 6.0165e-05
21510.0 5.9364e-05
21530.0 5.852e-05
21550.0 5.7609e-05
21570.0 5.6606e-05
21590.0 5.5584e-05
21610.0 5.4561e-05
21630.0 5.3499e-05
21650.0 5.2418e-05
21670.0 5.1432e-05
21690.0 5.0474e-05
21710.0 4.9551e-05
21730.0 4.8724e-05
21750.0 4.8008e-05
21770.0 4.7355e-05
21790.0 4.6825e-05
21810.0 4.643e-05
21830.0 4.6152e-05
21850.0 4.5998e-05
21870.0 4.5978e-05
21890.0 4.6075e-05
21910.0 4.6299e-05
21930.0 4.6641e-05
21950.0 4.7077e-05
21970.0 4.7618e-05
21990.0 4.8287e-05
22010.0 4.9009e-05
22030.0 4.9791e-05
22050.0 5.0664e-05
22070.0 5.1592e-05
22090.0 5.2516e-05
22110.0 5.3492e-05
22130.0 5.4512e-05
22150.0 5.5505e-05
22170.0 5.6476e-05
22190.0 5.7474e-05
22210.0 5.8432e-05
22230.0 5.9297e-05
22250.0 6.013e-05
22270.0 6.0909e-05
22290.0 6.1583e-05
22310.0 6.2164e-05
22330.0 6.2674e-05
22350.0 6.3064e-05
22370.0 6.3331e-05
22390.0 6.3487e-05
22410.0 6.3515e-05
22430.0 6.3415e-05
22450.0 6.3194e-05
22470.0 6.2836e-05
22490.0 6.2351e-05
22510.0 6.1764e-05
22530.0 6.1031e-05
22550.0 6.0159e-05
22570.0 5.9211e-05
22590.0 5.816e-05
22610.0 5.6969e-05
22630.0 5.5697e-05
22650.0 5.4398e-05
22670.0 5.2974e-05
22690.0 5.1466e-05
22710.0 4.9955e-05
22730.0 4.8406e-05
22750.0 4.6732e-05
22770.0 4.5103e-05
22790.0 4.3517e-05
22810.0 4.1894e-05
22830.0 4.028e-05
22850.0 3.8776e-05
22870.0 3.7309e-05
22890.0 3.586e-05
22910.0 3.4541e-05
