#lamb flux
1010.0 1.0938e-07
1030.0 1.1607e-07
1050.0 1.2376e-07
1070.0 1.3241e-07
1090.0 1.4225e-07
1110.0 1.5234e-07
1130.0 1.6249e-07
1150.0 1.7313e-07
1170.0 1.8411e-07
1190.0 1.9452e-07
1210.0 2.0508e-07
1230.0 2.1599e-07
1250.0 2.2668e-07
1270.0 2.3707e-07
1290.0 2.4804e-07
1310.0 2.5902e-07
1330.0 2.6955e-07
1350.0 2.802e-07
1370.0 2.912e-07
1390.0 3.0193e-07
1410.0 3.1235e-07
1430.0 3.2325e-07
1450.0 3.3414e-07
1470.0 3.4469e-07
1490.0 3.5535e-07
1510.0 3.6661e-07
1530.0 3.7729e-07
1550.0 3.8784e-07
1570.0 3.9875e-07
1590.0 4.0968e-07
1610.0 4.2014e-07
1630.0 4.3092e-07
1650.0 4.4199e-07
1670.0 4.5271e-07
1690.0 4.6331e-07
1710.0 4.7432e-07
1730.0 4.854e-07
1750.0 4.9583e-07
1770.0 5.0659e-07
1790.0 5.1757e-07
1810.0 5.2821e-07
1830.0 5.3869e-07
1850.0 5.4983e-07
1870.0 5.607e-07
1890.0 5.7123e-07
1910.0 5.8199e-07
1930.0 5.9304e-07
1950.0 6.0362e-07
1970.0 6.1411e-07
1990.0 6.2502e-07
2010.0 6.358e-07
2030.0 6.4624e-07
2050.0 6.5705e-07
2070.0 6.6817e-07
2090.0 6.7872e-07
2110.0 6.8931e-07
2130.0 7.0026e-07
2150.0 7.1109e-07
2170.0 7.2153e-07
2190.0 7.3243e-07
2210.0 7.4347e-07
2230.0 7.5418e-07
2250.0 7.6492e-07
2270.0 7.7622e-07
2290.0 7.8728e-07
2310.0 7.9801e-07
2330.0 8.0915e-07
2350.0 8.2049e-07
2370.0 8.3149e-07
2390.0 8.427e-07
2410.0 8.5449e-07
2430.0 8.6594e-07
2450.0 8.7699e-07
2470.0 8.8786e-07
2490.0 8.98e-07
2510.0 9.0669e-07
2530.0 9.1526e-07
2550.0 9.2593e-07
2570.0 9.4224e-07
2590.0 9.6905e-07
2610.0 1.0166e-06
2630.0 1.091e-06
2650.0 1.1915e-06
2670.0 1.3215e-06
2690.0 1.48e-06
2710.0 1.6485e-06
2730.0 1.8167e-06
2750.0 1.9876e-06
2770.0 2.1469e-06
2790.0 2.2891e-06
2810.0 2.423e-06
2830.0 2.5562e-06
2850.0 2.679e-06
2870.0 2.8005e-06
2890.0 2.9273e-06
2910.0 3.0556e-06
2930.0 3.1802e-06
2950.0 3.3104e-06
2970.0 3.4444e-06
2990.0 3.5748e-06
3010.0 7.6739e-06
3030.0 7.9545e-06
3050.0 8.2378e-06
3070.0 8.5091e-06
3090.0 8.7936e-06
3110.0 9.0896e-06
3130.0 9.3819e-06
3150.0 9.6717e-06
3170.0 9.9679e-06
3190.0 1.0224e-05
3210.0 1.0423e-05
3230.0 1.0579e-05
3250.0 9.3232e-06
3270.0 8.0761e-06
3290.0 6.1679e-06
3310.0 6.9116e-06
3330.0 7.4437e-06
3350.0 7.95e-06
3370.0 8.4522e-06
3390.0 8.9549e-06
3410.0 9.4578e-06
3430.0 9.9596e-06
3450.0 1.0463e-05
3470.0 1.0964e-05
3490.0 1.1388e-05
3510.0 1.1531e-05
3530.0 1.2066e-05
3550.0 1.4742e-05
3570.0 1.8688e-05
3590.0 2.1146e-05
3610.0 2.407e-05
3630.0 2.2421e-05
3650.0 2.0509e-05
3670.0 1.9766e-05
3690.0 2.3495e-05
3710.0 2.9815e-05
3730.0 3.2051e-05
3750.0 3.3273e-05
3770.0 3.3603e-05
3790.0 3.3046e-05
3810.0 2.9994e-05
3830.0 2.3229e-05
3850.0 1.8552e-05
3870.0 1.8071e-05
3890.0 2.4663e-05
3910.0 3.3534e-05
3930.0 3.9318e-05
3950.0 4.1488e-05
3970.0 4.1274e-05
3990.0 4.71e-05
4010.0 5.2652e-05
4030.0 4.925e-05
4050.0 4.3085e-05
4070.0 3.6449e-05
4090.0 3.6232e-05
4110.0 4.1049e-05
4130.0 4.1661e-05
4150.0 4.1997e-05
4170.0 3.957e-05
4190.0 3.7729e-05
4210.0 3.8195e-05
4230.0 4.39e-05
4250.0 4.4329e-05
4270.0 4.4038e-05
4290.0 4.362e-05
4310.0 4.3656e-05
4330.0 4.8235e-05
4350.0 5.5551e-05
4370.0 5.6451e-05
4390.0 4.8853e-05
4410.0 4.0354e-05
4430.0 3.4598e-05
4450.0 2.9768e-05
4470.0 2.8842e-05
4490.0 3.4483e-05
4510.0 3.8687e-05
4530.0 4.2412e-05
4550.0 4.5587e-05
4570.0 5.3857e-05
4590.0 7.6796e-05
4610.0 0.00010287
4630.0 0.00010656
4650.0 0.00010116
4670.0 0.00010751
4690.0 0.00011793
4710.0 0.00010428
4730.0 7.6787e-05
4750.0 5.8436e-05
4770.0 5.32e-05
4790.0 5.3402e-05
4810.0 5.0061e-05
4830.0 5.4618e-05
4850.0 6.9343e-05
4870.0 8.6128e-05
4890.0 7.6978e-05
4910.0 6.7663e-05
4930.0 7.5067e-05
4950.0 9.8623e-05
4970.0 0.00012796
4990.0 0.00013188
5010.0 0.00011362
5030.0 8.5254e-05
5050.0 6.1128e-05
5070.0 5.1403e-05
5090.0 4.8757e-05
5110.0 4.9473e-05
5130.0 5.1474e-05
5150.0 5.0793e-05
5170.0 5.1767e-05
5190.0 5.0122e-05
5210.0 5.1877e-05
5230.0 5.5691e-05
5250.0 6.1607e-05
5270.0 7.6193e-05
5290.0 8.7301e-05
5310.0 8.807e-05
5330.0 9.2044e-05
5350.0 0.00010427
5370.0 0.00011131
5390.0 0.00010367
5410.0 8.9123e-05
5430.0 8.511e-05
5450.0 9.8648e-05
5470.0 0.00012781
5490.0 0.00015932
5510.0 0.00017598
5530.0 0.00018045
5550.0 0.00017276
5570.0 0.00016161
5590.0 0.00015689
5610.0 0.00015949
5630.0 0.00016394
5650.0 0.00016498
5670.0 0.00016324
5690.0 0.00015941
5710.0 0.00014373
5730.0 0.00012079
5750.0 0.00010185
5770.0 0.00010293
5790.0 0.00011364
5810.0 0.00012283
5830.0 0.00012749
5850.0 0.00012801
5870.0 0.00011893
5890.0 0.00010464
5910.0 0.00010293
5930.0 0.00011223
5950.0 0.00011657
5970.0 0.00010742
5990.0 9.3008e-05
6010.0 7.6936e-05
6030.0 6.4611e-05
6050.0 6.3627e-05
6070.0 7.2324e-05
6090.0 7.6145e-05
6110.0 6.9626e-05
6130.0 6.4443e-05
6150.0 6.8459e-05
6170.0 8.1966e-05
6190.0 9.7793e-05
6210.0 0.00010634
6230.0 0.00010266
6250.0 9.4095e-05
6270.0 8.1426e-05
6290.0 6.7503e-05
6310.0 5.5872e-05
6330.0 5.0468e-05
6350.0 5.2564e-05
6370.0 5.6985e-05
6390.0 6.1678e-05
6410.0 7.0179e-05
6430.0 8.6405e-05
6450.0 0.00010882
6470.0 0.00012387
6490.0 0.00012419
6510.0 0.00012125
6530.0 0.00012355
6550.0 0.00012631
6570.0 0.00012742
6590.0 0.00012743
6610.0 0.00012397
6630.0 0.00012414
6650.0 0.00012456
6670.0 0.00011977
6690.0 0.0001074
6710.0 9.0786e-05
6730.0 8.6927e-05
6750.0 9.3418e-05
6770.0 0.00010158
6790.0 0.00010471
6810.0 0.00010353
6830.0 0.00010212
6850.0 9.9893e-05
6870.0 9.4189e-05
6890.0 8.8752e-05
6910.0 8.4821e-05
6930.0 8.1756e-05
6950.0 8.6783e-05
6970.0 9.4455e-05
6990.0 9.9624e-05
7010.0 0.00010079
7030.0 9.5251e-05
7050.0 8.269e-05
7070.0 6.7038e-05
7090.0 5.6956e-05
7110.0 5.494e-05
7130.0 5.7951e-05
7150.0 5.8668e-05
7170.0 5.3963e-05
7190.0 5.2907e-05
7210.0 5.8288e-05
7230.0 6.6939e-05
7250.0 7.6508e-05
7270.0 8.0567e-05
7290.0 7.5859e-05
7310.0 6.7309e-05
7330.0 6.16e-05
7350.0 6.0296e-05
7370.0 6.1873e-05
7390.0 6.4661e-05
7410.0 6.9284e-05
7430.0 7.8753e-05
7450.0 9.1551e-05
7470.0 0.00010453
7490.0 0.00011057
7510.0 0.00010698
7530.0 9.2273e-05
7550.0 7.4919e-05
7570.0 6.2098e-05
7590.0 5.455e-05
7610.0 5.5936e-05
7630.0 6.4413e-05
7650.0 7.3824e-05
7670.0 8.3253e-05
7690.0 9.1168e-05
7710.0 9.6795e-05
7730.0 0.00010144
7750.0 0.00010576
7770.0 0.00010951
7790.0 0.00010957
7810.0 0.00011039
7830.0 0.00011351
7850.0 0.00011335
7870.0 0.00010999
7890.0 0.00010184
7910.0 9.5375e-05
7930.0 9.0641e-05
7950.0 9.0291e-05
7970.0 8.9434e-05
7990.0 9.0044e-05
8010.0 8.9462e-05
8030.0 8.9562e-05
8050.0 9.1691e-05
8070.0 9.0111e-05
8090.0 8.9879e-05
8110.0 8.6178e-05
8130.0 8.5438e-05
8150.0 8.2879e-05
8170.0 8.0358e-05
8190.0 7.9062e-05
8210.0 7.9445e-05
8230.0 7.4391e-05
8250.0 6.9582e-05
8270.0 6.0653e-05
8290.0 4.8812e-05
8310.0 3.7783e-05
8330.0 2.8965e-05
8350.0 2.5512e-05
8370.0 2.8664e-05
8390.0 3.3065e-05
8410.0 3.6454e-05
8430.0 4.0399e-05
8450.0 4.2501e-05
8470.0 4.4429e-05
8490.0 4.9311e-05
8510.0 5.486e-05
8530.0 6.3635e-05
8550.0 7.4499e-05
8570.0 8.4244e-05
8590.0 9.2007e-05
8610.0 9.8566e-05
8630.0 0.00010319
8650.0 0.00010378
8670.0 0.00010384
8690.0 0.0001071
8710.0 0.00010893
8730.0 0.00011093
8750.0 0.00010849
8770.0 0.00010865
8790.0 0.00010695
8810.0 9.9416e-05
8830.0 9.6579e-05
8850.0 9.0949e-05
8870.0 8.6723e-05
8890.0 8.2692e-05
8910.0 8.4645e-05
8930.0 7.9507e-05
8950.0 7.6435e-05
8970.0 7.5193e-05
8990.0 7.3325e-05
9010.0 7.1951e-05
9030.0 7.0054e-05
9050.0 6.963e-05
9070.0 6.9438e-05
9090.0 6.925e-05
9110.0 6.9072e-05
9130.0 6.8875e-05
9150.0 6.8671e-05
9170.0 6.8378e-05
9190.0 6.7982e-05
9210.0 6.832e-05
9230.0 6.7967e-05
9250.0 6.7684e-05
9270.0 6.7418e-05
9290.0 6.7163e-05
9310.0 6.6914e-05
9330.0 6.6667e-05
9350.0 6.6423e-05
9370.0 6.6178e-05
9390.0 6.5928e-05
9410.0 6.5677e-05
9430.0 6.5421e-05
9450.0 6.5138e-05
9470.0 6.486e-05
9490.0 6.4625e-05
9510.0 6.4375e-05
9530.0 6.4119e-05
9550.0 6.3858e-05
9570.0 6.3594e-05
9590.0 6.3328e-05
9610.0 6.3059e-05
9630.0 6.279e-05
9650.0 6.2519e-05
9670.0 6.2247e-05
9690.0 6.1975e-05
9710.0 6.1702e-05
9730.0 6.1428e-05
9750.0 6.1154e-05
9770.0 6.0881e-05
9790.0 6.0606e-05
9810.0 6.0332e-05
9830.0 6.0058e-05
9850.0 5.9784e-05
9870.0 5.951e-05
9890.0 5.9235e-05
9910.0 5.8961e-05
9930.0 5.8682e-05
9950.0 5.8038e-05
9970.0 5.7875e-05
9990.0 5.7691e-05
10010.0 5.7496e-05
10030.0 5.7271e-05
10050.0 5.7018e-05
10070.0 5.6746e-05
10090.0 5.6501e-05
10110.0 5.6233e-05
10130.0 5.5977e-05
10150.0 5.5718e-05
10170.0 5.5447e-05
10190.0 5.5163e-05
10210.0 5.4898e-05
10230.0 5.464e-05
10250.0 5.4366e-05
10270.0 5.4097e-05
10290.0 5.3842e-05
10310.0 5.3574e-05
10330.0 5.3294e-05
10350.0 5.3034e-05
10370.0 5.2774e-05
10390.0 5.2501e-05
10410.0 5.2231e-05
10430.0 5.1979e-05
10450.0 5.1712e-05
10470.0 5.1439e-05
10490.0 5.1178e-05
10510.0 5.092e-05
10530.0 5.0639e-05
10550.0 5.0368e-05
10570.0 5.0111e-05
10590.0 4.9842e-05
10610.0 4.9566e-05
10630.0 4.9306e-05
10650.0 4.9043e-05
10670.0 4.8761e-05
10690.0 4.8489e-05
10710.0 4.8226e-05
10730.0 4.795e-05
10750.0 4.766e-05
10770.0 4.7396e-05
10790.0 4.7125e-05
10810.0 4.684e-05
10830.0 4.6561e-05
10850.0 4.6293e-05
10870.0 4.5996e-05
10890.0 4.5691e-05
10910.0 4.539e-05
10930.0 4.5064e-05
10950.0 4.4689e-05
10970.0 4.4282e-05
10990.0 4.3848e-05
11010.0 3.9573e-05
11030.0 3.9048e-05
11050.0 3.8541e-05
11070.0 3.8021e-05
11090.0 3.7462e-05
11110.0 3.6944e-05
11130.0 3.6442e-05
11150.0 3.5922e-05
11170.0 3.5405e-05
11190.0 3.4924e-05
11210.0 3.4429e-05
11230.0 3.3918e-05
11250.0 3.3431e-05
11270.0 3.296e-05
11290.0 3.2469e-05
11310.0 3.1987e-05
11330.0 3.1554e-05
11350.0 3.112e-05
11370.0 3.0689e-05
11390.0 3.0293e-05
11410.0 2.992e-05
11430.0 2.953e-05
11450.0 2.916e-05
11470.0 2.8812e-05
11490.0 2.8453e-05
11510.0 2.8074e-05
11530.0 2.7709e-05
11550.0 2.7335e-05
11570.0 2.6923e-05
11590.0 2.6495e-05
11610.0 2.6066e-05
11630.0 2.5593e-05
11650.0 2.5082e-05
11670.0 2.4582e-05
11690.0 2.4067e-05
11710.0 2.3518e-05
11730.0 2.2972e-05
11750.0 2.2452e-05
11770.0 2.1913e-05
11790.0 2.1376e-05
11810.0 2.0877e-05
11830.0 2.0398e-05
11850.0 1.9912e-05
11870.0 1.947e-05
11890.0 1.9072e-05
11910.0 1.8683e-05
11930.0 1.8315e-05
11950.0 1.7989e-05
11970.0 1.7681e-05
11990.0 1.7377e-05
12010.0 1.7103e-05
12030.0 1.6854e-05
12050.0 1.6611e-05
12070.0 1.6377e-05
12090.0 1.6176e-05
12110.0 1.5986e-05
12130.0 1.5803e-05
12150.0 1.5644e-05
12170.0 1.5508e-05
12190.0 1.5381e-05
12210.0 1.528e-05
12230.0 1.5211e-05
12250.0 1.517e-05
12270.0 1.5159e-05
12290.0 1.5186e-05
12310.0 1.5252e-05
12330.0 1.5357e-05
12350.0 1.5506e-05
12370.0 1.5692e-05
12390.0 1.5919e-05
12410.0 1.6194e-05
12430.0 1.6492e-05
12450.0 1.6815e-05
12470.0 1.7168e-05
12490.0 1.7536e-05
12510.0 1.7898e-05
12530.0 1.8269e-05
12550.0 1.864e-05
12570.0 1.8988e-05
12590.0 1.9314e-05
12610.0 1.9626e-05
12630.0 1.9905e-05
12650.0 2.0142e-05
12670.0 2.035e-05
12690.0 2.0523e-05
12710.0 2.0656e-05
12730.0 2.0753e-05
12750.0 2.0814e-05
12770.0 2.0839e-05
12790.0 2.0833e-05
12810.0 2.0795e-05
12830.0 2.0724e-05
12850.0 2.0634e-05
12870.0 2.0523e-05
12890.0 2.0385e-05
12910.0 2.0233e-05
12930.0 2.0073e-05
12950.0 1.9891e-05
12970.0 1.9693e-05
12990.0 1.9496e-05
13010.0 1.9291e-05
13030.0 1.9067e-05
13050.0 1.884e-05
13070.0 1.8615e-05
13090.0 1.8373e-05
13110.0 1.8122e-05
13130.0 1.7878e-05
13150.0 1.7633e-05
13170.0 1.7376e-05
13190.0 1.7137e-05
13210.0 1.6918e-05
13230.0 1.6708e-05
13250.0 1.652e-05
13270.0 1.6367e-05
13290.0 1.6243e-05
13310.0 1.615e-05
13330.0 1.6098e-05
13350.0 1.6082e-05
13370.0 1.61e-05
13390.0 1.6149e-05
13410.0 1.6218e-05
13430.0 1.6302e-05
13450.0 1.6392e-05
13470.0 1.6476e-05
13490.0 1.6543e-05
13510.0 1.6589e-05
13530.0 1.6601e-05
13550.0 1.6576e-05
13570.0 1.651e-05
13590.0 1.6399e-05
13610.0 1.6252e-05
13630.0 1.6075e-05
13650.0 1.586e-05
13670.0 1.5621e-05
13690.0 1.5375e-05
13710.0 1.5115e-05
13730.0 1.484e-05
13750.0 1.4584e-05
13770.0 1.4339e-05
13790.0 1.4099e-05
13810.0 1.3876e-05
13830.0 1.3678e-05
13850.0 1.3491e-05
13870.0 1.3319e-05
13890.0 1.3169e-05
13910.0 1.3035e-05
13930.0 1.291e-05
13950.0 1.2799e-05
13970.0 1.2705e-05
13990.0 1.2617e-05
14010.0 1.2538e-05
14030.0 1.2468e-05
14050.0 1.2405e-05
14070.0 1.2345e-05
14090.0 1.2291e-05
14110.0 1.2243e-05
14130.0 1.2196e-05
14150.0 1.215e-05
14170.0 1.2107e-05
14190.0 1.2065e-05
14210.0 1.2023e-05
14230.0 1.1983e-05
14250.0 1.1944e-05
14270.0 1.1907e-05
14290.0 1.1872e-05
14310.0 1.1841e-05
14330.0 1.1814e-05
14350.0 1.1791e-05
14370.0 1.1772e-05
14390.0 1.1757e-05
14410.0 1.1746e-05
14430.0 1.1737e-05
14450.0 1.1729e-05
14470.0 1.1721e-05
14490.0 1.1713e-05
14510.0 1.1701e-05
14530.0 1.1687e-05
14550.0 1.1671e-05
14570.0 1.1653e-05
14590.0 1.1634e-05
14610.0 1.1616e-05
14630.0 1.16e-05
14650.0 1.159e-05
14670.0 1.1585e-05
14690.0 1.1591e-05
14710.0 1.161e-05
14730.0 1.164e-05
14750.0 1.1686e-05
14770.0 1.1752e-05
14790.0 1.1835e-05
14810.0 1.1932e-05
14830.0 1.206e-05
14850.0 1.2206e-05
14870.0 1.2364e-05
14890.0 1.254e-05
14910.0 1.2733e-05
14930.0 1.2921e-05
14950.0 1.3096e-05
14970.0 1.3262e-05
14990.0 1.3398e-05
15010.0 1.3495e-05
15030.0 1.3558e-05
15050.0 1.3589e-05
15070.0 1.3586e-05
15090.0 1.3562e-05
15110.0 1.3524e-05
15130.0 1.3476e-05
15150.0 1.3423e-05
15170.0 1.3368e-05
15190.0 1.331e-05
15210.0 1.3253e-05
15230.0 1.3195e-05
15250.0 1.3137e-05
15270.0 1.3078e-05
15290.0 1.302e-05
15310.0 1.2962e-05
15330.0 1.2903e-05
15350.0 1.2845e-05
15370.0 1.2787e-05
15390.0 1.2728e-05
15410.0 1.267e-05
15430.0 1.2612e-05
15450.0 1.2553e-05
15470.0 1.2495e-05
15490.0 1.2437e-05
15510.0 1.2379e-05
15530.0 1.232e-05
15550.0 1.2262e-05
15570.0 1.2205e-05
15590.0 1.2147e-05
15610.0 1.2088e-05
15630.0 1.2031e-05
15650.0 1.1973e-05
15670.0 1.1916e-05
15690.0 1.1858e-05
15710.0 1.1801e-05
15730.0 1.1744e-05
15750.0 1.1687e-05
15770.0 1.163e-05
15790.0 1.1574e-05
15810.0 1.1517e-05
15830.0 1.1461e-05
15850.0 1.1405e-05
15870.0 1.1349e-05
15890.0 1.1293e-05
15910.0 1.1238e-05
15930.0 1.1182e-05
15950.0 1.1127e-05
15970.0 1.1072e-05
15990.0 1.1017e-05
16010.0 1.0963e-05
16030.0 1.0908e-05
16050.0 1.0854e-05
16070.0 1.0801e-05
16090.0 1.0747e-05
16110.0 1.0693e-05
16130.0 1.0641e-05
16150.0 1.0587e-05
16170.0 1.0535e-05
16190.0 1.0482e-05
16210.0 1.043e-05
16230.0 1.0378e-05
16250.0 1.0327e-05
16270.0 1.0276e-05
16290.0 1.0224e-05
16310.0 1.0173e-05
16330.0 1.0123e-05
16350.0 1.0073e-05
16370.0 1.0022e-05
16390.0 9.9729e-06
16410.0 9.9237e-06
16430.0 9.8744e-06
16450.0 9.8255e-06
16470.0 9.7772e-06
16490.0 9.7288e-06
16510.0 9.6806e-06
16530.0 9.633e-06
16550.0 9.5858e-06
16570.0 9.5384e-06
16590.0 9.4914e-06
16610.0 9.4452e-06
16630.0 9.3989e-06
16650.0 9.3528e-06
16670.0 9.3074e-06
16690.0 9.2622e-06
16710.0 9.2168e-06
16730.0 9.1721e-06
16750.0 9.1278e-06
16770.0 9.0836e-06
16790.0 9.0395e-06
16810.0 8.9962e-06
16830.0 8.9531e-06
16850.0 8.9099e-06
16870.0 8.8673e-06
16890.0 8.8252e-06
16910.0 8.783e-06
16930.0 8.741e-06
16950.0 8.6997e-06
16970.0 8.6587e-06
16990.0 8.6176e-06
17010.0 8.5771e-06
17030.0 8.5371e-06
17050.0 8.497e-06
17070.0 8.4572e-06
17090.0 8.418e-06
17110.0 8.379e-06
17130.0 8.3399e-06
17150.0 8.3015e-06
17170.0 8.2635e-06
17190.0 8.2255e-06
17210.0 8.1878e-06
17230.0 8.1507e-06
17250.0 8.1137e-06
17270.0 8.0767e-06
17290.0 8.0403e-06
17310.0 8.0043e-06
17330.0 7.9682e-06
17350.0 7.9325e-06
17370.0 7.8974e-06
17390.0 7.8624e-06
17410.0 7.8275e-06
17430.0 7.7931e-06
17450.0 7.7591e-06
17470.0 7.7249e-06
17490.0 7.6911e-06
17510.0 7.6579e-06
17530.0 7.6248e-06
17550.0 7.5918e-06
17570.0 7.5593e-06
17590.0 7.5272e-06
17610.0 7.495e-06
17630.0 7.4631e-06
17650.0 7.4318e-06
17670.0 7.4005e-06
17690.0 7.3692e-06
17710.0 7.3386e-06
17730.0 7.3083e-06
17750.0 7.2779e-06
17770.0 7.2479e-06
17790.0 7.2184e-06
17810.0 7.1888e-06
17830.0 7.1594e-06
17850.0 7.1306e-06
17870.0 7.1019e-06
17890.0 7.0732e-06
17910.0 7.0449e-06
17930.0 7.0171e-06
17950.0 6.9893e-06
17970.0 6.9617e-06
17990.0 6.9345e-06
18010.0 6.9076e-06
18030.0 6.8804e-06
18050.0 6.8538e-06
18070.0 6.8276e-06
18090.0 6.8014e-06
18110.0 6.7753e-06
18130.0 6.7498e-06
18150.0 6.7244e-06
18170.0 6.699e-06
18190.0 6.6739e-06
18210.0 6.6493e-06
18230.0 6.6245e-06
18250.0 6.5999e-06
18270.0 6.5759e-06
18290.0 6.552e-06
18310.0 6.528e-06
18330.0 6.5045e-06
18350.0 6.4814e-06
18370.0 6.4581e-06
18390.0 6.435e-06
18410.0 6.4124e-06
18430.0 6.3898e-06
18450.0 6.3672e-06
18470.0 6.3451e-06
18490.0 6.3233e-06
18510.0 6.3014e-06
18530.0 6.2797e-06
18550.0 6.2585e-06
18570.0 6.2373e-06
18590.0 6.216e-06
18610.0 6.1952e-06
18630.0 6.1746e-06
18650.0 6.154e-06
18670.0 6.1336e-06
18690.0 6.1136e-06
18710.0 6.0937e-06
18730.0 6.0738e-06
18750.0 6.0542e-06
18770.0 6.0349e-06
18790.0 6.0154e-06
18810.0 5.9962e-06
18830.0 5.9774e-06
18850.0 5.9586e-06
18870.0 5.9398e-06
18890.0 5.9214e-06
18910.0 5.9033e-06
18930.0 5.885e-06
18950.0 5.8669e-06
18970.0 5.8493e-06
18990.0 5.8315e-06
19010.0 5.8137e-06
19030.0 5.7965e-06
19050.0 5.7793e-06
19070.0 5.7621e-06
19090.0 5.7452e-06
19110.0 5.7286e-06
19130.0 5.7118e-06
19150.0 5.6952e-06
19170.0 5.6789e-06
19190.0 5.6627e-06
19210.0 5.6465e-06
19230.0 5.6305e-06
19250.0 5.6148e-06
19270.0 5.5991e-06
19290.0 5.5834e-06
19310.0 5.5682e-06
19330.0 5.5529e-06
19350.0 5.5375e-06
19370.0 5.5225e-06
19390.0 5.5077e-06
19410.0 5.4928e-06
19430.0 5.478e-06
19450.0 5.4636e-06
19470.0 5.4493e-06
19490.0 5.4348e-06
19510.0 5.4207e-06
19530.0 5.4067e-06
19550.0 5.3926e-06
19570.0 5.3786e-06
19590.0 5.365e-06
19610.0 5.3515e-06
19630.0 5.3378e-06
19650.0 5.3245e-06
19670.0 5.3114e-06
19690.0 5.298e-06
19710.0 5.2849e-06
19730.0 5.272e-06
19750.0 5.2592e-06
19770.0 5.2462e-06
19790.0 5.2336e-06
19810.0 5.2211e-06
19830.0 5.2084e-06
19850.0 5.1956e-06
19870.0 5.1828e-06
19890.0 5.1689e-06
19910.0 5.153e-06
19930.0 5.1347e-06
19950.0 5.1123e-06
19970.0 5.0831e-06
19990.0 5.0459e-06
20010.0 5.0019e-06
20030.0 4.9476e-06
20050.0 4.8834e-06
20070.0 4.8136e-06
20090.0 4.7388e-06
20110.0 4.6551e-06
20130.0 4.5712e-06
20150.0 4.4889e-06
20170.0 4.4046e-06
20190.0 4.3199e-06
20210.0 4.2402e-06
20230.0 4.1626e-06
20250.0 4.0848e-06
20270.0 4.0121e-06
20290.0 3.9447e-06
20310.0 3.8796e-06
20330.0 3.8173e-06
20350.0 3.7636e-06
20370.0 3.714e-06
20390.0 3.6682e-06
20410.0 3.6285e-06
20430.0 3.595e-06
20450.0 3.5651e-06
20470.0 3.5407e-06
20490.0 3.522e-06
20510.0 3.5079e-06
20530.0 3.4981e-06
20550.0 3.4929e-06
20570.0 3.4915e-06
20590.0 3.4936e-06
20610.0 3.4989e-06
20630.0 3.5065e-06
20650.0 3.5162e-06
20670.0 3.5283e-06
20690.0 3.541e-06
20710.0 3.554e-06
20730.0 3.5677e-06
20750.0 3.5812e-06
20770.0 3.5932e-06
20790.0 3.6046e-06
20810.0 3.6148e-06
20830.0 3.6228e-06
20850.0 3.6288e-06
20870.0 3.6328e-06
20890.0 3.6342e-06
20910.0 3.6329e-06
20930.0 3.6291e-06
20950.0 3.6225e-06
20970.0 3.6135e-06
20990.0 3.6023e-06
21010.0 3.5881e-06
21030.0 3.5717e-06
21050.0 3.5539e-06
21070.0 3.534e-06
21090.0 3.5119e-06
21110.0 3.4895e-06
21130.0 3.4665e-06
21150.0 3.4422e-06
21170.0 3.4178e-06
21190.0 3.3943e-06
21210.0 3.3704e-06
21230.0 3.3467e-06
21250.0 3.3249e-06
21270.0 3.3044e-06
21290.0 3.2848e-06
21310.0 3.2671e-06
21330.0 3.252e-06
21350.0 3.2383e-06
21370.0 3.2267e-06
21390.0 3.2175e-06
21410.0 3.2106e-06
21430.0 3.2058e-06
21450.0 3.2034e-06
21470.0 3.2032e-06
21490.0 3.2052e-06
21510.0 3.2094e-06
21530.0 3.2154e-06
21550.0 3.2233e-06
21570.0 3.2335e-06
21590.0 3.2451e-06
21610.0 3.2581e-06
21630.0 3.273e-06
21650.0 3.2899e-06
21670.0 3.3069e-06
21690.0 3.3253e-06
21710.0 3.3454e-06
21730.0 3.3659e-06
21750.0 3.3864e-06
21770.0 3.4088e-06
21790.0 3.4315e-06
21810.0 3.4536e-06
21830.0 3.4761e-06
21850.0 3.4992e-06
21870.0 3.5215e-06
21890.0 3.5426e-06
21910.0 3.564e-06
21930.0 3.5847e-06
21950.0 3.6036e-06
21970.0 3.6218e-06
21990.0 3.6394e-06
22010.0 3.6546e-06
22030.0 3.6681e-06
22050.0 3.6801e-06
22070.0 3.6901e-06
22090.0 3.6976e-06
22110.0 3.7031e-06
22130.0 3.7061e-06
22150.0 3.7066e-06
22170.0 3.7045e-06
22190.0 3.6995e-06
22210.0 3.6915e-06
22230.0 3.6813e-06
22250.0 3.668e-06
22270.0 3.6515e-06
22290.0 3.6329e-06
22310.0 3.612e-06
22330.0 3.5873e-06
22350.0 3.5604e-06
22370.0 3.5321e-06
22390.0 3.501e-06
22410.0 3.4668e-06
22430.0 3.4324e-06
22450.0 3.3966e-06
22470.0 3.3581e-06
22490.0 3.3189e-06
22510.0 3.2801e-06
22530.0 3.239e-06
22550.0 3.1966e-06
22570.0 3.1559e-06
22590.0 3.1153e-06
22610.0 3.0735e-06
