#lamb flux
1010.0 1.209e-06
1030.0 1.2872e-06
1050.0 1.3775e-06
1070.0 1.4792e-06
1090.0 1.5948e-06
1110.0 1.7137e-06
1130.0 1.8337e-06
1150.0 1.9597e-06
1170.0 2.0901e-06
1190.0 2.2143e-06
1210.0 2.3406e-06
1230.0 2.4715e-06
1250.0 2.6005e-06
1270.0 2.7264e-06
1290.0 2.8599e-06
1310.0 2.9939e-06
1330.0 3.1234e-06
1350.0 3.255e-06
1370.0 3.3915e-06
1390.0 3.5255e-06
1410.0 3.6566e-06
1430.0 3.7942e-06
1450.0 3.9326e-06
1470.0 4.0674e-06
1490.0 4.2045e-06
1510.0 4.3496e-06
1530.0 4.4882e-06
1550.0 4.6258e-06
1570.0 4.7684e-06
1590.0 4.9116e-06
1610.0 5.0492e-06
1630.0 5.1909e-06
1650.0 5.3362e-06
1670.0 5.4769e-06
1690.0 5.6156e-06
1710.0 5.7588e-06
1730.0 5.902e-06
1750.0 6.0361e-06
1770.0 6.1728e-06
1790.0 6.3108e-06
1810.0 6.4427e-06
1830.0 6.5705e-06
1850.0 6.704e-06
1870.0 6.8317e-06
1890.0 6.9523e-06
1910.0 7.0728e-06
1930.0 7.1936e-06
1950.0 7.3053e-06
1970.0 7.4123e-06
1990.0 7.521e-06
2010.0 7.6242e-06
2030.0 7.7198e-06
2050.0 7.816e-06
2070.0 7.9123e-06
2090.0 7.9983e-06
2110.0 8.0813e-06
2130.0 8.1655e-06
2150.0 8.2449e-06
2170.0 8.3171e-06
2190.0 8.3921e-06
2210.0 8.4665e-06
2230.0 8.535e-06
2250.0 8.6024e-06
2270.0 8.6747e-06
2290.0 8.7434e-06
2310.0 8.8079e-06
2330.0 8.8769e-06
2350.0 8.9481e-06
2370.0 9.0163e-06
2390.0 9.0877e-06
2410.0 9.1667e-06
2430.0 9.2451e-06
2450.0 9.3247e-06
2470.0 9.4128e-06
2490.0 9.5128e-06
2510.0 9.6267e-06
2530.0 9.7873e-06
2550.0 1.0048e-05
2570.0 1.0468e-05
2590.0 1.1119e-05
2610.0 1.2179e-05
2630.0 1.3706e-05
2650.0 1.5634e-05
2670.0 1.7995e-05
2690.0 2.072e-05
2710.0 2.3465e-05
2730.0 2.6055e-05
2750.0 2.8535e-05
2770.0 3.0698e-05
2790.0 3.2512e-05
2810.0 3.4134e-05
2830.0 3.5685e-05
2850.0 3.71e-05
2870.0 3.8509e-05
2890.0 4.0001e-05
2910.0 4.1548e-05
2930.0 4.3104e-05
2950.0 4.477e-05
2970.0 4.6535e-05
2990.0 4.8315e-05
3010.0 0.00017096
3030.0 0.00017749
3050.0 0.00018398
3070.0 0.00018984
3090.0 0.00019481
3110.0 0.00019751
3130.0 0.00019634
3150.0 0.00018956
3170.0 0.00017366
3190.0 0.00014834
3210.0 0.00011408
3230.0 7.5629e-05
3250.0 0.00011594
3270.0 7.2508e-05
3290.0 0.0001669
3310.0 6.5795e-05
3330.0 6.5134e-05
3350.0 7.8007e-05
3370.0 9.3405e-05
3390.0 0.00011024
3410.0 0.00012711
3430.0 0.00014489
3450.0 0.00016284
3470.0 0.00017939
3490.0 0.00019099
3510.0 0.00022933
3530.0 0.00029697
3550.0 0.00028929
3570.0 0.00023855
3590.0 0.00032291
3610.0 0.00020898
3630.0 0.00034032
3650.0 0.00039641
3670.0 0.00050405
3690.0 0.000468
3710.0 0.00031338
3730.0 0.00040445
3750.0 0.00041414
3770.0 0.00044448
3790.0 0.00043131
3810.0 0.00044401
3830.0 0.00069784
3850.0 0.0008566
3870.0 0.0010563
3890.0 0.0010266
3910.0 0.00091751
3930.0 0.00092933
3950.0 0.0010038
3970.0 0.0011068
3990.0 0.0007097
4010.0 0.00038417
4030.0 0.00068315
4050.0 0.00090363
4070.0 0.0009667
4090.0 0.00067617
4110.0 0.00042799
4130.0 0.00070391
4150.0 0.00071865
4170.0 0.00066894
4190.0 0.00060699
4210.0 0.00085914
4230.0 0.00063295
4250.0 0.00068576
4270.0 0.00068128
4290.0 0.00064547
4310.0 0.00082744
4330.0 0.0008941
4350.0 0.00074495
4370.0 0.00062888
4390.0 0.00076646
4410.0 0.00078498
4430.0 0.00057717
4450.0 0.0005237
4470.0 0.00064721
4490.0 0.00049517
4510.0 0.00069119
4530.0 0.00071835
4550.0 0.00085249
4570.0 0.0012018
4590.0 0.0011885
4610.0 0.00094237
4630.0 0.0015039
4650.0 0.0020042
4670.0 0.0019113
4690.0 0.0013516
4710.0 0.0014332
4730.0 0.0016235
4750.0 0.0013374
4770.0 0.0010224
4790.0 0.00069004
4810.0 0.00094187
4830.0 0.0011093
4850.0 0.00097505
4870.0 0.00040989
4890.0 0.0011064
4910.0 0.0014506
4930.0 0.0015766
4950.0 0.0016246
4970.0 0.0011412
4990.0 0.001328
5010.0 0.0015425
5030.0 0.0016533
5050.0 0.0015435
5070.0 0.0010915
5090.0 0.00088554
5110.0 0.00085607
5130.0 0.00081338
5150.0 0.00084723
5170.0 0.00075601
5190.0 0.00090134
5210.0 0.00091449
5230.0 0.0010113
5250.0 0.0011989
5270.0 0.00099236
5290.0 0.0010303
5310.0 0.0015118
5330.0 0.001735
5350.0 0.0014536
5370.0 0.0013047
5390.0 0.0015112
5410.0 0.0018002
5430.0 0.0019144
5450.0 0.0020101
5470.0 0.00202
5490.0 0.0020765
5510.0 0.0024809
5530.0 0.0025722
5550.0 0.0027109
5570.0 0.002841
5590.0 0.0027869
5610.0 0.0026043
5630.0 0.0025375
5650.0 0.0026192
5670.0 0.0025541
5690.0 0.0021823
5710.0 0.0021544
5730.0 0.0021533
5750.0 0.0022345
5770.0 0.0019206
5790.0 0.0018283
5810.0 0.0018692
5830.0 0.002013
5850.0 0.0018702
5870.0 0.0018752
5890.0 0.002182
5910.0 0.0020313
5930.0 0.0016738
5950.0 0.0015087
5970.0 0.0016405
5990.0 0.0014862
6010.0 0.0013571
6030.0 0.0013308
6050.0 0.0012189
6070.0 0.00094444
6090.0 0.00089817
6110.0 0.0011523
6130.0 0.0012931
6150.0 0.0013356
6170.0 0.0012989
6190.0 0.0012389
6210.0 0.0012917
6230.0 0.0015675
6250.0 0.0014484
6270.0 0.0013023
6290.0 0.0011838
6310.0 0.0010722
6330.0 0.00099464
6350.0 0.00088898
6370.0 0.00090103
6390.0 0.0010485
6410.0 0.0013018
6430.0 0.0015388
6450.0 0.0015447
6470.0 0.001562
6490.0 0.0019076
6510.0 0.0021901
6530.0 0.0020811
6550.0 0.0019747
6570.0 0.0020031
6590.0 0.0019743
6610.0 0.0020897
6630.0 0.0019486
6650.0 0.0016931
6670.0 0.0015618
6690.0 0.0015483
6710.0 0.0018327
6730.0 0.0016318
6750.0 0.0013422
6770.0 0.0012116
6790.0 0.0012872
6810.0 0.0014782
6830.0 0.0014713
6850.0 0.0013196
6870.0 0.0013668
6890.0 0.0013583
6910.0 0.0012766
6930.0 0.0014173
6950.0 0.0013184
6970.0 0.0012282
6990.0 0.0012243
7010.0 0.0012333
7030.0 0.001198
7050.0 0.0011471
7070.0 0.0012303
7090.0 0.0011459
7110.0 0.00097158
7130.0 0.00083453
7150.0 0.00081952
7170.0 0.0010347
7190.0 0.001097
7210.0 0.0010402
7230.0 0.0010939
7250.0 0.0010625
7270.0 0.0010364
7290.0 0.0011228
7310.0 0.0012307
7330.0 0.0011991
7350.0 0.0011125
7370.0 0.0010292
7390.0 0.0010322
7410.0 0.001186
7430.0 0.0013354
7450.0 0.0014218
7470.0 0.0014421
7490.0 0.0016042
7510.0 0.0015864
7530.0 0.0014386
7550.0 0.0013638
7570.0 0.0011804
7590.0 0.0011254
7610.0 0.0010886
7630.0 0.0010043
7650.0 0.0010805
7670.0 0.0011987
7690.0 0.0013069
7710.0 0.0014933
7730.0 0.0015685
7750.0 0.001632
7770.0 0.0016988
7790.0 0.0018453
7810.0 0.0018615
7830.0 0.0016729
7850.0 0.001682
7870.0 0.0016218
7890.0 0.0016628
7910.0 0.0015682
7930.0 0.0015589
7950.0 0.0013108
7970.0 0.0013168
7990.0 0.0012743
8010.0 0.0013862
8030.0 0.001382
8050.0 0.0014698
8070.0 0.0014117
8090.0 0.0014191
8110.0 0.0013986
8130.0 0.0013841
8150.0 0.0013009
8170.0 0.0012774
8190.0 0.0012751
8210.0 0.0012886
8230.0 0.0011281
8250.0 0.0010322
8270.0 0.000913
8290.0 0.00077687
8310.0 0.00068488
8330.0 0.00054292
8350.0 0.0004399
8370.0 0.00042504
8390.0 0.00041238
8410.0 0.0004319
8430.0 0.00055594
8450.0 0.0006059
8470.0 0.0006526
8490.0 0.00076423
8510.0 0.00083225
8530.0 0.00094703
8550.0 0.001121
8570.0 0.0012322
8590.0 0.0012969
8610.0 0.0014414
8630.0 0.0016408
8650.0 0.0016843
8670.0 0.0017206
8690.0 0.0017866
8710.0 0.001753
8730.0 0.0016987
8750.0 0.0015663
8770.0 0.0015677
8790.0 0.0015464
8810.0 0.001423
8830.0 0.0014255
8850.0 0.0013063
8870.0 0.0012463
8890.0 0.0011172
8910.0 0.001246
8930.0 0.0011277
8950.0 0.0011312
8970.0 0.0011558
8990.0 0.0011231
9010.0 0.0011537
9030.0 0.0010952
9050.0 0.0010899
9070.0 0.0010904
9090.0 0.0010906
9110.0 0.0010916
9130.0 0.0010916
9150.0 0.0010909
9170.0 0.0010874
9190.0 0.0010794
9210.0 0.0010965
9230.0 0.0010916
9250.0 0.0010889
9270.0 0.0010865
9290.0 0.0010844
9310.0 0.0010825
9330.0 0.0010805
9350.0 0.0010787
9370.0 0.0010767
9390.0 0.0010746
9410.0 0.0010725
9430.0 0.0010703
9450.0 0.001068
9470.0 0.0010656
9490.0 0.0010632
9510.0 0.0010607
9530.0 0.0010581
9550.0 0.0010556
9570.0 0.0010529
9590.0 0.0010503
9610.0 0.0010476
9630.0 0.0010449
9650.0 0.0010421
9670.0 0.0010394
9690.0 0.0010366
9710.0 0.0010339
9730.0 0.0010311
9750.0 0.0010284
9770.0 0.0010257
9790.0 0.001023
9810.0 0.0010203
9830.0 0.0010177
9850.0 0.0010152
9870.0 0.0010125
9890.0 0.00101
9910.0 0.0010076
9930.0 0.0010051
9950.0 0.0010011
9970.0 0.00099929
9990.0 0.00099746
10010.0 0.00099551
10030.0 0.00099354
10050.0 0.00099121
10070.0 0.00098698
10090.0 0.00098581
10110.0 0.00098461
10130.0 0.00098326
10150.0 0.00098184
10170.0 0.00098034
10190.0 0.00097875
10210.0 0.00097727
10230.0 0.00097586
10250.0 0.00097443
10270.0 0.00097308
10290.0 0.00097187
10310.0 0.00097066
10330.0 0.00096948
10350.0 0.00096845
10370.0 0.00096749
10390.0 0.00096655
10410.0 0.00096569
10430.0 0.00096497
10450.0 0.00096426
10470.0 0.00096359
10490.0 0.00096304
10510.0 0.00096256
10530.0 0.00096207
10550.0 0.00096168
10570.0 0.0009614
10590.0 0.00096114
10610.0 0.00096093
10630.0 0.00096082
10650.0 0.00096077
10670.0 0.00096072
10690.0 0.00096076
10710.0 0.00096088
10730.0 0.00096103
10750.0 0.00096119
10770.0 0.00096148
10790.0 0.00096179
10810.0 0.00096212
10830.0 0.00096247
10850.0 0.00096282
10870.0 0.00096297
10890.0 0.00096275
10910.0 0.00096194
10930.0 0.00096001
10950.0 0.00095617
10970.0 0.00095
10990.0 0.00094129
11010.0 0.0009576
11030.0 0.00094089
11050.0 0.00092127
11070.0 0.00089854
11090.0 0.00087219
11110.0 0.0008459
11130.0 0.00081961
11150.0 0.00079268
11170.0 0.00076651
11190.0 0.00074269
11210.0 0.00071971
11230.0 0.00069785
11250.0 0.0006785
11270.0 0.00066123
11290.0 0.00064507
11310.0 0.00063068
11330.0 0.00061856
11350.0 0.00060736
11370.0 0.00059694
11390.0 0.00058757
11410.0 0.00057876
11430.0 0.00056959
11450.0 0.00056052
11470.0 0.00055146
11490.0 0.0005418
11510.0 0.00053129
11530.0 0.00052072
11550.0 0.00050975
11570.0 0.00049785
11590.0 0.00048568
11610.0 0.00047365
11630.0 0.00046097
11650.0 0.00044788
11670.0 0.00043545
11690.0 0.00042316
11710.0 0.00041068
11730.0 0.00039865
11750.0 0.00038748
11770.0 0.00037627
11790.0 0.00036536
11810.0 0.00035529
11830.0 0.00034568
11850.0 0.000336
11870.0 0.00032705
11890.0 0.00031877
11910.0 0.00031055
11930.0 0.00030254
11950.0 0.0002951
11970.0 0.00028781
11990.0 0.0002804
12010.0 0.00027337
12030.0 0.00026669
12050.0 0.00025997
12070.0 0.00025334
12090.0 0.00024741
12110.0 0.0002417
12130.0 0.00023622
12150.0 0.00023138
12170.0 0.00022724
12190.0 0.0002235
12210.0 0.00022062
12230.0 0.00021873
12250.0 0.00021772
12270.0 0.00021772
12290.0 0.00021882
12310.0 0.0002209
12330.0 0.00022408
12350.0 0.00022828
12370.0 0.00023321
12390.0 0.00023892
12410.0 0.00024556
12430.0 0.00025228
12450.0 0.00025914
12470.0 0.00026625
12490.0 0.00027321
12510.0 0.0002796
12530.0 0.00028577
12550.0 0.00029152
12570.0 0.00029651
12590.0 0.00030083
12610.0 0.00030463
12630.0 0.00030772
12650.0 0.00031006
12670.0 0.00031187
12690.0 0.00031311
12710.0 0.00031382
12730.0 0.00031407
12750.0 0.00031386
12770.0 0.00031326
12790.0 0.00031234
12810.0 0.00031105
12830.0 0.00030935
12850.0 0.00030744
12870.0 0.00030523
12890.0 0.00030257
12910.0 0.00029958
12930.0 0.00029636
12950.0 0.00029261
12970.0 0.00028835
12990.0 0.00028395
13010.0 0.00027919
13030.0 0.00027392
13050.0 0.00026846
13070.0 0.00026304
13090.0 0.00025724
13110.0 0.00025136
13130.0 0.00024576
13150.0 0.00024033
13170.0 0.00023488
13190.0 0.00023005
13210.0 0.00022584
13230.0 0.00022203
13250.0 0.00021881
13270.0 0.00021637
13290.0 0.00021451
13310.0 0.0002132
13330.0 0.00021253
13350.0 0.00021235
13370.0 0.00021254
13390.0 0.00021301
13410.0 0.0002136
13430.0 0.0002142
13450.0 0.00021469
13470.0 0.00021496
13490.0 0.00021495
13510.0 0.00021456
13530.0 0.00021378
13550.0 0.00021268
13570.0 0.00021123
13590.0 0.00020943
13610.0 0.00020748
13630.0 0.00020545
13650.0 0.00020325
13670.0 0.00020107
13690.0 0.00019903
13710.0 0.00019705
13730.0 0.00019513
13750.0 0.00019346
13770.0 0.00019194
13790.0 0.00019049
13810.0 0.00018914
13830.0 0.0001879
13850.0 0.00018664
13870.0 0.00018533
13890.0 0.00018401
13910.0 0.00018263
13930.0 0.00018111
13950.0 0.00017951
13970.0 0.00017792
13990.0 0.00017624
14010.0 0.00017451
14030.0 0.00017286
14050.0 0.00017128
14070.0 0.00016972
14090.0 0.00016832
14110.0 0.0001671
14130.0 0.00016603
14150.0 0.00016512
14170.0 0.00016442
14190.0 0.00016389
14210.0 0.00016353
14230.0 0.00016335
14250.0 0.00016333
14270.0 0.00016349
14290.0 0.00016384
14310.0 0.00016432
14330.0 0.00016496
14350.0 0.00016578
14370.0 0.00016672
14390.0 0.00016773
14410.0 0.00016888
14430.0 0.00017011
14450.0 0.00017132
14470.0 0.00017255
14490.0 0.00017385
14510.0 0.00017508
14530.0 0.00017625
14550.0 0.00017746
14570.0 0.00017871
14590.0 0.00017993
14610.0 0.00018126
14630.0 0.0001828
14650.0 0.00018446
14670.0 0.00018628
14690.0 0.00018844
14710.0 0.00019095
14730.0 0.00019356
14750.0 0.00019654
14770.0 0.00019991
14790.0 0.00020345
14810.0 0.0002071
14830.0 0.00021121
14850.0 0.00021536
14870.0 0.00021934
14890.0 0.00022333
14910.0 0.00022724
14930.0 0.00023066
14950.0 0.00023357
14970.0 0.00023607
14990.0 0.00023787
15010.0 0.00023895
15030.0 0.00023944
15050.0 0.00023939
15070.0 0.00023887
15090.0 0.00023805
15110.0 0.00023702
15130.0 0.00023587
15150.0 0.00023468
15170.0 0.00023343
15190.0 0.00023216
15210.0 0.00023091
15230.0 0.00022965
15250.0 0.00022838
15270.0 0.00022712
15290.0 0.00022588
15310.0 0.00022463
15330.0 0.00022337
15350.0 0.00022214
15370.0 0.00022091
15390.0 0.00021966
15410.0 0.00021842
15430.0 0.0002172
15450.0 0.00021598
15470.0 0.00021475
15490.0 0.00021354
15510.0 0.00021234
15530.0 0.00021113
15550.0 0.00020993
15570.0 0.00020875
15590.0 0.00020755
15610.0 0.00020636
15630.0 0.00020519
15650.0 0.00020402
15670.0 0.00020285
15690.0 0.00020169
15710.0 0.00020055
15730.0 0.0001994
15750.0 0.00019825
15770.0 0.00019712
15790.0 0.000196
15810.0 0.00019485
15830.0 0.00019374
15850.0 0.00019264
15870.0 0.00019154
15890.0 0.00019043
15910.0 0.00018936
15930.0 0.00018828
15950.0 0.00018718
15970.0 0.00018612
15990.0 0.00018506
16010.0 0.000184
16030.0 0.00018294
16050.0 0.00018191
16070.0 0.00018087
16090.0 0.00017984
16110.0 0.00017882
16130.0 0.00017782
16150.0 0.00017679
16170.0 0.00017578
16190.0 0.00017479
16210.0 0.00017381
16230.0 0.00017281
16250.0 0.00017184
16270.0 0.00017089
16290.0 0.00016991
16310.0 0.00016895
16330.0 0.00016802
16350.0 0.00016707
16370.0 0.00016612
16390.0 0.0001652
16410.0 0.00016428
16430.0 0.00016336
16450.0 0.00016244
16470.0 0.00016155
16490.0 0.00016065
16510.0 0.00015975
16530.0 0.00015887
16550.0 0.00015799
16570.0 0.00015711
16590.0 0.00015623
16610.0 0.00015539
16630.0 0.00015453
16650.0 0.00015367
16670.0 0.00015284
16690.0 0.00015201
16710.0 0.00015116
16730.0 0.00015033
16750.0 0.00014952
16770.0 0.0001487
16790.0 0.00014788
16810.0 0.00014708
16830.0 0.00014629
16850.0 0.00014549
16870.0 0.0001447
16890.0 0.00014393
16910.0 0.00014314
16930.0 0.00014235
16950.0 0.00014159
16970.0 0.00014083
16990.0 0.00014006
17010.0 0.00013931
17030.0 0.00013858
17050.0 0.00013782
17070.0 0.00013708
17090.0 0.00013635
17110.0 0.00013562
17130.0 0.00013488
17150.0 0.00013416
17170.0 0.00013345
17190.0 0.00013273
17210.0 0.00013202
17230.0 0.00013133
17250.0 0.00013063
17270.0 0.00012992
17290.0 0.00012923
17310.0 0.00012855
17330.0 0.00012786
17350.0 0.00012717
17370.0 0.00012651
17390.0 0.00012584
17410.0 0.00012516
17430.0 0.0001245
17450.0 0.00012385
17470.0 0.00012318
17490.0 0.00012252
17510.0 0.00012188
17530.0 0.00012123
17550.0 0.00012058
17570.0 0.00011994
17590.0 0.00011932
17610.0 0.00011868
17630.0 0.00011804
17650.0 0.00011743
17670.0 0.00011681
17690.0 0.00011617
17710.0 0.00011556
17730.0 0.00011495
17750.0 0.00011434
17770.0 0.00011373
17790.0 0.00011314
17810.0 0.00011253
17830.0 0.00011192
17850.0 0.00011134
17870.0 0.00011075
17890.0 0.00011015
17910.0 0.00010956
17930.0 0.00010899
17950.0 0.00010841
17970.0 0.00010782
17990.0 0.00010726
18010.0 0.00010669
18030.0 0.00010611
18050.0 0.00010554
18070.0 0.00010499
18090.0 0.00010442
18110.0 0.00010385
18130.0 0.00010331
18150.0 0.00010276
18170.0 0.0001022
18190.0 0.00010165
18210.0 0.00010112
18230.0 0.00010057
18250.0 0.00010002
18270.0 9.9489e-05
18290.0 9.8957e-05
18310.0 9.8415e-05
18330.0 9.7887e-05
18350.0 9.7372e-05
18370.0 9.6837e-05
18390.0 9.6308e-05
18410.0 9.5796e-05
18430.0 9.5279e-05
18450.0 9.4747e-05
18470.0 9.4236e-05
18490.0 9.3735e-05
18510.0 9.322e-05
18530.0 9.2709e-05
18550.0 9.2216e-05
18570.0 9.1713e-05
18590.0 9.1199e-05
18610.0 9.0704e-05
18630.0 9.0215e-05
18650.0 8.9713e-05
18670.0 8.9213e-05
18690.0 8.8738e-05
18710.0 8.8251e-05
18730.0 8.7757e-05
18750.0 8.7279e-05
18770.0 8.6809e-05
18790.0 8.6313e-05
18810.0 8.5832e-05
18830.0 8.5367e-05
18850.0 8.4893e-05
18870.0 8.4412e-05
18890.0 8.3951e-05
18910.0 8.3492e-05
18930.0 8.3018e-05
18950.0 8.2553e-05
18970.0 8.2101e-05
18990.0 8.164e-05
19010.0 8.1165e-05
19030.0 8.0719e-05
19050.0 8.0272e-05
19070.0 7.9813e-05
19090.0 7.9363e-05
19110.0 7.8929e-05
19130.0 7.8476e-05
19150.0 7.8023e-05
19170.0 7.7587e-05
19190.0 7.7151e-05
19210.0 7.6701e-05
19230.0 7.6261e-05
19250.0 7.5839e-05
19270.0 7.5402e-05
19290.0 7.4965e-05
19310.0 7.4544e-05
19330.0 7.4121e-05
19350.0 7.3678e-05
19370.0 7.3254e-05
19390.0 7.284e-05
19410.0 7.2414e-05
19430.0 7.1985e-05
19450.0 7.1578e-05
19470.0 7.1166e-05
19490.0 7.0742e-05
19510.0 7.0331e-05
19530.0 6.9929e-05
19550.0 6.9509e-05
19570.0 6.909e-05
19590.0 6.8693e-05
19610.0 6.829e-05
19630.0 6.7878e-05
19650.0 6.7479e-05
19670.0 6.709e-05
19690.0 6.6681e-05
19710.0 6.6278e-05
19730.0 6.589e-05
19750.0 6.5496e-05
19770.0 6.5087e-05
19790.0 6.4699e-05
19810.0 6.4317e-05
19830.0 6.3919e-05
19850.0 6.3522e-05
19870.0 6.3135e-05
19890.0 6.2719e-05
19910.0 6.2263e-05
19930.0 6.178e-05
19950.0 6.1234e-05
19970.0 6.0569e-05
19990.0 5.9784e-05
20010.0 5.8912e-05
20030.0 5.7884e-05
20050.0 5.6717e-05
20070.0 5.5501e-05
20090.0 5.4245e-05
20110.0 5.2888e-05
20130.0 5.1585e-05
20150.0 5.0361e-05
20170.0 4.9156e-05
20190.0 4.8e-05
20210.0 4.6966e-05
20230.0 4.601e-05
20250.0 4.5101e-05
20270.0 4.4305e-05
20290.0 4.362e-05
20310.0 4.301e-05
20330.0 4.2485e-05
20350.0 4.2096e-05
20370.0 4.18e-05
20390.0 4.1599e-05
20410.0 4.1509e-05
20430.0 4.1522e-05
20450.0 4.1641e-05
20470.0 4.1872e-05
20490.0 4.2198e-05
20510.0 4.2624e-05
20530.0 4.3166e-05
20550.0 4.3787e-05
20570.0 4.4463e-05
20590.0 4.5235e-05
20610.0 4.6068e-05
20630.0 4.6915e-05
20650.0 4.7797e-05
20670.0 4.8735e-05
20690.0 4.9627e-05
20710.0 5.0483e-05
20730.0 5.1331e-05
20750.0 5.2134e-05
20770.0 5.2845e-05
20790.0 5.3511e-05
20810.0 5.4128e-05
20830.0 5.4662e-05
20850.0 5.513e-05
20870.0 5.5561e-05
20890.0 5.5941e-05
20910.0 5.6263e-05
20930.0 5.6559e-05
20950.0 5.6834e-05
20970.0 5.7076e-05
20990.0 5.7295e-05
21010.0 5.7501e-05
21030.0 5.7679e-05
21050.0 5.7824e-05
21070.0 5.7939e-05
21090.0 5.8017e-05
21110.0 5.8049e-05
21130.0 5.8039e-05
21150.0 5.7982e-05
21170.0 5.7879e-05
21190.0 5.7738e-05
21210.0 5.7552e-05
21230.0 5.7324e-05
21250.0 5.7076e-05
21270.0 5.6806e-05
21290.0 5.651e-05
21310.0 5.6207e-05
21330.0 5.5915e-05
21350.0 5.5616e-05
21370.0 5.5323e-05
21390.0 5.5053e-05
21410.0 5.4804e-05
21430.0 5.4564e-05
21450.0 5.4359e-05
21470.0 5.4189e-05
21490.0 5.4044e-05
21510.0 5.393e-05
21530.0 5.3854e-05
21550.0 5.3809e-05
21570.0 5.3799e-05
21590.0 5.3825e-05
21610.0 5.3885e-05
21630.0 5.3984e-05
21650.0 5.4125e-05
21670.0 5.4295e-05
21690.0 5.4504e-05
21710.0 5.4761e-05
21730.0 5.5053e-05
21750.0 5.5375e-05
21770.0 5.5759e-05
21790.0 5.6184e-05
21810.0 5.6636e-05
21830.0 5.7131e-05
21850.0 5.7686e-05
21870.0 5.8264e-05
21890.0 5.8858e-05
21910.0 5.9508e-05
21930.0 6.0187e-05
21950.0 6.0866e-05
21970.0 6.1571e-05
21990.0 6.2323e-05
22010.0 6.3045e-05
22030.0 6.3754e-05
22050.0 6.4475e-05
22070.0 6.5177e-05
22090.0 6.5821e-05
22110.0 6.6444e-05
22130.0 6.7036e-05
22150.0 6.7554e-05
22170.0 6.8003e-05
22190.0 6.8398e-05
22210.0 6.8705e-05
22230.0 6.8911e-05
22250.0 6.903e-05
22270.0 6.9049e-05
22290.0 6.8964e-05
22310.0 6.8779e-05
22330.0 6.8473e-05
22350.0 6.8061e-05
22370.0 6.7558e-05
22390.0 6.6943e-05
22410.0 6.6203e-05
22430.0 6.5407e-05
22450.0 6.4536e-05
22470.0 6.3556e-05
22490.0 6.2519e-05
22510.0 6.1466e-05
22530.0 6.0321e-05
22550.0 5.9118e-05
22570.0 5.7943e-05
22590.0 5.6755e-05
22610.0 5.5521e-05
22630.0 5.431e-05
22650.0 5.3164e-05
22670.0 5.1996e-05
22690.0 5.0845e-05
22710.0 4.9769e-05
22730.0 4.8734e-05
22750.0 4.7687e-05
22770.0 4.6731e-05
22790.0 4.5853e-05
22810.0 4.5003e-05
22830.0 4.4203e-05
22850.0 4.3496e-05
