#lamb flux
1010.0 7.9855e-06
1030.0 8.687e-06
1050.0 9.5151e-06
1070.0 1.0447e-05
1090.0 1.15e-05
1110.0 1.2581e-05
1130.0 1.367e-05
1150.0 1.4811e-05
1170.0 1.5988e-05
1190.0 1.7103e-05
1210.0 1.823e-05
1230.0 1.9393e-05
1250.0 2.0529e-05
1270.0 2.1628e-05
1290.0 2.2784e-05
1310.0 2.3934e-05
1330.0 2.503e-05
1350.0 2.6135e-05
1370.0 2.7271e-05
1390.0 2.8376e-05
1410.0 2.9444e-05
1430.0 3.0561e-05
1450.0 3.1679e-05
1470.0 3.2759e-05
1490.0 3.3854e-05
1510.0 3.5016e-05
1530.0 3.612e-05
1550.0 3.7215e-05
1570.0 3.8353e-05
1590.0 3.9499e-05
1610.0 4.0601e-05
1630.0 4.1747e-05
1650.0 4.2928e-05
1670.0 4.4079e-05
1690.0 4.5222e-05
1710.0 4.6413e-05
1730.0 4.7614e-05
1750.0 4.875e-05
1770.0 4.9919e-05
1790.0 5.1109e-05
1810.0 5.226e-05
1830.0 5.3386e-05
1850.0 5.4571e-05
1870.0 5.5714e-05
1890.0 5.6805e-05
1910.0 5.7901e-05
1930.0 5.9004e-05
1950.0 6.0032e-05
1970.0 6.1022e-05
1990.0 6.2027e-05
2010.0 6.2986e-05
2030.0 6.3876e-05
2050.0 6.477e-05
2070.0 6.5663e-05
2090.0 6.6463e-05
2110.0 6.7235e-05
2130.0 6.8013e-05
2150.0 6.8748e-05
2170.0 6.9417e-05
2190.0 7.0106e-05
2210.0 7.0785e-05
2230.0 7.1409e-05
2250.0 7.2018e-05
2270.0 7.2664e-05
2290.0 7.327e-05
2310.0 7.383e-05
2330.0 7.4418e-05
2350.0 7.5015e-05
2370.0 7.5572e-05
2390.0 7.6146e-05
2410.0 7.678e-05
2430.0 7.7403e-05
2450.0 7.8032e-05
2470.0 7.873e-05
2490.0 7.9509e-05
2510.0 8.0338e-05
2530.0 8.1432e-05
2550.0 8.3111e-05
2570.0 8.5711e-05
2590.0 8.9675e-05
2610.0 9.6142e-05
2630.0 0.00010548
2650.0 0.0001173
2670.0 0.00013183
2690.0 0.00014858
2710.0 0.00016519
2730.0 0.00018023
2750.0 0.00019337
2770.0 0.00020269
2790.0 0.00020767
2810.0 0.00020874
2830.0 0.00020601
2850.0 0.00020055
2870.0 0.00019329
2890.0 0.0001845
2910.0 0.00017499
2930.0 0.00016559
2950.0 0.00015571
2970.0 0.00014558
2990.0 0.00013586
3010.0 0.00018376
3030.0 0.0001694
3050.0 0.00015522
3070.0 0.00014218
3090.0 0.00012913
3110.0 0.00011666
3130.0 0.00010592
3150.0 9.8679e-05
3170.0 9.2896e-05
3190.0 0.00015333
3210.0 0.00043155
3230.0 0.00088225
3250.0 0.0011195
3270.0 0.00098854
3290.0 0.00075878
3310.0 0.00062793
3330.0 0.00058835
3350.0 0.00060414
3370.0 0.0006362
3390.0 0.00067028
3410.0 0.00070471
3430.0 0.00073694
3450.0 0.00077187
3470.0 0.00080986
3490.0 0.00083575
3510.0 0.00080914
3530.0 0.00082647
3550.0 0.0010365
3570.0 0.0013017
3590.0 0.0014374
3610.0 0.0014824
3630.0 0.0015191
3650.0 0.001517
3670.0 0.0016081
3690.0 0.0019243
3710.0 0.0022803
3730.0 0.002513
3750.0 0.0026784
3770.0 0.0027112
3790.0 0.0026062
3810.0 0.0024092
3830.0 0.0021063
3850.0 0.0017856
3870.0 0.0016201
3890.0 0.0018123
3910.0 0.0022924
3930.0 0.0027726
3950.0 0.0030579
3970.0 0.0031787
3990.0 0.0033113
4010.0 0.0033879
4030.0 0.0030566
4050.0 0.0024122
4070.0 0.0020816
4090.0 0.0021942
4110.0 0.0024156
4130.0 0.0025399
4150.0 0.0025535
4170.0 0.0024953
4190.0 0.0024529
4210.0 0.002515
4230.0 0.0026617
4250.0 0.002781
4270.0 0.0028253
4290.0 0.0027864
4310.0 0.0028043
4330.0 0.0029746
4350.0 0.0031759
4370.0 0.0031612
4390.0 0.0029319
4410.0 0.0025878
4430.0 0.0021664
4450.0 0.001869
4470.0 0.0018593
4490.0 0.0020309
4510.0 0.0022504
4530.0 0.0024877
4550.0 0.0028593
4570.0 0.0035732
4590.0 0.004591
4610.0 0.0054228
4630.0 0.0058421
4650.0 0.0061872
4670.0 0.0065224
4690.0 0.0063794
4710.0 0.0055633
4730.0 0.0044841
4750.0 0.0036145
4770.0 0.0030899
4790.0 0.0028966
4810.0 0.0028959
4830.0 0.0030985
4850.0 0.0035033
4870.0 0.0038658
4890.0 0.003984
4910.0 0.0040776
4930.0 0.0044604
4950.0 0.0049767
4970.0 0.0052431
4990.0 0.0050982
5010.0 0.0045663
5030.0 0.0038242
5050.0 0.0031963
5070.0 0.0028122
5090.0 0.0026546
5110.0 0.0026547
5130.0 0.0026803
5150.0 0.0026564
5170.0 0.0025978
5190.0 0.0026265
5210.0 0.0028224
5230.0 0.0031787
5250.0 0.0037131
5270.0 0.0042715
5290.0 0.0046536
5310.0 0.0049608
5330.0 0.005349
5350.0 0.0056388
5370.0 0.0055796
5390.0 0.0052843
5410.0 0.0050681
5430.0 0.0052339
5450.0 0.0058593
5470.0 0.0066311
5490.0 0.0071683
5510.0 0.007337
5530.0 0.0072456
5550.0 0.0070126
5570.0 0.006728
5590.0 0.0064607
5610.0 0.0062662
5630.0 0.0061809
5650.0 0.0060529
5670.0 0.0056756
5690.0 0.0051352
5710.0 0.0046504
5730.0 0.004303
5750.0 0.0041791
5770.0 0.0042656
5790.0 0.0043692
5810.0 0.0043983
5830.0 0.0043886
5850.0 0.0042958
5870.0 0.0041521
5890.0 0.0041093
5910.0 0.004155
5930.0 0.0040831
5950.0 0.0037987
5970.0 0.0033505
5990.0 0.0028455
6010.0 0.0024774
6030.0 0.0023728
6050.0 0.002502
6070.0 0.0026224
6090.0 0.0025344
6110.0 0.0023911
6130.0 0.0024397
6150.0 0.0026457
6170.0 0.0028347
6190.0 0.0029429
6210.0 0.0029765
6230.0 0.0028953
6250.0 0.0026381
6270.0 0.0022705
6290.0 0.0019683
6310.0 0.0018612
6330.0 0.0019178
6350.0 0.0020162
6370.0 0.0021428
6390.0 0.0024137
6410.0 0.0028209
6430.0 0.0031596
6450.0 0.0033284
6470.0 0.0034219
6490.0 0.0034904
6510.0 0.0035186
6530.0 0.0035375
6550.0 0.0035851
6570.0 0.0036448
6590.0 0.0036854
6610.0 0.0036414
6630.0 0.0034781
6650.0 0.0032309
6670.0 0.0029954
6690.0 0.0028436
6710.0 0.0027288
6730.0 0.0026072
6750.0 0.0025489
6770.0 0.0026074
6790.0 0.0026912
6810.0 0.0027171
6830.0 0.0026739
6850.0 0.0025693
6870.0 0.0024627
6890.0 0.0024028
6910.0 0.0024094
6930.0 0.0024503
6950.0 0.0024826
6970.0 0.0025109
6990.0 0.002503
7010.0 0.0024237
7030.0 0.0022592
7050.0 0.0020449
7070.0 0.0018948
7090.0 0.001875
7110.0 0.0019057
7130.0 0.0018403
7150.0 0.0017091
7170.0 0.0016923
7190.0 0.0018435
7210.0 0.0020553
7230.0 0.002227
7250.0 0.0022972
7270.0 0.0022474
7290.0 0.0021317
7310.0 0.0020432
7330.0 0.0020465
7350.0 0.0020959
7370.0 0.0021358
7390.0 0.0022277
7410.0 0.0024118
7430.0 0.0026225
7450.0 0.0027861
7470.0 0.0028336
7490.0 0.0026979
7510.0 0.0025069
7530.0 0.0024034
7550.0 0.0022831
7570.0 0.0021556
7590.0 0.0020935
7610.0 0.002098
7630.0 0.0021734
7650.0 0.0023269
7670.0 0.0025225
7690.0 0.002701
7710.0 0.0028305
7730.0 0.00294
7750.0 0.0030308
7770.0 0.0030735
7790.0 0.0031216
7810.0 0.0031278
7830.0 0.0030331
7850.0 0.0029275
7870.0 0.0028687
7890.0 0.0028703
7910.0 0.0028764
7930.0 0.0028129
7950.0 0.0027219
7970.0 0.0026264
7990.0 0.0025443
8010.0 0.0024267
8030.0 0.0024329
8050.0 0.0024309
8070.0 0.0024005
8090.0 0.0023791
8110.0 0.0023442
8130.0 0.0023477
8150.0 0.002332
8170.0 0.0022926
8190.0 0.00223
8210.0 0.0021583
8230.0 0.0020906
8250.0 0.0020675
8270.0 0.0019496
8290.0 0.0016939
8310.0 0.0014082
8330.0 0.0012136
8350.0 0.0011652
8370.0 0.0012918
8390.0 0.0014762
8410.0 0.0015765
8430.0 0.0016371
8450.0 0.0017504
8470.0 0.0018904
8490.0 0.0020807
8510.0 0.0023017
8530.0 0.0025323
8550.0 0.002716
8570.0 0.0028525
8590.0 0.0029552
8610.0 0.0030146
8630.0 0.0030068
8650.0 0.0029575
8670.0 0.0029635
8690.0 0.003117
8710.0 0.0033249
8730.0 0.0034256
8750.0 0.003403
8770.0 0.0034398
8790.0 0.0034429
8810.0 0.003294
8830.0 0.0030586
8850.0 0.0027625
8870.0 0.0025373
8890.0 0.0024692
8910.0 0.0024281
8930.0 0.0022748
8950.0 0.002107
8970.0 0.002039
8990.0 0.0020463
9010.0 0.002011
9030.0 0.0019753
9050.0 0.001957
9070.0 0.0019472
9090.0 0.0019387
9110.0 0.0019304
9130.0 0.0019222
9150.0 0.0019141
9170.0 0.0019058
9190.0 0.0018989
9210.0 0.0018948
9230.0 0.0018853
9250.0 0.0018767
9270.0 0.0018686
9290.0 0.001861
9310.0 0.0018535
9330.0 0.0018462
9350.0 0.0018392
9370.0 0.0018323
9390.0 0.0018254
9410.0 0.0018187
9430.0 0.0018116
9450.0 0.0018022
9470.0 0.0017937
9490.0 0.0017898
9510.0 0.0017847
9530.0 0.0017794
9550.0 0.0017737
9570.0 0.0017678
9590.0 0.001762
9610.0 0.0017562
9630.0 0.0017503
9650.0 0.0017445
9670.0 0.0017389
9690.0 0.0017331
9710.0 0.0017274
9730.0 0.0017219
9750.0 0.0017164
9770.0 0.0017107
9790.0 0.0017052
9810.0 0.0016998
9830.0 0.0016943
9850.0 0.0016888
9870.0 0.0016835
9890.0 0.0016781
9910.0 0.0016726
9930.0 0.0016671
9950.0 0.0016556
9970.0 0.0016519
9990.0 0.0016478
10010.0 0.0016437
10030.0 0.0016389
10050.0 0.0016336
10070.0 0.0016284
10090.0 0.0016232
10110.0 0.001617
10130.0 0.0016095
10150.0 0.0016041
10170.0 0.0015989
10190.0 0.001593
10210.0 0.0015874
10230.0 0.0015817
10250.0 0.0015754
10270.0 0.0015691
10290.0 0.0015631
10310.0 0.0015565
10330.0 0.0015494
10350.0 0.0015428
10370.0 0.0015362
10390.0 0.0015289
10410.0 0.0015217
10430.0 0.0015149
10450.0 0.0015074
10470.0 0.0014996
10490.0 0.0014921
10510.0 0.0014846
10530.0 0.001476
10550.0 0.0014677
10570.0 0.0014598
10590.0 0.0014512
10610.0 0.0014423
10630.0 0.0014337
10650.0 0.001425
10670.0 0.0014153
10690.0 0.0014059
10710.0 0.0013966
10730.0 0.0013867
10750.0 0.0013762
10770.0 0.0013664
10790.0 0.0013563
10810.0 0.0013454
10830.0 0.0013346
10850.0 0.0013242
10870.0 0.0013126
10890.0 0.0013009
10910.0 0.0012895
10930.0 0.0012777
10950.0 0.0012651
10970.0 0.0012527
10990.0 0.0012406
11010.0 0.0013288
11030.0 0.0013153
11050.0 0.0013023
11070.0 0.0012891
11090.0 0.001275
11110.0 0.0012619
11130.0 0.001249
11150.0 0.0012357
11170.0 0.0012224
11190.0 0.0012099
11210.0 0.0011971
11230.0 0.0011841
11250.0 0.0011717
11270.0 0.0011598
11290.0 0.0011474
11310.0 0.0011353
11330.0 0.0011242
11350.0 0.0011129
11370.0 0.0011015
11390.0 0.0010904
11410.0 0.0010794
11430.0 0.0010675
11450.0 0.0010554
11470.0 0.0010431
11490.0 0.00103
11510.0 0.0010157
11530.0 0.0010012
11550.0 0.00098607
11570.0 0.00096957
11590.0 0.00095249
11610.0 0.00093534
11630.0 0.00091706
11650.0 0.0008979
11670.0 0.0008793
11690.0 0.00086054
11710.0 0.00084112
11730.0 0.00082193
11750.0 0.00080353
11770.0 0.00078462
11790.0 0.00076565
11810.0 0.00074745
11830.0 0.00072948
11850.0 0.00071087
11870.0 0.00069301
11890.0 0.00067593
11910.0 0.00065866
11930.0 0.00064156
11950.0 0.00062545
11970.0 0.00060965
11990.0 0.00059379
12010.0 0.00057889
12030.0 0.00056491
12050.0 0.00055126
12070.0 0.00053817
12090.0 0.00052658
12110.0 0.00051568
12130.0 0.00050549
12150.0 0.00049649
12170.0 0.00048866
12190.0 0.00048161
12210.0 0.00047578
12230.0 0.00047122
12250.0 0.00046775
12270.0 0.00046543
12290.0 0.00046424
12310.0 0.00046401
12330.0 0.00046485
12350.0 0.0004666
12370.0 0.00046894
12390.0 0.00047198
12410.0 0.00047587
12430.0 0.00047981
12450.0 0.00048391
12470.0 0.00048838
12490.0 0.00049285
12510.0 0.00049691
12530.0 0.00050098
12550.0 0.00050491
12570.0 0.00050821
12590.0 0.00051096
12610.0 0.00051334
12630.0 0.00051497
12650.0 0.00051561
12670.0 0.00051552
12690.0 0.00051457
12710.0 0.00051261
12730.0 0.00050973
12750.0 0.00050589
12770.0 0.0005011
12790.0 0.00049554
12810.0 0.00048916
12830.0 0.00048199
12850.0 0.00047446
12870.0 0.00046655
12890.0 0.00045816
12910.0 0.00044966
12930.0 0.00044129
12950.0 0.00043272
12970.0 0.00042416
12990.0 0.00041605
13010.0 0.00040815
13030.0 0.00040031
13050.0 0.00039281
13070.0 0.00038576
13090.0 0.00037876
13110.0 0.00037197
13130.0 0.00036557
13150.0 0.00035938
13170.0 0.00035322
13190.0 0.00034743
13210.0 0.00034195
13230.0 0.00033657
13250.0 0.00033138
13270.0 0.00032652
13290.0 0.00032182
13310.0 0.00031721
13330.0 0.00031288
13350.0 0.0003088
13370.0 0.00030482
13390.0 0.000301
13410.0 0.00029749
13430.0 0.00029411
13450.0 0.00029083
13470.0 0.00028775
13490.0 0.00028485
13510.0 0.00028195
13530.0 0.00027917
13550.0 0.00027652
13570.0 0.0002739
13590.0 0.00027126
13610.0 0.00026869
13630.0 0.00026616
13650.0 0.00026356
13670.0 0.00026097
13690.0 0.00025843
13710.0 0.00025588
13730.0 0.00025325
13750.0 0.00025074
13770.0 0.00024828
13790.0 0.00024581
13810.0 0.00024341
13830.0 0.00024114
13850.0 0.00023889
13870.0 0.00023668
13890.0 0.00023461
13910.0 0.00023262
13930.0 0.00023064
13950.0 0.00022874
13970.0 0.00022695
13990.0 0.00022516
14010.0 0.00022337
14030.0 0.00022163
14050.0 0.0002199
14070.0 0.00021806
14090.0 0.00021623
14110.0 0.00021441
14130.0 0.00021252
14150.0 0.00021056
14170.0 0.00020867
14190.0 0.00020678
14210.0 0.00020486
14230.0 0.00020301
14250.0 0.00020129
14270.0 0.0001996
14290.0 0.00019802
14310.0 0.00019664
14330.0 0.0001954
14350.0 0.00019429
14370.0 0.00019336
14390.0 0.00019261
14410.0 0.00019196
14430.0 0.00019143
14450.0 0.00019103
14470.0 0.00019071
14490.0 0.00019043
14510.0 0.00019022
14530.0 0.00019005
14550.0 0.00018989
14570.0 0.00018977
14590.0 0.0001897
14610.0 0.00018969
14630.0 0.00018976
14650.0 0.00018996
14670.0 0.00019031
14690.0 0.00019087
14710.0 0.00019171
14730.0 0.0001928
14750.0 0.00019424
14770.0 0.00019612
14790.0 0.00019838
14810.0 0.00020104
14830.0 0.00020436
14850.0 0.00020817
14870.0 0.00021236
14890.0 0.00021704
14910.0 0.00022221
14930.0 0.00022742
14950.0 0.00023251
14970.0 0.00023757
14990.0 0.00024212
15010.0 0.00024595
15030.0 0.00024917
15050.0 0.00025179
15070.0 0.00025374
15090.0 0.00025527
15110.0 0.00025654
15130.0 0.00025763
15150.0 0.00025863
15170.0 0.00025959
15190.0 0.00026055
15210.0 0.00026152
15230.0 0.00026251
15250.0 0.00026351
15270.0 0.00026454
15290.0 0.00026558
15310.0 0.00026665
15330.0 0.00026773
15350.0 0.00026883
15370.0 0.00026995
15390.0 0.00027109
15410.0 0.00027225
15430.0 0.00027343
15450.0 0.00027463
15470.0 0.00027584
15490.0 0.00027707
15510.0 0.00027831
15530.0 0.00027958
15550.0 0.00028086
15570.0 0.00028215
15590.0 0.00028346
15610.0 0.00028479
15630.0 0.00028613
15650.0 0.00028749
15670.0 0.00028886
15690.0 0.00029024
15710.0 0.00029164
15730.0 0.00029305
15750.0 0.00029448
15770.0 0.00029591
15790.0 0.00029736
15810.0 0.00029882
15830.0 0.00030029
15850.0 0.00030177
15870.0 0.00030326
15890.0 0.00030476
15910.0 0.00030627
15930.0 0.00030779
15950.0 0.00030932
15970.0 0.00031085
15990.0 0.0003124
16010.0 0.00031395
16030.0 0.0003155
16050.0 0.00031707
16070.0 0.00031863
16090.0 0.0003202
16110.0 0.00032178
16130.0 0.00032336
16150.0 0.00032494
16170.0 0.00032653
16190.0 0.00032812
16210.0 0.00032971
16230.0 0.0003313
16250.0 0.00033289
16270.0 0.00033448
16290.0 0.00033607
16310.0 0.00033766
16330.0 0.00033925
16350.0 0.00034084
16370.0 0.00034241
16390.0 0.00034399
16410.0 0.00034557
16430.0 0.00034714
16450.0 0.0003487
16470.0 0.00035026
16490.0 0.00035181
16510.0 0.00035335
16530.0 0.00035488
16550.0 0.00035641
16570.0 0.00035793
16590.0 0.00035943
16610.0 0.00036093
16630.0 0.00036242
16650.0 0.00036389
16670.0 0.00036535
16690.0 0.0003668
16710.0 0.00036823
16730.0 0.00036965
16750.0 0.00037106
16770.0 0.00037245
16790.0 0.00037382
16810.0 0.00037518
16830.0 0.00037652
16850.0 0.00037784
16870.0 0.00037915
16890.0 0.00038043
16910.0 0.0003817
16930.0 0.00038294
16950.0 0.00038417
16970.0 0.00038537
16990.0 0.00038655
17010.0 0.00038771
17030.0 0.00038885
17050.0 0.00038996
17070.0 0.00039104
17090.0 0.00039211
17110.0 0.00039315
17130.0 0.00039416
17150.0 0.00039514
17170.0 0.00039611
17190.0 0.00039704
17210.0 0.00039794
17230.0 0.00039882
17250.0 0.00039967
17270.0 0.00040049
17290.0 0.00040129
17310.0 0.00040205
17330.0 0.00040278
17350.0 0.00040348
17370.0 0.00040416
17390.0 0.0004048
17410.0 0.00040541
17430.0 0.00040599
17450.0 0.00040654
17470.0 0.00040705
17490.0 0.00040753
17510.0 0.00040798
17530.0 0.0004084
17550.0 0.00040878
17570.0 0.00040913
17590.0 0.00040945
17610.0 0.00040974
17630.0 0.00040999
17650.0 0.00041021
17670.0 0.00041039
17690.0 0.00041053
17710.0 0.00041065
17730.0 0.00041073
17750.0 0.00041078
17770.0 0.00041079
17790.0 0.00041077
17810.0 0.00041071
17830.0 0.00041062
17850.0 0.00041049
17870.0 0.00041034
17890.0 0.00041014
17910.0 0.00040991
17930.0 0.00040965
17950.0 0.00040936
17970.0 0.00040903
17990.0 0.00040866
18010.0 0.00040827
18030.0 0.00040784
18050.0 0.00040737
18070.0 0.00040688
18090.0 0.00040635
18110.0 0.00040578
18130.0 0.00040519
18150.0 0.00040457
18170.0 0.00040391
18190.0 0.00040322
18210.0 0.0004025
18230.0 0.00040174
18250.0 0.00040096
18270.0 0.00040015
18290.0 0.0003993
18310.0 0.00039843
18330.0 0.00039753
18350.0 0.0003966
18370.0 0.00039564
18390.0 0.00039465
18410.0 0.00039363
18430.0 0.00039259
18450.0 0.00039152
18470.0 0.00039042
18490.0 0.0003893
18510.0 0.00038815
18530.0 0.00038697
18550.0 0.00038577
18570.0 0.00038455
18590.0 0.0003833
18610.0 0.00038202
18630.0 0.00038073
18650.0 0.00037941
18670.0 0.00037807
18690.0 0.00037671
18710.0 0.00037532
18730.0 0.00037392
18750.0 0.00037249
18770.0 0.00037105
18790.0 0.00036959
18810.0 0.0003681
18830.0 0.0003666
18850.0 0.00036509
18870.0 0.00036355
18890.0 0.000362
18910.0 0.00036043
18930.0 0.00035884
18950.0 0.00035724
18970.0 0.00035563
18990.0 0.000354
19010.0 0.00035236
19030.0 0.0003507
19050.0 0.00034903
19070.0 0.00034735
19090.0 0.00034566
19110.0 0.00034396
19130.0 0.00034224
19150.0 0.00034052
19170.0 0.00033878
19190.0 0.00033704
19210.0 0.00033528
19230.0 0.00033352
19250.0 0.00033175
19270.0 0.00032998
19290.0 0.00032819
19310.0 0.0003264
19330.0 0.00032461
19350.0 0.0003228
19370.0 0.000321
19390.0 0.00031918
19410.0 0.00031737
19430.0 0.00031555
19450.0 0.00031372
19470.0 0.0003119
19490.0 0.00031007
19510.0 0.00030824
19530.0 0.0003064
19550.0 0.00030457
19570.0 0.00030273
19590.0 0.0003009
19610.0 0.00029906
19630.0 0.00029722
19650.0 0.00029539
19670.0 0.00029355
19690.0 0.00029172
19710.0 0.00028988
19730.0 0.00028805
19750.0 0.00028623
19770.0 0.0002844
19790.0 0.00028257
19810.0 0.00028075
19830.0 0.00027893
19850.0 0.00027709
19870.0 0.00027524
19890.0 0.00027334
19910.0 0.00027133
19930.0 0.00026918
19950.0 0.0002668
19970.0 0.00026406
19990.0 0.00026089
20010.0 0.00025736
20030.0 0.00025332
20050.0 0.0002488
20070.0 0.00024402
20090.0 0.00023903
20110.0 0.00023368
20130.0 0.00022838
20150.0 0.00022322
20170.0 0.00021804
20190.0 0.0002129
20210.0 0.00020805
20230.0 0.00020335
20250.0 0.0001987
20270.0 0.00019431
20290.0 0.00019019
20310.0 0.0001862
20330.0 0.00018236
20350.0 0.0001789
20370.0 0.00017563
20390.0 0.00017252
20410.0 0.00016967
20430.0 0.00016707
20450.0 0.0001646
20470.0 0.00016233
20490.0 0.00016028
20510.0 0.0001584
20530.0 0.00015665
20550.0 0.00015506
20570.0 0.00015361
20590.0 0.00015225
20610.0 0.00015099
20630.0 0.00014982
20650.0 0.0001487
20670.0 0.00014763
20690.0 0.0001466
20710.0 0.00014558
20730.0 0.00014457
20750.0 0.00014354
20770.0 0.0001425
20790.0 0.00014144
20810.0 0.00014033
20830.0 0.00013918
20850.0 0.00013799
20870.0 0.00013673
20890.0 0.00013542
20910.0 0.00013408
20930.0 0.00013269
20950.0 0.00013123
20970.0 0.00012976
20990.0 0.00012826
21010.0 0.00012671
21030.0 0.00012514
21050.0 0.00012358
21070.0 0.000122
21090.0 0.00012039
21110.0 0.00011883
21130.0 0.00011728
21150.0 0.00011573
21170.0 0.0001142
21190.0 0.00011273
21210.0 0.00011125
21230.0 0.00010979
21250.0 0.0001084
21270.0 0.00010704
21290.0 0.00010569
21310.0 0.0001044
21330.0 0.00010317
21350.0 0.00010196
21370.0 0.00010079
21390.0 9.9684e-05
21410.0 9.8622e-05
21430.0 9.7584e-05
21450.0 9.6608e-05
21470.0 9.5688e-05
21490.0 9.4804e-05
21510.0 9.3962e-05
21530.0 9.3172e-05
21550.0 9.242e-05
21570.0 9.1701e-05
21590.0 9.1021e-05
21610.0 9.0374e-05
21630.0 8.9754e-05
21650.0 8.9159e-05
21670.0 8.8588e-05
21690.0 8.8036e-05
21710.0 8.75e-05
21730.0 8.6979e-05
21750.0 8.6469e-05
21770.0 8.5971e-05
21790.0 8.5483e-05
21810.0 8.5002e-05
21830.0 8.4529e-05
21850.0 8.4064e-05
21870.0 8.3604e-05
21890.0 8.3148e-05
21910.0 8.2698e-05
21930.0 8.2251e-05
21950.0 8.1806e-05
21970.0 8.1363e-05
21990.0 8.0919e-05
22010.0 8.0473e-05
22030.0 8.0022e-05
22050.0 7.9567e-05
22070.0 7.9104e-05
22090.0 7.8635e-05
22110.0 7.8156e-05
22130.0 7.7665e-05
22150.0 7.7165e-05
22170.0 7.6656e-05
22190.0 7.6131e-05
22210.0 7.5593e-05
22230.0 7.5051e-05
22250.0 7.4493e-05
22270.0 7.3918e-05
22290.0 7.3337e-05
22310.0 7.2744e-05
22330.0 7.2124e-05
22350.0 7.149e-05
22370.0 7.0846e-05
22390.0 7.0175e-05
22410.0 6.947e-05
22430.0 6.8757e-05
22450.0 6.8022e-05
22470.0 6.7245e-05
22490.0 6.6445e-05
22510.0 6.5635e-05
22530.0 6.4778e-05
22550.0 6.3884e-05
22570.0 6.2993e-05
22590.0 6.2084e-05
22610.0 6.1137e-05
22630.0 6.0187e-05
22650.0 5.9261e-05
22670.0 5.8309e-05
22690.0 5.7354e-05
22710.0 5.6434e-05
22730.0 5.5531e-05
22750.0 5.461e-05
22770.0 5.3741e-05
22790.0 5.2919e-05
22810.0 5.211e-05
22830.0 5.133e-05
22850.0 5.061e-05
22870.0 4.992e-05
22890.0 4.9249e-05
22910.0 4.8628e-05
22930.0 4.8051e-05
22950.0 4.7495e-05
22970.0 4.6963e-05
22990.0 4.6483e-05
23010.0 4.6022e-05
23030.0 4.5575e-05
23050.0 4.5156e-05
