#lamb flux
1010.0 4.6957e-05
1030.0 6.3269e-05
1050.0 8.5165e-05
1070.0 0.00011388
1090.0 0.00015137
1110.0 0.000197
1130.0 0.00025089
1150.0 0.00031469
1170.0 0.00038848
1190.0 0.00046843
1210.0 0.00055593
1230.0 0.00065064
1250.0 0.00074791
1270.0 0.00084437
1290.0 0.00094178
1310.0 0.001034
1330.0 0.001115
1350.0 0.001185
1370.0 0.0012427
1390.0 0.0012825
1410.0 0.0013029
1430.0 0.0013079
1450.0 0.0012951
1470.0 0.0012638
1490.0 0.0012182
1510.0 0.0011623
1530.0 0.0010935
1550.0 0.0010166
1570.0 0.00093542
1590.0 0.00085131
1610.0 0.00076538
1630.0 0.0006815
1650.0 0.00060064
1670.0 0.00052288
1690.0 0.00044963
1710.0 0.00038201
1730.0 0.00031979
1750.0 0.00026271
1770.0 0.00021151
1790.0 0.00016587
1810.0 0.00012541
1830.0 9.0044e-05
1850.0 6.1909e-05
1870.0 4.0114e-05
1890.0 2.2001e-05
1910.0 7.4124e-06
1930.0 1e-99
1950.0 1e-99
1970.0 1e-99
1990.0 1e-99
2010.0 1e-99
2030.0 1e-99
2050.0 1e-99
2070.0 1e-99
2090.0 8.7581e-06
2110.0 2.1392e-05
2130.0 3.6113e-05
2150.0 5.2783e-05
2170.0 7.1219e-05
2190.0 9.1357e-05
2210.0 0.0001147
2230.0 0.00014144
2250.0 0.00016956
2270.0 0.00019901
2290.0 0.0002294
2310.0 0.00026043
2330.0 0.00029214
2350.0 0.00032423
2370.0 0.00035625
2390.0 0.00038814
2410.0 0.00041987
2430.0 0.00045072
2450.0 0.0004804
2470.0 0.00050891
2490.0 0.00053594
2510.0 0.00056111
2530.0 0.0005853
2550.0 0.00060997
2570.0 0.00063706
2590.0 0.00066937
2610.0 0.00071379
2630.0 0.00077547
2650.0 0.00085654
2670.0 0.00096444
2690.0 0.0011061
2710.0 0.0012726
2730.0 0.0014565
2750.0 0.0016636
2770.0 0.0018712
2790.0 0.0020575
2810.0 0.0022217
2830.0 0.0023621
2850.0 0.002454
2870.0 0.0025113
2890.0 0.0025453
2910.0 0.0025559
2930.0 0.0025441
2950.0 0.0025235
2970.0 0.0024951
2990.0 0.0024549
3010.0 0.0024077
3030.0 0.0023598
3050.0 0.0023089
3070.0 0.0022505
3090.0 0.0021943
3110.0 0.0021406
3130.0 0.0020882
3150.0 0.0019231
3170.0 0.0017925
3190.0 0.0016574
3210.0 0.0015385
3230.0 0.0014895
3250.0 0.0017169
3270.0 0.0023256
3290.0 0.0026449
3310.0 0.0020006
3330.0 0.0019369
3350.0 0.0020041
3370.0 0.0020923
3390.0 0.0021728
3410.0 0.0022
3430.0 0.0021849
3450.0 0.002158
3470.0 0.0021527
3490.0 0.0020706
3510.0 0.0016612
3530.0 0.00092766
3550.0 0.00071192
3570.0 0.0018173
3590.0 0.0033316
3610.0 0.004148
3630.0 0.0061475
3650.0 0.0064813
3670.0 0.0052439
3690.0 0.0037409
3710.0 0.0028799
3730.0 0.0029764
3750.0 0.0031371
3770.0 0.0032513
3790.0 0.0033564
3810.0 0.0040075
3830.0 0.0036465
3850.0 0.0028452
3870.0 0.002399
3890.0 0.0030026
3910.0 0.0034465
3930.0 0.0034771
3950.0 0.0038095
3970.0 0.0041844
3990.0 0.0040465
4010.0 0.0043461
4030.0 0.004152
4050.0 0.0039094
4070.0 0.0037154
4090.0 0.0037732
4110.0 0.0039529
4130.0 0.0038801
4150.0 0.0036472
4170.0 0.0035151
4190.0 0.003584
4210.0 0.0032074
4230.0 0.0028825
4250.0 0.0024473
4270.0 0.0019779
4290.0 0.0019606
4310.0 0.0018937
4330.0 0.0018937
4350.0 0.002412
4370.0 0.0024512
4390.0 0.0028643
4410.0 0.003134
4430.0 0.0033649
4450.0 0.0029482
4470.0 0.0024334
4490.0 0.0023019
4510.0 0.0021264
4530.0 0.0020108
4550.0 0.0018784
4570.0 0.0018436
4590.0 0.0018785
4610.0 0.0016562
4630.0 0.0015181
4650.0 0.0013324
4670.0 0.0013027
4690.0 0.0010817
4710.0 0.00093582
4730.0 0.00072445
4750.0 0.00061301
4770.0 0.00029499
4790.0 0.00031384
4810.0 0.00028588
4830.0 1e-99
4850.0 7.5063e-05
4870.0 1e-99
4890.0 1e-99
4910.0 0.00022925
4930.0 0.00029339
4950.0 1e-99
4970.0 1e-99
4990.0 3.1246e-05
5010.0 1e-99
5030.0 1e-99
5050.0 2.609e-05
5070.0 2.1042e-06
5090.0 1.0618e-05
5110.0 5.3341e-05
5130.0 2.54e-05
5150.0 0.00010372
5170.0 1e-99
5190.0 1e-99
5210.0 1e-99
5230.0 1e-99
5250.0 6.7809e-05
5270.0 0.00038109
5290.0 0.0003588
5310.0 0.00016862
5330.0 0.00020237
5350.0 3.1094e-05
5370.0 7.0072e-05
5390.0 0.00016541
5410.0 0.00012578
5430.0 0.00028859
5450.0 0.00010271
5470.0 9.8567e-05
5490.0 0.00056143
5510.0 0.00055914
5530.0 0.00058007
5550.0 0.00052357
5570.0 0.00066026
5590.0 0.00083516
5610.0 0.00085038
5630.0 0.00078812
5650.0 0.00081206
5670.0 0.00080713
5690.0 0.00086748
5710.0 0.00074538
5730.0 0.00082748
5750.0 0.00082934
5770.0 0.00077185
5790.0 0.00092655
5810.0 0.0010118
5830.0 0.00095791
5850.0 0.00077332
5870.0 0.00067282
5890.0 0.00067527
5910.0 0.00083393
5930.0 0.00079308
5950.0 0.00086201
5970.0 0.00088074
5990.0 0.00096408
6010.0 0.00092302
6030.0 0.00095607
6050.0 0.00094328
6070.0 0.00083131
6090.0 0.00091601
6110.0 0.00095762
6130.0 0.00089033
6150.0 0.00089875
6170.0 0.0009259
6190.0 0.00071035
6210.0 0.00073307
6230.0 0.00080107
6250.0 0.00079402
6270.0 0.00078979
6290.0 0.00087683
6310.0 0.0009873
6330.0 0.0010033
6350.0 0.00097072
6370.0 0.0010061
6390.0 0.00088738
6410.0 0.00092372
6430.0 0.00086061
6450.0 0.00088728
6470.0 0.00091622
6490.0 0.00093538
6510.0 0.00082631
6530.0 0.00084315
6550.0 0.0008307
6570.0 0.00076523
6590.0 0.00083048
6610.0 0.00083637
6630.0 0.00083357
6650.0 0.00076501
6670.0 0.00072602
6690.0 0.0006982
6710.0 0.00065918
6730.0 0.00063122
6750.0 0.00063398
6770.0 0.00058096
6790.0 0.00031278
6810.0 0.00040613
6830.0 0.00055178
6850.0 0.00047231
6870.0 0.00046424
6890.0 0.00045095
6910.0 0.00044244
6930.0 0.00041363
6950.0 0.0004527
6970.0 0.00043301
6990.0 0.00042462
7010.0 0.00041653
7030.0 0.00045328
7050.0 0.00044528
7070.0 0.00032527
7090.0 0.00022065
7110.0 0.00019046
7130.0 0.00022387
7150.0 0.00024122
7170.0 0.00023397
7190.0 0.00017097
7210.0 0.00026339
7230.0 0.0003489
7250.0 0.000336
7270.0 0.00034513
7290.0 0.00038373
7310.0 0.00030669
7330.0 0.0002812
7350.0 0.00025477
7370.0 0.00031691
7390.0 0.00039815
7410.0 0.00026398
7430.0 0.00028137
7450.0 0.00027017
7470.0 0.00034736
7490.0 0.00036222
7510.0 0.00029197
7530.0 0.00033742
7550.0 0.00011758
7570.0 7.61e-05
7590.0 0.00019038
7610.0 0.00029842
7630.0 0.0002297
7650.0 0.00029339
7670.0 0.0001375
7690.0 2.6692e-05
7710.0 7.8865e-05
7730.0 0.000191
7750.0 7.8756e-05
7770.0 0.00022595
7790.0 0.00028551
7810.0 0.00019254
7830.0 0.00027383
7850.0 0.00014341
7870.0 0.00024863
7890.0 0.00017693
7910.0 0.0001783
7930.0 9.3686e-05
7950.0 1.1873e-05
7970.0 7.358e-05
7990.0 0.00015213
8010.0 0.00073876
8030.0 0.00071382
8050.0 0.0007019
8070.0 0.00068347
8090.0 0.00063732
8110.0 0.0006178
8130.0 0.00068031
8150.0 0.00072726
8170.0 0.00075472
8190.0 0.00079557
8210.0 0.00075663
8230.0 0.00075687
8250.0 0.00074901
8270.0 0.00076013
8290.0 0.00075549
8310.0 0.00071487
8330.0 0.00068293
8350.0 0.00070784
8370.0 0.00072307
8390.0 0.00070192
8410.0 0.00069411
8430.0 0.00066787
8450.0 0.00064366
8470.0 0.00069846
8490.0 0.00070146
8510.0 0.00065235
8530.0 0.00065916
8550.0 0.00065164
8570.0 0.00059665
8590.0 0.00060836
8610.0 0.00060683
8630.0 0.00063867
8650.0 0.00064257
8670.0 0.00065082
8690.0 0.00063561
8710.0 0.00062569
8730.0 0.00059628
8750.0 0.00058048
8770.0 0.00057479
8790.0 0.00061235
8810.0 0.00056715
8830.0 0.00055468
8850.0 0.00059182
8870.0 0.00055972
8890.0 0.00051099
8910.0 0.00050569
8930.0 0.00052298
8950.0 0.00047484
8970.0 0.00045381
8990.0 0.00044286
9010.0 0.00041413
9030.0 0.00040753
9050.0 0.00040573
9070.0 0.00040418
9090.0 0.0004026
9110.0 0.00040102
9130.0 0.00039942
9150.0 0.00039779
9170.0 0.00039615
9190.0 0.0003945
9210.0 0.00039283
9230.0 0.00039115
9250.0 0.00038945
9270.0 0.00038775
9290.0 0.00038603
9310.0 0.00038462
9330.0 0.00038365
9350.0 0.00038269
9370.0 0.0003817
9390.0 0.00038068
9410.0 0.00037966
9430.0 0.00037862
9450.0 0.00037755
9470.0 0.00037667
9490.0 0.00037568
9510.0 0.00037446
9530.0 0.00037325
9550.0 0.00037208
9570.0 0.00037092
9590.0 0.00036974
9610.0 0.00036905
9630.0 0.00036842
9650.0 0.00036776
9670.0 0.00036703
9690.0 0.00036633
9710.0 0.00036562
9730.0 0.00036485
9750.0 0.00036407
9770.0 0.00036332
9790.0 0.00036252
9810.0 0.00036168
9830.0 0.00036086
9850.0 0.00035981
9870.0 0.00035852
9890.0 0.0003579
9910.0 0.00035717
9930.0 0.00035621
9950.0 0.00035532
9970.0 0.00035449
9990.0 0.0003536
10010.0 0.00035268
10030.0 0.00035173
10050.0 0.00035077
10070.0 0.00034978
10090.0 0.00034879
10110.0 0.00034779
10130.0 0.00034678
10150.0 0.00034576
10170.0 0.00034473
10190.0 0.0003437
10210.0 0.00034267
10230.0 0.00034162
10250.0 0.00034057
10270.0 0.00033952
10290.0 0.00033846
10310.0 0.0003374
10330.0 0.00033634
10350.0 0.00033527
10370.0 0.00033419
10390.0 0.0003331
10410.0 0.00033178
10430.0 0.00033037
10450.0 0.00032957
10470.0 0.00032862
10490.0 0.00032763
10510.0 0.00032662
10530.0 0.00032555
10550.0 0.00032448
10570.0 0.00032342
10590.0 0.00032235
10610.0 0.00032127
10630.0 0.00032021
10650.0 0.00031915
10670.0 0.00031807
10690.0 0.000317
10710.0 0.00031595
10730.0 0.00031489
10750.0 0.00031382
10770.0 0.00031278
10790.0 0.00031174
10810.0 0.00031069
10830.0 0.00030965
10850.0 0.00030864
10870.0 0.00030758
10890.0 0.00030652
10910.0 0.00030546
10930.0 0.00030436
10950.0 0.00030317
10970.0 0.00030192
10990.0 0.0003006
11010.0 0.00027875
11030.0 0.00027714
11050.0 0.00027513
11070.0 0.00027277
11090.0 0.00027007
11110.0 0.00026722
11130.0 0.00026426
11150.0 0.00026115
11170.0 0.00025798
11190.0 0.00025484
11210.0 0.00025163
11230.0 0.00024836
11250.0 0.00024514
11270.0 0.00024197
11290.0 0.00023875
11310.0 0.00023558
11330.0 0.00023256
11350.0 0.00022957
11370.0 0.00022663
11390.0 0.00022382
11410.0 0.00022111
11430.0 0.00021842
11450.0 0.00021584
11470.0 0.00021335
11490.0 0.0002109
11510.0 0.00020847
11530.0 0.00020612
11550.0 0.0002038
11570.0 0.00020146
11590.0 0.00019914
11610.0 0.00019684
11630.0 0.00019451
11650.0 0.00019215
11670.0 0.00018981
11690.0 0.00018746
11710.0 0.00018506
11730.0 0.00018265
11750.0 0.00018026
11770.0 0.00017782
11790.0 0.00017535
11810.0 0.00017291
11830.0 0.00017048
11850.0 0.000168
11870.0 0.00016557
11890.0 0.00016321
11910.0 0.00016087
11930.0 0.00015857
11950.0 0.00015637
11970.0 0.00015424
11990.0 0.00015216
12010.0 0.0001502
12030.0 0.00014836
12050.0 0.0001466
12070.0 0.00014495
12090.0 0.00014343
12110.0 0.00014201
12130.0 0.00014069
12150.0 0.00013948
12170.0 0.00013836
12190.0 0.00013733
12210.0 0.00013638
12230.0 0.00013548
12250.0 0.00013463
12270.0 0.00013383
12290.0 0.00013303
12310.0 0.00013224
12330.0 0.00013145
12350.0 0.00013063
12370.0 0.00012979
12390.0 0.00012891
12410.0 0.00012797
12430.0 0.00012699
12450.0 0.00012595
12470.0 0.00012484
12490.0 0.00012367
12510.0 0.00012245
12530.0 0.00012116
12550.0 0.00011979
12570.0 0.00011837
12590.0 0.00011691
12610.0 0.00011536
12630.0 0.00011375
12650.0 0.00011216
12670.0 0.0001105
12690.0 0.00010879
12710.0 0.0001071
12730.0 0.0001054
12750.0 0.00010364
12770.0 0.0001019
12790.0 0.00010021
12810.0 9.8507e-05
12830.0 9.6797e-05
12850.0 9.5174e-05
12870.0 9.3596e-05
12890.0 9.2022e-05
12910.0 9.0521e-05
12930.0 8.9116e-05
12950.0 8.7744e-05
12970.0 8.6438e-05
12990.0 8.5265e-05
13010.0 8.4185e-05
13030.0 8.3185e-05
13050.0 8.2305e-05
13070.0 8.155e-05
13090.0 8.0882e-05
13110.0 8.032e-05
13130.0 7.9866e-05
13150.0 7.9502e-05
13170.0 7.9221e-05
13190.0 7.9019e-05
13210.0 7.8881e-05
13230.0 7.8802e-05
13250.0 7.8773e-05
13270.0 7.8776e-05
13290.0 7.8811e-05
13310.0 7.8875e-05
13330.0 7.8946e-05
13350.0 7.9017e-05
13370.0 7.9087e-05
13390.0 7.9143e-05
13410.0 7.9166e-05
13430.0 7.9161e-05
13450.0 7.9116e-05
13470.0 7.9028e-05
13490.0 7.89e-05
13510.0 7.8717e-05
13530.0 7.8491e-05
13550.0 7.8236e-05
13570.0 7.7944e-05
13590.0 7.7611e-05
13610.0 7.7265e-05
13630.0 7.691e-05
13650.0 7.6517e-05
13670.0 7.6108e-05
13690.0 7.5697e-05
13710.0 7.5259e-05
13730.0 7.4768e-05
13750.0 7.4285e-05
13770.0 7.3781e-05
13790.0 7.3227e-05
13810.0 7.2646e-05
13830.0 7.207e-05
13850.0 7.1445e-05
13870.0 7.0781e-05
13890.0 7.0129e-05
13910.0 6.9474e-05
13930.0 6.8781e-05
13950.0 6.8096e-05
13970.0 6.7467e-05
13990.0 6.6829e-05
14010.0 6.6201e-05
14030.0 6.563e-05
14050.0 6.5097e-05
14070.0 6.4558e-05
14090.0 6.4079e-05
14110.0 6.3657e-05
14130.0 6.3256e-05
14150.0 6.2878e-05
14170.0 6.2563e-05
14190.0 6.2277e-05
14210.0 6.1999e-05
14230.0 6.1754e-05
14250.0 6.1546e-05
14270.0 6.1338e-05
14290.0 6.114e-05
14310.0 6.0983e-05
14330.0 6.0839e-05
14350.0 6.07e-05
14370.0 6.0587e-05
14390.0 6.0506e-05
14410.0 6.0428e-05
14430.0 6.0369e-05
14450.0 6.0341e-05
14470.0 6.033e-05
14490.0 6.0322e-05
14510.0 6.034e-05
14530.0 6.0378e-05
14550.0 6.0416e-05
14570.0 6.046e-05
14590.0 6.0518e-05
14610.0 6.0574e-05
14630.0 6.062e-05
14650.0 6.0672e-05
14670.0 6.0726e-05
14690.0 6.0767e-05
14710.0 6.0798e-05
14730.0 6.0841e-05
14750.0 6.0869e-05
14770.0 6.0881e-05
14790.0 6.089e-05
14810.0 6.0896e-05
14830.0 6.0869e-05
14850.0 6.0832e-05
14870.0 6.0796e-05
14890.0 6.0744e-05
14910.0 6.0675e-05
14930.0 6.0618e-05
14950.0 6.0577e-05
14970.0 6.0536e-05
14990.0 6.0523e-05
15010.0 6.0548e-05
15030.0 6.0596e-05
15050.0 6.0663e-05
15070.0 6.0765e-05
15090.0 6.0883e-05
15110.0 6.1005e-05
15130.0 6.1133e-05
15150.0 6.1269e-05
15170.0 6.1397e-05
15190.0 6.152e-05
15210.0 6.1645e-05
15230.0 6.1766e-05
15250.0 6.1878e-05
15270.0 6.1986e-05
15290.0 6.2098e-05
15310.0 6.2201e-05
15330.0 6.2296e-05
15350.0 6.2392e-05
15370.0 6.2484e-05
15390.0 6.2563e-05
15410.0 6.2641e-05
15430.0 6.2719e-05
15450.0 6.2787e-05
15470.0 6.2847e-05
15490.0 6.2909e-05
15510.0 6.2965e-05
15530.0 6.301e-05
15550.0 6.3053e-05
15570.0 6.3095e-05
15590.0 6.3125e-05
15610.0 6.3146e-05
15630.0 6.3171e-05
15650.0 6.3188e-05
15670.0 6.3194e-05
15690.0 6.3198e-05
15710.0 6.3202e-05
15730.0 6.3192e-05
15750.0 6.3177e-05
15770.0 6.3161e-05
15790.0 6.3138e-05
15810.0 6.3102e-05
15830.0 6.3066e-05
15850.0 6.3029e-05
15870.0 6.298e-05
15890.0 6.2925e-05
15910.0 6.2871e-05
15930.0 6.2807e-05
15950.0 6.2732e-05
15970.0 6.2657e-05
15990.0 6.2579e-05
16010.0 6.249e-05
16030.0 6.2393e-05
16050.0 6.23e-05
16070.0 6.2198e-05
16090.0 6.2086e-05
16110.0 6.1974e-05
16130.0 6.186e-05
16150.0 6.1729e-05
16170.0 6.1597e-05
16190.0 6.1466e-05
16210.0 6.1326e-05
16230.0 6.1177e-05
16250.0 6.1029e-05
16270.0 6.0879e-05
16290.0 6.0716e-05
16310.0 6.055e-05
16330.0 6.0385e-05
16350.0 6.0211e-05
16370.0 6.0025e-05
16390.0 5.9846e-05
16410.0 5.9662e-05
16430.0 5.9468e-05
16450.0 5.9271e-05
16470.0 5.9077e-05
16490.0 5.8872e-05
16510.0 5.866e-05
16530.0 5.8451e-05
16550.0 5.8238e-05
16570.0 5.8014e-05
16590.0 5.7788e-05
16610.0 5.7568e-05
16630.0 5.7337e-05
16650.0 5.7101e-05
16670.0 5.6868e-05
16690.0 5.6631e-05
16710.0 5.6382e-05
16730.0 5.6136e-05
16750.0 5.589e-05
16770.0 5.5637e-05
16790.0 5.5378e-05
16810.0 5.5125e-05
16830.0 5.4868e-05
16850.0 5.4602e-05
16870.0 5.4337e-05
16890.0 5.4074e-05
16910.0 5.3802e-05
16930.0 5.3525e-05
16950.0 5.3255e-05
16970.0 5.2981e-05
16990.0 5.27e-05
17010.0 5.2421e-05
17030.0 5.2144e-05
17050.0 5.1859e-05
17070.0 5.1571e-05
17090.0 5.1288e-05
17110.0 5.1002e-05
17130.0 5.0707e-05
17150.0 5.0417e-05
17170.0 5.013e-05
17190.0 4.9835e-05
17210.0 4.954e-05
17230.0 4.925e-05
17250.0 4.8954e-05
17270.0 4.8653e-05
17290.0 4.8357e-05
17310.0 4.8061e-05
17330.0 4.776e-05
17350.0 4.7457e-05
17370.0 4.7163e-05
17390.0 4.6863e-05
17410.0 4.6559e-05
17430.0 4.626e-05
17450.0 4.5963e-05
17470.0 4.5656e-05
17490.0 4.5353e-05
17510.0 4.5055e-05
17530.0 4.4753e-05
17550.0 4.4448e-05
17570.0 4.4149e-05
17590.0 4.3851e-05
17610.0 4.3547e-05
17630.0 4.3245e-05
17650.0 4.2948e-05
17670.0 4.2648e-05
17690.0 4.2341e-05
17710.0 4.2045e-05
17730.0 4.1749e-05
17750.0 4.1448e-05
17770.0 4.115e-05
17790.0 4.0858e-05
17810.0 4.056e-05
17830.0 4.0261e-05
17850.0 3.9968e-05
17870.0 3.9676e-05
17890.0 3.9379e-05
17910.0 3.9085e-05
17930.0 3.8798e-05
17950.0 3.8507e-05
17970.0 3.8216e-05
17990.0 3.793e-05
18010.0 3.7645e-05
18030.0 3.7354e-05
18050.0 3.7069e-05
18070.0 3.6788e-05
18090.0 3.6504e-05
18110.0 3.6219e-05
18130.0 3.5942e-05
18150.0 3.5665e-05
18170.0 3.5384e-05
18190.0 3.5109e-05
18210.0 3.4837e-05
18230.0 3.4561e-05
18250.0 3.4285e-05
18270.0 3.4017e-05
18290.0 3.3749e-05
18310.0 3.3478e-05
18330.0 3.3213e-05
18350.0 3.2952e-05
18370.0 3.2686e-05
18390.0 3.2422e-05
18410.0 3.2164e-05
18430.0 3.1906e-05
18450.0 3.1644e-05
18470.0 3.1389e-05
18490.0 3.1138e-05
18510.0 3.0884e-05
18530.0 3.0632e-05
18550.0 3.0387e-05
18570.0 3.0139e-05
18590.0 2.9889e-05
18610.0 2.9646e-05
18630.0 2.9406e-05
18650.0 2.9163e-05
18670.0 2.8921e-05
18690.0 2.8688e-05
18710.0 2.8452e-05
18730.0 2.8216e-05
18750.0 2.7985e-05
18770.0 2.7757e-05
18790.0 2.7524e-05
18810.0 2.7295e-05
18830.0 2.7073e-05
18850.0 2.6849e-05
18870.0 2.6624e-05
18890.0 2.6405e-05
18910.0 2.6189e-05
18930.0 2.597e-05
18950.0 2.5754e-05
18970.0 2.5543e-05
18990.0 2.5331e-05
19010.0 2.5115e-05
19030.0 2.491e-05
19050.0 2.4705e-05
19070.0 2.4497e-05
19090.0 2.4294e-05
19110.0 2.4096e-05
19130.0 2.3894e-05
19150.0 2.3693e-05
19170.0 2.3498e-05
19190.0 2.3304e-05
19210.0 2.3107e-05
19230.0 2.2914e-05
19250.0 2.2727e-05
19270.0 2.2537e-05
19290.0 2.2349e-05
19310.0 2.2165e-05
19330.0 2.1983e-05
19350.0 2.1796e-05
19370.0 2.1615e-05
19390.0 2.1438e-05
19410.0 2.1258e-05
19430.0 2.1079e-05
19450.0 2.0907e-05
19470.0 2.0735e-05
19490.0 2.056e-05
19510.0 2.039e-05
19530.0 2.0223e-05
19550.0 2.0052e-05
19570.0 1.9883e-05
19590.0 1.972e-05
19610.0 1.9557e-05
19630.0 1.9392e-05
19650.0 1.9231e-05
19670.0 1.9074e-05
19690.0 1.8913e-05
19710.0 1.8753e-05
19730.0 1.8599e-05
19750.0 1.8444e-05
19770.0 1.8286e-05
19790.0 1.8134e-05
19810.0 1.7984e-05
19830.0 1.7832e-05
19850.0 1.7682e-05
19870.0 1.7537e-05
19890.0 1.739e-05
19910.0 1.7243e-05
19930.0 1.7103e-05
19950.0 1.6969e-05
19970.0 1.6837e-05
19990.0 1.6715e-05
20010.0 1.6605e-05
20030.0 1.6503e-05
20050.0 1.6411e-05
20070.0 1.6331e-05
20090.0 1.6262e-05
20110.0 1.6199e-05
20130.0 1.6146e-05
20150.0 1.6101e-05
20170.0 1.6062e-05
20190.0 1.6028e-05
20210.0 1.5999e-05
20230.0 1.5974e-05
20250.0 1.5952e-05
20270.0 1.5932e-05
20290.0 1.5913e-05
20310.0 1.5896e-05
20330.0 1.5878e-05
20350.0 1.5859e-05
20370.0 1.5839e-05
20390.0 1.5818e-05
20410.0 1.5795e-05
20430.0 1.577e-05
20450.0 1.5742e-05
20470.0 1.5713e-05
20490.0 1.5683e-05
20510.0 1.5651e-05
20530.0 1.5618e-05
20550.0 1.5585e-05
20570.0 1.5551e-05
20590.0 1.5518e-05
20610.0 1.5485e-05
20630.0 1.5452e-05
20650.0 1.5419e-05
20670.0 1.5387e-05
20690.0 1.5355e-05
20710.0 1.5322e-05
20730.0 1.5289e-05
20750.0 1.5254e-05
20770.0 1.5218e-05
20790.0 1.518e-05
20810.0 1.5138e-05
20830.0 1.5093e-05
20850.0 1.5044e-05
20870.0 1.4991e-05
20890.0 1.4933e-05
20910.0 1.4871e-05
20930.0 1.4803e-05
20950.0 1.4731e-05
20970.0 1.4654e-05
20990.0 1.4574e-05
21010.0 1.4488e-05
21030.0 1.4399e-05
21050.0 1.4308e-05
21070.0 1.4212e-05
21090.0 1.4113e-05
21110.0 1.4014e-05
21130.0 1.3912e-05
21150.0 1.3807e-05
21170.0 1.3701e-05
21190.0 1.3594e-05
21210.0 1.3483e-05
21230.0 1.3368e-05
21250.0 1.3252e-05
21270.0 1.3134e-05
21290.0 1.301e-05
21310.0 1.2883e-05
21330.0 1.2754e-05
21350.0 1.2619e-05
21370.0 1.2479e-05
21390.0 1.2352e-05
21410.0 1.2221e-05
21430.0 1.2082e-05
21450.0 1.194e-05
21470.0 1.1797e-05
21490.0 1.1647e-05
21510.0 1.1492e-05
21530.0 1.1336e-05
21550.0 1.1176e-05
21570.0 1.101e-05
21590.0 1.0841e-05
21610.0 1.0671e-05
21630.0 1.0495e-05
21650.0 1.0313e-05
21670.0 1.0133e-05
21690.0 9.9481e-06
21710.0 9.7578e-06
21730.0 9.5658e-06
21750.0 9.373e-06
21770.0 9.1721e-06
21790.0 8.9683e-06
21810.0 8.7641e-06
21830.0 8.5557e-06
21850.0 8.3411e-06
21870.0 8.1256e-06
21890.0 7.9096e-06
21910.0 7.6871e-06
21930.0 7.4617e-06
21950.0 7.2365e-06
21970.0 7.0076e-06
21990.0 6.7726e-06
22010.0 6.5396e-06
22030.0 6.3059e-06
22050.0 6.0682e-06
22070.0 5.9218e-06
22090.0 5.9428e-06
22110.0 5.9639e-06
22130.0 5.985e-06
22150.0 6.0055e-06
22170.0 6.0256e-06
22190.0 6.0459e-06
22210.0 6.0658e-06
22230.0 6.0851e-06
22250.0 6.1043e-06
22270.0 6.1235e-06
22290.0 6.1423e-06
22310.0 6.1608e-06
22330.0 6.1796e-06
22350.0 6.1982e-06
22370.0 6.2167e-06
22390.0 6.2353e-06
22410.0 6.254e-06
22430.0 6.2727e-06
22450.0 6.2916e-06
22470.0 6.3107e-06
22490.0 6.33e-06
22510.0 6.3493e-06
22530.0 6.3691e-06
22550.0 6.3891e-06
22570.0 6.4092e-06
22590.0 6.4296e-06
22610.0 6.4503e-06
22630.0 6.4711e-06
22650.0 6.4922e-06
22670.0 6.5135e-06
22690.0 6.5351e-06
22710.0 6.5568e-06
22730.0 6.5787e-06
22750.0 6.6009e-06
22770.0 6.6232e-06
22790.0 6.6457e-06
22810.0 6.6685e-06
22830.0 6.6915e-06
