#lamb flux
1010.0 3.5722e-05
1030.0 3.886e-05
1050.0 4.2564e-05
1070.0 4.6734e-05
1090.0 5.1443e-05
1110.0 5.6279e-05
1130.0 6.1151e-05
1150.0 6.6256e-05
1170.0 7.152e-05
1190.0 7.6506e-05
1210.0 8.1551e-05
1230.0 8.675e-05
1250.0 9.1833e-05
1270.0 9.6748e-05
1290.0 0.00010192
1310.0 0.00010706
1330.0 0.00011197
1350.0 0.00011691
1370.0 0.00012199
1390.0 0.00012693
1410.0 0.00013171
1430.0 0.00013671
1450.0 0.00014171
1470.0 0.00014654
1490.0 0.00015144
1510.0 0.00015664
1530.0 0.00016158
1550.0 0.00016647
1570.0 0.00017157
1590.0 0.00017669
1610.0 0.00018162
1630.0 0.00018675
1650.0 0.00019203
1670.0 0.00019718
1690.0 0.00020229
1710.0 0.00020762
1730.0 0.000213
1750.0 0.00021807
1770.0 0.0002233
1790.0 0.00022863
1810.0 0.00023378
1830.0 0.00023881
1850.0 0.00024411
1870.0 0.00024923
1890.0 0.00025411
1910.0 0.00025901
1930.0 0.00026395
1950.0 0.00026854
1970.0 0.00027297
1990.0 0.00027747
2010.0 0.00028176
2030.0 0.00028574
2050.0 0.00028974
2070.0 0.00029373
2090.0 0.00029731
2110.0 0.00030077
2130.0 0.00030425
2150.0 0.00030754
2170.0 0.00031053
2190.0 0.00031361
2210.0 0.00031665
2230.0 0.00031944
2250.0 0.00032216
2270.0 0.00032505
2290.0 0.00032776
2310.0 0.00033027
2330.0 0.0003329
2350.0 0.00033557
2370.0 0.00033806
2390.0 0.00034063
2410.0 0.00034346
2430.0 0.00034625
2450.0 0.00034906
2470.0 0.00035219
2490.0 0.00035567
2510.0 0.00035938
2530.0 0.00036427
2550.0 0.00037179
2570.0 0.00038342
2590.0 0.00040115
2610.0 0.00043008
2630.0 0.00047185
2650.0 0.00052474
2670.0 0.00058974
2690.0 0.00066467
2710.0 0.00073893
2730.0 0.00080623
2750.0 0.00086502
2770.0 0.00090671
2790.0 0.00092896
2810.0 0.00093377
2830.0 0.00092155
2850.0 0.00089715
2870.0 0.00086464
2890.0 0.00082533
2910.0 0.0007828
2930.0 0.00074073
2950.0 0.00069653
2970.0 0.00065123
2990.0 0.00060773
3010.0 0.00082202
3030.0 0.0007578
3050.0 0.00069434
3070.0 0.000636
3090.0 0.00057763
3110.0 0.00052188
3130.0 0.00047384
3150.0 0.00044142
3170.0 0.00041556
3190.0 0.00068591
3210.0 0.0019305
3230.0 0.0039466
3250.0 0.0050078
3270.0 0.0044221
3290.0 0.0033943
3310.0 0.002809
3330.0 0.0026319
3350.0 0.0027025
3370.0 0.0028459
3390.0 0.0029984
3410.0 0.0031524
3430.0 0.0032966
3450.0 0.0034528
3470.0 0.0036228
3490.0 0.0037386
3510.0 0.0036196
3530.0 0.0036971
3550.0 0.0046368
3570.0 0.0058228
3590.0 0.0064302
3610.0 0.0066313
3630.0 0.0067953
3650.0 0.0067861
3670.0 0.0071935
3690.0 0.0086082
3710.0 0.0102
3730.0 0.011242
3750.0 0.011981
3770.0 0.012128
3790.0 0.011659
3810.0 0.010777
3830.0 0.0094223
3850.0 0.0079876
3870.0 0.0072473
3890.0 0.0081071
3910.0 0.010255
3930.0 0.012403
3950.0 0.013679
3970.0 0.014219
3990.0 0.014813
4010.0 0.015155
4030.0 0.013673
4050.0 0.010791
4070.0 0.0093119
4090.0 0.0098153
4110.0 0.010806
4130.0 0.011362
4150.0 0.011423
4170.0 0.011162
4190.0 0.010972
4210.0 0.011251
4230.0 0.011907
4250.0 0.01244
4270.0 0.012639
4290.0 0.012464
4310.0 0.012545
4330.0 0.013306
4350.0 0.014207
4370.0 0.014141
4390.0 0.013115
4410.0 0.011576
4430.0 0.0096912
4450.0 0.0083605
4470.0 0.0083172
4490.0 0.0090849
4510.0 0.010067
4530.0 0.011128
4550.0 0.012791
4570.0 0.015984
4590.0 0.020537
4610.0 0.024258
4630.0 0.026134
4650.0 0.027677
4670.0 0.029177
4690.0 0.028537
4710.0 0.024887
4730.0 0.020059
4750.0 0.016169
4770.0 0.013822
4790.0 0.012957
4810.0 0.012954
4830.0 0.013861
4850.0 0.015671
4870.0 0.017293
4890.0 0.017822
4910.0 0.018241
4930.0 0.019953
4950.0 0.022263
4970.0 0.023454
4990.0 0.022806
5010.0 0.020426
5030.0 0.017107
5050.0 0.014298
5070.0 0.01258
5090.0 0.011875
5110.0 0.011875
5130.0 0.01199
5150.0 0.011883
5170.0 0.011621
5190.0 0.011749
5210.0 0.012624
5230.0 0.014213
5250.0 0.016598
5270.0 0.019089
5290.0 0.02079
5310.0 0.022156
5330.0 0.023882
5350.0 0.025168
5370.0 0.024895
5390.0 0.02357
5410.0 0.022598
5430.0 0.023329
5450.0 0.026107
5470.0 0.029535
5490.0 0.031915
5510.0 0.032654
5530.0 0.032234
5550.0 0.031185
5570.0 0.029907
5590.0 0.028706
5610.0 0.02783
5630.0 0.027439
5650.0 0.026858
5670.0 0.025172
5690.0 0.022764
5710.0 0.020604
5730.0 0.019055
5750.0 0.018497
5770.0 0.018869
5790.0 0.019316
5810.0 0.019433
5830.0 0.019379
5850.0 0.018957
5870.0 0.018311
5890.0 0.01811
5910.0 0.018299
5930.0 0.017969
5950.0 0.016706
5970.0 0.014723
5990.0 0.012494
6010.0 0.010874
6030.0 0.010414
6050.0 0.010981
6070.0 0.01151
6090.0 0.011124
6110.0 0.010495
6130.0 0.010708
6150.0 0.011612
6170.0 0.012442
6190.0 0.012917
6210.0 0.013064
6230.0 0.012708
6250.0 0.011579
6270.0 0.0099655
6290.0 0.0086389
6310.0 0.0081688
6330.0 0.0084171
6350.0 0.0088491
6370.0 0.0094048
6390.0 0.010594
6410.0 0.012381
6430.0 0.013868
6450.0 0.014609
6470.0 0.015019
6490.0 0.015319
6510.0 0.015443
6530.0 0.015526
6550.0 0.015735
6570.0 0.015997
6590.0 0.016175
6610.0 0.015982
6630.0 0.015265
6650.0 0.01418
6670.0 0.013147
6690.0 0.012481
6710.0 0.011977
6730.0 0.011443
6750.0 0.011187
6770.0 0.011444
6790.0 0.011812
6810.0 0.011925
6830.0 0.011736
6850.0 0.011277
6870.0 0.010809
6890.0 0.010546
6910.0 0.010575
6930.0 0.010754
6950.0 0.010896
6970.0 0.011021
6990.0 0.010986
7010.0 0.010638
7030.0 0.0099156
7050.0 0.008975
7070.0 0.0083165
7090.0 0.0082294
7110.0 0.008364
7130.0 0.0080772
7150.0 0.0075012
7170.0 0.0074277
7190.0 0.008091
7210.0 0.0090206
7230.0 0.0097745
7250.0 0.010082
7270.0 0.0098638
7290.0 0.009356
7310.0 0.0089679
7330.0 0.0089821
7350.0 0.0091988
7370.0 0.0093742
7390.0 0.0097775
7410.0 0.010585
7430.0 0.01151
7450.0 0.012228
7470.0 0.012437
7490.0 0.011841
7510.0 0.011005
7530.0 0.010555
7550.0 0.010031
7570.0 0.0094749
7590.0 0.009206
7610.0 0.0092294
7630.0 0.0095649
7650.0 0.010244
7670.0 0.01111
7690.0 0.0119
7710.0 0.012475
7730.0 0.012962
7750.0 0.013367
7770.0 0.01356
7790.0 0.013777
7810.0 0.013809
7830.0 0.013395
7850.0 0.012934
7870.0 0.012678
7890.0 0.012689
7910.0 0.01272
7930.0 0.012442
7950.0 0.012044
7970.0 0.011625
7990.0 0.011264
8010.0 0.010747
8030.0 0.010777
8050.0 0.010772
8070.0 0.01064
8090.0 0.010547
8110.0 0.010395
8130.0 0.010414
8150.0 0.010347
8170.0 0.010175
8190.0 0.009899
8210.0 0.0095831
8230.0 0.0092847
8250.0 0.0091844
8270.0 0.0086625
8290.0 0.0075284
8310.0 0.0062599
8330.0 0.0053961
8350.0 0.0051819
8370.0 0.0057463
8390.0 0.006568
8410.0 0.0070157
8430.0 0.0072868
8450.0 0.0077927
8470.0 0.0084179
8490.0 0.0092673
8510.0 0.010253
8530.0 0.011283
8550.0 0.012104
8570.0 0.012715
8590.0 0.013175
8610.0 0.013442
8630.0 0.01341
8650.0 0.013192
8670.0 0.013221
8690.0 0.013909
8710.0 0.014839
8730.0 0.015291
8750.0 0.015193
8770.0 0.01536
8790.0 0.015376
8810.0 0.014714
8830.0 0.013664
8850.0 0.012343
8870.0 0.011339
8890.0 0.011036
8910.0 0.010854
8930.0 0.010171
8950.0 0.0094217
8970.0 0.0091191
8990.0 0.0091533
9010.0 0.0089959
9030.0 0.0088361
9050.0 0.0087542
9070.0 0.0087106
9090.0 0.0086725
9110.0 0.0086354
9130.0 0.0085985
9150.0 0.0085624
9170.0 0.0085252
9190.0 0.0084946
9210.0 0.008476
9230.0 0.0084336
9250.0 0.0083951
9270.0 0.0083591
9290.0 0.0083249
9310.0 0.0082913
9330.0 0.0082587
9350.0 0.0082275
9370.0 0.0081966
9390.0 0.0081656
9410.0 0.0081355
9430.0 0.008104
9450.0 0.0080617
9470.0 0.0080237
9490.0 0.0080066
9510.0 0.0079837
9530.0 0.0079598
9550.0 0.0079343
9570.0 0.0079081
9590.0 0.0078821
9610.0 0.0078561
9630.0 0.0078296
9650.0 0.0078036
9670.0 0.0077785
9690.0 0.0077529
9710.0 0.0077274
9730.0 0.0077027
9750.0 0.007678
9770.0 0.0076527
9790.0 0.0076281
9810.0 0.007604
9830.0 0.0075794
9850.0 0.0075545
9870.0 0.0075308
9890.0 0.0075067
9910.0 0.0074821
9930.0 0.0074575
9950.0 0.0074061
9970.0 0.0073895
9990.0 0.0073711
10010.0 0.0073526
10030.0 0.0073314
10050.0 0.0073079
10070.0 0.0072844
10090.0 0.0072611
10110.0 0.0072336
10130.0 0.0071997
10150.0 0.0071758
10170.0 0.0071525
10190.0 0.0071259
10210.0 0.0071008
10230.0 0.0070757
10250.0 0.0070474
10270.0 0.0070189
10290.0 0.0069921
10310.0 0.0069628
10330.0 0.006931
10350.0 0.0069016
10370.0 0.0068719
10390.0 0.0068395
10410.0 0.0068069
10430.0 0.0067765
10450.0 0.0067433
10470.0 0.0067083
10490.0 0.0066748
10510.0 0.006641
10530.0 0.0066028
10550.0 0.0065657
10570.0 0.0065301
10590.0 0.0064919
10610.0 0.0064518
10630.0 0.0064136
10650.0 0.0063744
10670.0 0.0063313
10690.0 0.0062891
10710.0 0.0062477
10730.0 0.0062033
10750.0 0.0061561
10770.0 0.0061124
10790.0 0.006067
10810.0 0.0060184
10830.0 0.0059703
10850.0 0.0059236
10870.0 0.0058718
10890.0 0.0058192
10910.0 0.0057683
10930.0 0.0057157
10950.0 0.0056594
10970.0 0.0056036
10990.0 0.0055495
11010.0 0.005944
11030.0 0.0058837
11050.0 0.0058257
11070.0 0.0057667
11090.0 0.0057035
11110.0 0.0056447
11130.0 0.0055872
11150.0 0.0055275
11170.0 0.0054681
11190.0 0.0054123
11210.0 0.0053552
11230.0 0.0052969
11250.0 0.0052415
11270.0 0.005188
11290.0 0.0051329
11310.0 0.0050788
11330.0 0.005029
11350.0 0.0049785
11370.0 0.0049272
11390.0 0.0048777
11410.0 0.0048285
11430.0 0.0047751
11450.0 0.004721
11470.0 0.0046663
11490.0 0.0046076
11510.0 0.0045435
11530.0 0.0044787
11550.0 0.004411
11570.0 0.0043372
11590.0 0.0042608
11610.0 0.0041841
11630.0 0.0041023
11650.0 0.0040166
11670.0 0.0039334
11690.0 0.0038495
11710.0 0.0037626
11730.0 0.0036768
11750.0 0.0035945
11770.0 0.0035099
11790.0 0.003425
11810.0 0.0033436
11830.0 0.0032632
11850.0 0.00318
11870.0 0.0031001
11890.0 0.0030237
11910.0 0.0029464
11930.0 0.0028699
11950.0 0.0027979
11970.0 0.0027272
11990.0 0.0026562
12010.0 0.0025896
12030.0 0.002527
12050.0 0.002466
12070.0 0.0024074
12090.0 0.0023556
12110.0 0.0023068
12130.0 0.0022612
12150.0 0.002221
12170.0 0.002186
12190.0 0.0021544
12210.0 0.0021283
12230.0 0.0021079
12250.0 0.0020924
12270.0 0.002082
12290.0 0.0020767
12310.0 0.0020757
12330.0 0.0020794
12350.0 0.0020873
12370.0 0.0020977
12390.0 0.0021113
12410.0 0.0021287
12430.0 0.0021464
12450.0 0.0021647
12470.0 0.0021847
12490.0 0.0022047
12510.0 0.0022229
12530.0 0.0022411
12550.0 0.0022586
12570.0 0.0022734
12590.0 0.0022857
12610.0 0.0022963
12630.0 0.0023037
12650.0 0.0023065
12670.0 0.0023061
12690.0 0.0023018
12710.0 0.0022931
12730.0 0.0022802
12750.0 0.002263
12770.0 0.0022416
12790.0 0.0022167
12810.0 0.0021882
12830.0 0.0021561
12850.0 0.0021224
12870.0 0.0020871
12890.0 0.0020495
12910.0 0.0020115
12930.0 0.001974
12950.0 0.0019357
12970.0 0.0018974
12990.0 0.0018611
13010.0 0.0018258
13030.0 0.0017907
13050.0 0.0017572
13070.0 0.0017256
13090.0 0.0016943
13110.0 0.0016639
13130.0 0.0016353
13150.0 0.0016076
13170.0 0.0015801
13190.0 0.0015542
13210.0 0.0015297
13230.0 0.0015056
13250.0 0.0014824
13270.0 0.0014606
13290.0 0.0014396
13310.0 0.001419
13330.0 0.0013996
13350.0 0.0013814
13370.0 0.0013636
13390.0 0.0013465
13410.0 0.0013308
13430.0 0.0013156
13450.0 0.001301
13470.0 0.0012872
13490.0 0.0012742
13510.0 0.0012613
13530.0 0.0012488
13550.0 0.001237
13570.0 0.0012252
13590.0 0.0012134
13610.0 0.0012019
13630.0 0.0011906
13650.0 0.001179
13670.0 0.0011674
13690.0 0.0011561
13710.0 0.0011446
13730.0 0.0011329
13750.0 0.0011217
13770.0 0.0011107
13790.0 0.0010996
13810.0 0.0010889
13830.0 0.0010787
13850.0 0.0010686
13870.0 0.0010588
13890.0 0.0010495
13910.0 0.0010406
13930.0 0.0010317
13950.0 0.0010232
13970.0 0.0010152
13990.0 0.0010072
14010.0 0.00099923
14030.0 0.00099145
14050.0 0.00098368
14070.0 0.00097547
14090.0 0.00096729
14110.0 0.00095915
14130.0 0.00095068
14150.0 0.00094192
14170.0 0.00093345
14190.0 0.00092501
14210.0 0.00091641
14230.0 0.00090815
14250.0 0.00090045
14270.0 0.0008929
14290.0 0.00088579
14310.0 0.00087964
14330.0 0.00087411
14350.0 0.00086914
14370.0 0.00086498
14390.0 0.0008616
14410.0 0.0008587
14430.0 0.00085635
14450.0 0.00085455
14470.0 0.00085311
14490.0 0.00085187
14510.0 0.00085091
14530.0 0.00085014
14550.0 0.00084946
14570.0 0.00084891
14590.0 0.00084861
14610.0 0.00084855
14630.0 0.00084886
14650.0 0.00084974
14670.0 0.00085133
14690.0 0.00085385
14710.0 0.00085758
14730.0 0.00086247
14750.0 0.00086892
14770.0 0.00087729
14790.0 0.00088742
14810.0 0.00089932
14830.0 0.00091417
14850.0 0.00093124
14870.0 0.00094994
14890.0 0.00097091
14910.0 0.00099402
14930.0 0.0010173
14950.0 0.0010401
14970.0 0.0010627
14990.0 0.0010831
15010.0 0.0011002
15030.0 0.0011146
15050.0 0.0011264
15070.0 0.001135
15090.0 0.0011419
15110.0 0.0011476
15130.0 0.0011525
15150.0 0.0011569
15170.0 0.0011612
15190.0 0.0011655
15210.0 0.0011699
15230.0 0.0011743
15250.0 0.0011788
15270.0 0.0011834
15290.0 0.001188
15310.0 0.0011928
15330.0 0.0011976
15350.0 0.0012026
15370.0 0.0012076
15390.0 0.0012127
15410.0 0.0012179
15430.0 0.0012232
15450.0 0.0012285
15470.0 0.0012339
15490.0 0.0012394
15510.0 0.001245
15530.0 0.0012506
15550.0 0.0012564
15570.0 0.0012622
15590.0 0.001268
15610.0 0.001274
15630.0 0.00128
15650.0 0.001286
15670.0 0.0012922
15690.0 0.0012984
15710.0 0.0013046
15730.0 0.0013109
15750.0 0.0013173
15770.0 0.0013237
15790.0 0.0013302
15810.0 0.0013367
15830.0 0.0013433
15850.0 0.0013499
15870.0 0.0013566
15890.0 0.0013633
15910.0 0.0013701
15930.0 0.0013769
15950.0 0.0013837
15970.0 0.0013906
15990.0 0.0013975
16010.0 0.0014044
16030.0 0.0014114
16050.0 0.0014183
16070.0 0.0014254
16090.0 0.0014324
16110.0 0.0014394
16130.0 0.0014465
16150.0 0.0014536
16170.0 0.0014607
16190.0 0.0014678
16210.0 0.0014749
16230.0 0.001482
16250.0 0.0014891
16270.0 0.0014963
16290.0 0.0015034
16310.0 0.0015105
16330.0 0.0015176
16350.0 0.0015247
16370.0 0.0015317
16390.0 0.0015388
16410.0 0.0015458
16430.0 0.0015529
16450.0 0.0015599
16470.0 0.0015668
16490.0 0.0015738
16510.0 0.0015807
16530.0 0.0015875
16550.0 0.0015944
16570.0 0.0016011
16590.0 0.0016079
16610.0 0.0016146
16630.0 0.0016212
16650.0 0.0016278
16670.0 0.0016343
16690.0 0.0016408
16710.0 0.0016472
16730.0 0.0016536
16750.0 0.0016599
16770.0 0.0016661
16790.0 0.0016722
16810.0 0.0016783
16830.0 0.0016843
16850.0 0.0016902
16870.0 0.0016961
16890.0 0.0017018
16910.0 0.0017075
16930.0 0.001713
16950.0 0.0017185
16970.0 0.0017239
16990.0 0.0017292
17010.0 0.0017344
17030.0 0.0017394
17050.0 0.0017444
17070.0 0.0017493
17090.0 0.001754
17110.0 0.0017587
17130.0 0.0017632
17150.0 0.0017676
17170.0 0.0017719
17190.0 0.0017761
17210.0 0.0017801
17230.0 0.0017841
17250.0 0.0017879
17270.0 0.0017915
17290.0 0.0017951
17310.0 0.0017985
17330.0 0.0018018
17350.0 0.0018049
17370.0 0.0018079
17390.0 0.0018108
17410.0 0.0018135
17430.0 0.0018161
17450.0 0.0018186
17470.0 0.0018209
17490.0 0.001823
17510.0 0.001825
17530.0 0.0018269
17550.0 0.0018286
17570.0 0.0018302
17590.0 0.0018316
17610.0 0.0018329
17630.0 0.001834
17650.0 0.001835
17670.0 0.0018358
17690.0 0.0018365
17710.0 0.001837
17730.0 0.0018373
17750.0 0.0018375
17770.0 0.0018376
17790.0 0.0018375
17810.0 0.0018373
17830.0 0.0018368
17850.0 0.0018363
17870.0 0.0018356
17890.0 0.0018347
17910.0 0.0018337
17930.0 0.0018325
17950.0 0.0018312
17970.0 0.0018297
17990.0 0.0018281
18010.0 0.0018263
18030.0 0.0018244
18050.0 0.0018223
18070.0 0.0018201
18090.0 0.0018177
18110.0 0.0018152
18130.0 0.0018126
18150.0 0.0018098
18170.0 0.0018068
18190.0 0.0018037
18210.0 0.0018005
18230.0 0.0017971
18250.0 0.0017936
18270.0 0.00179
18290.0 0.0017862
18310.0 0.0017823
18330.0 0.0017783
18350.0 0.0017741
18370.0 0.0017698
18390.0 0.0017654
18410.0 0.0017609
18430.0 0.0017562
18450.0 0.0017514
18470.0 0.0017465
18490.0 0.0017415
18510.0 0.0017363
18530.0 0.001731
18550.0 0.0017257
18570.0 0.0017202
18590.0 0.0017146
18610.0 0.0017089
18630.0 0.0017031
18650.0 0.0016972
18670.0 0.0016912
18690.0 0.0016851
18710.0 0.001679
18730.0 0.0016727
18750.0 0.0016663
18770.0 0.0016598
18790.0 0.0016533
18810.0 0.0016467
18830.0 0.0016399
18850.0 0.0016332
18870.0 0.0016263
18890.0 0.0016193
18910.0 0.0016123
18930.0 0.0016052
18950.0 0.0015981
18970.0 0.0015909
18990.0 0.0015836
19010.0 0.0015762
19030.0 0.0015688
19050.0 0.0015613
19070.0 0.0015538
19090.0 0.0015463
19110.0 0.0015386
19130.0 0.001531
19150.0 0.0015232
19170.0 0.0015155
19190.0 0.0015077
19210.0 0.0014998
19230.0 0.001492
19250.0 0.001484
19270.0 0.0014761
19290.0 0.0014681
19310.0 0.0014601
19330.0 0.0014521
19350.0 0.001444
19370.0 0.0014359
19390.0 0.0014278
19410.0 0.0014197
19430.0 0.0014115
19450.0 0.0014034
19470.0 0.0013952
19490.0 0.001387
19510.0 0.0013788
19530.0 0.0013707
19550.0 0.0013624
19570.0 0.0013542
19590.0 0.001346
19610.0 0.0013378
19630.0 0.0013296
19650.0 0.0013214
19670.0 0.0013132
19690.0 0.001305
19710.0 0.0012968
19730.0 0.0012886
19750.0 0.0012804
19770.0 0.0012722
19790.0 0.0012641
19810.0 0.0012559
19830.0 0.0012477
19850.0 0.0012395
19870.0 0.0012312
19890.0 0.0012227
19910.0 0.0012138
19930.0 0.0012041
19950.0 0.0011935
19970.0 0.0011812
19990.0 0.0011671
20010.0 0.0011513
20030.0 0.0011332
20050.0 0.001113
20070.0 0.0010916
20090.0 0.0010693
20110.0 0.0010453
20130.0 0.0010216
20150.0 0.00099855
20170.0 0.00097535
20190.0 0.00095237
20210.0 0.00093069
20230.0 0.00090967
20250.0 0.00088884
20270.0 0.0008692
20290.0 0.00085079
20310.0 0.00083295
20330.0 0.00081574
20350.0 0.00080029
20370.0 0.00078565
20390.0 0.00077174
20410.0 0.00075897
20430.0 0.00074736
20450.0 0.00073629
20470.0 0.00072615
20490.0 0.00071701
20510.0 0.00070857
20530.0 0.00070074
20550.0 0.00069363
20570.0 0.00068714
20590.0 0.00068107
20610.0 0.00067543
20630.0 0.00067017
20650.0 0.00066518
20670.0 0.0006604
20690.0 0.00065578
20710.0 0.00065123
20730.0 0.0006467
20750.0 0.00064212
20770.0 0.00063747
20790.0 0.0006327
20810.0 0.00062773
20830.0 0.00062259
20850.0 0.00061727
20870.0 0.00061165
20890.0 0.00060579
20910.0 0.0005998
20930.0 0.00059356
20950.0 0.00058706
20970.0 0.00058046
20990.0 0.00057377
21010.0 0.0005668
21030.0 0.00055978
21050.0 0.00055281
21070.0 0.00054574
21090.0 0.00053856
21110.0 0.00053156
21130.0 0.00052465
21150.0 0.00051769
21170.0 0.00051086
21190.0 0.00050426
21210.0 0.00049766
21230.0 0.00049113
21250.0 0.00048489
21270.0 0.00047881
21290.0 0.00047281
21310.0 0.00046701
21330.0 0.00046151
21350.0 0.00045611
21370.0 0.00045088
21390.0 0.00044592
21410.0 0.00044117
21430.0 0.00043653
21450.0 0.00043216
21470.0 0.00042804
21490.0 0.00042409
21510.0 0.00042033
21530.0 0.00041679
21550.0 0.00041343
21570.0 0.00041021
21590.0 0.00040717
21610.0 0.00040427
21630.0 0.0004015
21650.0 0.00039884
21670.0 0.00039629
21690.0 0.00039382
21710.0 0.00039142
21730.0 0.00038909
21750.0 0.00038681
21770.0 0.00038458
21790.0 0.0003824
21810.0 0.00038024
21830.0 0.00037813
21850.0 0.00037605
21870.0 0.00037399
21890.0 0.00037195
21910.0 0.00036994
21930.0 0.00036794
21950.0 0.00036595
21970.0 0.00036396
21990.0 0.00036198
22010.0 0.00035998
22030.0 0.00035797
22050.0 0.00035593
22070.0 0.00035386
22090.0 0.00035176
22110.0 0.00034962
22130.0 0.00034742
22150.0 0.00034519
22170.0 0.00034291
22190.0 0.00034056
22210.0 0.00033815
22230.0 0.00033573
22250.0 0.00033323
22270.0 0.00033066
22290.0 0.00032806
22310.0 0.00032541
22330.0 0.00032264
22350.0 0.0003198
22370.0 0.00031692
22390.0 0.00031392
22410.0 0.00031076
22430.0 0.00030757
22450.0 0.00030429
22470.0 0.00030081
22490.0 0.00029723
22510.0 0.00029361
22530.0 0.00028978
22550.0 0.00028578
22570.0 0.00028179
22590.0 0.00027772
22610.0 0.00027349
22630.0 0.00026924
22650.0 0.00026509
22670.0 0.00026084
22690.0 0.00025657
22710.0 0.00025245
22730.0 0.00024841
22750.0 0.00024429
22770.0 0.0002404
22790.0 0.00023672
22810.0 0.0002331
22830.0 0.00022962
22850.0 0.0002264
22870.0 0.00022331
22890.0 0.00022031
22910.0 0.00021753
22930.0 0.00021495
22950.0 0.00021246
22970.0 0.00021008
22990.0 0.00020794
23010.0 0.00020587
23030.0 0.00020387
23050.0 0.000202
23070.0 0.00020022
23090.0 0.00019845
23110.0 0.00019675
23130.0 0.00019512
23150.0 0.00019352
23170.0 0.00019192
23190.0 0.00019038
23210.0 0.00018889
23230.0 0.00018739
23250.0 0.00018593
23270.0 0.00018454
23290.0 0.00018317
23310.0 0.00018181
23330.0 0.00018054
23350.0 0.00017933
23370.0 0.00017816
23390.0 0.00017705
23410.0 0.00017602
23430.0 0.00017504
23450.0 0.00017411
23470.0 0.00017324
23490.0 0.00017244
23510.0 0.00017166
23530.0 0.00017094
23550.0 0.00017028
23570.0 0.00016965
23590.0 0.00016907
23610.0 0.00016855
23630.0 0.00016808
23650.0 0.00016769
23670.0 0.00016737
