#lamb flux
1010.0 8.7311e-07
1030.0 9.305e-07
1050.0 1.0461e-06
1070.0 1.1757e-06
1090.0 1.3112e-06
1110.0 1.4505e-06
1130.0 1.5905e-06
1150.0 1.737e-06
1170.0 1.8868e-06
1190.0 2.0253e-06
1210.0 2.1619e-06
1230.0 2.2982e-06
1250.0 2.4275e-06
1270.0 2.5453e-06
1290.0 2.6633e-06
1310.0 2.7731e-06
1330.0 2.8695e-06
1350.0 2.9613e-06
1370.0 3.053e-06
1390.0 3.1387e-06
1410.0 3.2205e-06
1430.0 3.3108e-06
1450.0 3.4063e-06
1470.0 3.5054e-06
1490.0 3.6165e-06
1510.0 3.7474e-06
1530.0 3.8866e-06
1550.0 4.0412e-06
1570.0 4.2187e-06
1590.0 4.4165e-06
1610.0 4.6305e-06
1630.0 4.8747e-06
1650.0 5.1454e-06
1670.0 5.4345e-06
1690.0 5.7439e-06
1710.0 6.0803e-06
1730.0 6.4374e-06
1750.0 6.8018e-06
1770.0 7.1844e-06
1790.0 7.5808e-06
1810.0 7.9771e-06
1830.0 8.3706e-06
1850.0 8.77e-06
1870.0 9.1536e-06
1890.0 9.5135e-06
1910.0 9.8539e-06
1930.0 1.017e-05
1950.0 1.0443e-05
1970.0 1.0674e-05
1990.0 1.087e-05
2010.0 1.1017e-05
2030.0 1.111e-05
2050.0 1.1162e-05
2070.0 1.1173e-05
2090.0 1.1128e-05
2110.0 1.1043e-05
2130.0 1.0926e-05
2150.0 1.0775e-05
2170.0 1.059e-05
2190.0 1.039e-05
2210.0 1.0177e-05
2230.0 9.9487e-06
2250.0 9.7165e-06
2270.0 9.492e-06
2290.0 9.2693e-06
2310.0 9.052e-06
2330.0 8.8531e-06
2350.0 8.6728e-06
2370.0 8.5083e-06
2390.0 8.369e-06
2410.0 8.2626e-06
2430.0 8.1839e-06
2450.0 8.1374e-06
2470.0 8.1345e-06
2490.0 8.1797e-06
2510.0 8.2665e-06
2530.0 8.4208e-06
2550.0 8.6776e-06
2570.0 9.0651e-06
2590.0 9.6264e-06
2610.0 1.0495e-05
2630.0 1.1704e-05
2650.0 1.3211e-05
2670.0 1.5057e-05
2690.0 1.721e-05
2710.0 1.9421e-05
2730.0 2.1567e-05
2750.0 2.3679e-05
2770.0 2.5594e-05
2790.0 2.7282e-05
2810.0 2.8864e-05
2830.0 3.0446e-05
2850.0 3.199e-05
2870.0 3.3608e-05
2890.0 3.5382e-05
2910.0 3.7294e-05
2930.0 3.9299e-05
2950.0 4.1491e-05
2970.0 4.3861e-05
2990.0 4.6335e-05
3010.0 5.5457e-05
3030.0 5.863e-05
3050.0 6.1942e-05
3070.0 6.524e-05
3090.0 6.8578e-05
3110.0 7.177e-05
3130.0 7.4561e-05
3150.0 7.6844e-05
3170.0 7.8296e-05
3190.0 8.078e-05
3210.0 8.9096e-05
3230.0 0.00010196
3250.0 0.00010731
3270.0 0.00010168
3290.0 9.2739e-05
3310.0 8.8075e-05
3330.0 8.6169e-05
3350.0 8.6025e-05
3370.0 8.6479e-05
3390.0 8.754e-05
3410.0 8.8094e-05
3430.0 8.5342e-05
3450.0 8.4359e-05
3470.0 8.4088e-05
3490.0 9.4147e-05
3510.0 0.00012396
3530.0 0.0001538
3550.0 0.00017525
3570.0 0.00019561
3590.0 0.00020736
3610.0 0.00020601
3630.0 0.00020231
3650.0 0.00021268
3670.0 0.00024272
3690.0 0.00027937
3710.0 0.00031171
3730.0 0.00033865
3750.0 0.00036263
3770.0 0.00035828
3790.0 0.00033343
3810.0 0.00030855
3830.0 0.00028443
3850.0 0.00027464
3870.0 0.00028774
3890.0 0.000316
3910.0 0.00034495
3930.0 0.00037633
3950.0 0.00042207
3970.0 0.00045514
3990.0 0.00044111
4010.0 0.00040034
4030.0 0.00035178
4050.0 0.00032217
4070.0 0.00030946
4090.0 0.00030326
4110.0 0.00030743
4130.0 0.00030777
4150.0 0.00030914
4170.0 0.00032201
4190.0 0.00034369
4210.0 0.00034334
4230.0 0.00033834
4250.0 0.00033923
4270.0 0.00034905
4290.0 0.00036728
4310.0 0.00038458
4330.0 0.00037441
4350.0 0.00034147
4370.0 0.00030911
4390.0 0.00027695
4410.0 0.00024486
4430.0 0.00023216
4450.0 0.00023686
4470.0 0.00024688
4490.0 0.00026399
4510.0 0.00030123
4530.0 0.00037846
4550.0 0.00049315
4570.0 0.00057636
4590.0 0.00063602
4610.0 0.00072323
4630.0 0.00079008
4650.0 0.00076486
4670.0 0.00066859
4690.0 0.00056747
4710.0 0.00049767
4730.0 0.00045228
4750.0 0.00040789
4770.0 0.00037473
4790.0 0.00038587
4810.0 0.00041637
4830.0 0.00042852
4850.0 0.00041912
4870.0 0.0004294
4890.0 0.00045901
4910.0 0.000486
4930.0 0.00050345
4950.0 0.00050645
4970.0 0.00048609
4990.0 0.00044369
5010.0 0.00039715
5030.0 0.00035825
5050.0 0.00033244
5070.0 0.00031494
5090.0 0.00030139
5110.0 0.00029728
5130.0 0.00029715
5150.0 0.00030209
5170.0 0.00032435
5190.0 0.00036033
5210.0 0.00040798
5230.0 0.00045147
5250.0 0.000489
5270.0 0.00053132
5290.0 0.00057584
5310.0 0.0006045
5330.0 0.00060907
5350.0 0.00059772
5370.0 0.00059767
5390.0 0.00062394
5410.0 0.00067142
5430.0 0.00072145
5450.0 0.00076485
5470.0 0.0007944
5490.0 0.00080196
5510.0 0.0007987
5530.0 0.00079483
5550.0 0.00079104
5570.0 0.00078155
5590.0 0.00076875
5610.0 0.00075133
5630.0 0.0007208
5650.0 0.0006754
5670.0 0.0006337
5690.0 0.00061095
5710.0 0.00060041
5730.0 0.0005867
5750.0 0.00057891
5770.0 0.00058226
5790.0 0.00059234
5810.0 0.00059682
5830.0 0.00060247
5850.0 0.0006083
5870.0 0.00060065
5890.0 0.00058987
5910.0 0.00057485
5930.0 0.00053703
5950.0 0.0004907
5970.0 0.00045856
5990.0 0.00044523
6010.0 0.00043692
6030.0 0.0004223
6050.0 0.00041493
6070.0 0.00043155
6090.0 0.00045599
6110.0 0.0004679
6130.0 0.00046395
6150.0 0.00045494
6170.0 0.00045005
6190.0 0.0004447
6210.0 0.00042947
6230.0 0.00040053
6250.0 0.00037247
6270.0 0.00035576
6290.0 0.00034495
6310.0 0.00035266
6330.0 0.00038238
6350.0 0.00041974
6370.0 0.0004466
6390.0 0.00046831
6410.0 0.00049419
6430.0 0.00051404
6450.0 0.00052796
6470.0 0.00054151
6490.0 0.00055483
6510.0 0.00056422
6530.0 0.00056802
6550.0 0.00057125
6570.0 0.00056343
6590.0 0.00054279
6610.0 0.00052278
6630.0 0.0005054
6650.0 0.00048285
6670.0 0.00045618
6690.0 0.00043539
6710.0 0.000423
6730.0 0.00041059
6750.0 0.00040148
6770.0 0.00040116
6790.0 0.00040146
6810.0 0.00039463
6830.0 0.00038672
6850.0 0.00038909
6870.0 0.00039117
6890.0 0.00038443
6910.0 0.00038087
6930.0 0.00037869
6950.0 0.00037183
6970.0 0.00036186
6990.0 0.00035163
7010.0 0.00034287
7030.0 0.00033196
7050.0 0.00031286
7070.0 0.00029234
7090.0 0.00028847
7110.0 0.00029902
7130.0 0.00031056
7150.0 0.00031887
7170.0 0.00032831
7190.0 0.00033624
7210.0 0.00033497
7230.0 0.00033453
7250.0 0.00034063
7270.0 0.00033768
7290.0 0.0003309
7310.0 0.0003311
7330.0 0.00034097
7350.0 0.00035571
7370.0 0.00036517
7390.0 0.00037171
7410.0 0.00037834
7430.0 0.00037847
7450.0 0.00037294
7470.0 0.00036603
7490.0 0.00035117
7510.0 0.00033531
7530.0 0.00032923
7550.0 0.00032345
7570.0 0.00031793
7590.0 0.00031705
7610.0 0.00031533
7630.0 0.00031536
7650.0 0.00032564
7670.0 0.00034049
7690.0 0.00035438
7710.0 0.00036394
7730.0 0.0003723
7750.0 0.00038064
7770.0 0.00038836
7790.0 0.00039496
7810.0 0.00039575
7830.0 0.00038487
7850.0 0.0003691
7870.0 0.00035315
7890.0 0.0003389
7910.0 0.00033227
7930.0 0.00032526
7950.0 0.00031636
7970.0 0.00030651
7990.0 0.00030079
8010.0 0.00028115
8030.0 0.00027822
8050.0 0.00027481
8070.0 0.00026964
8090.0 0.0002649
8110.0 0.0002623
8130.0 0.00026147
8150.0 0.00025864
8170.0 0.00025444
8190.0 0.00024573
8210.0 0.00023156
8230.0 0.00021838
8250.0 0.00021174
8270.0 0.00020218
8290.0 0.00018541
8310.0 0.00016909
8330.0 0.00015838
8350.0 0.0001527
8370.0 0.00015667
8390.0 0.00016799
8410.0 0.00017842
8430.0 0.00018868
8450.0 0.00020204
8470.0 0.00021365
8490.0 0.00022637
8510.0 0.0002389
8530.0 0.00025106
8550.0 0.00026048
8570.0 0.00026703
8590.0 0.0002718
8610.0 0.00027649
8630.0 0.00027641
8650.0 0.00027013
8670.0 0.00026936
8690.0 0.00027753
8710.0 0.00028841
8730.0 0.00029093
8750.0 0.00028518
8770.0 0.00028395
8790.0 0.00028234
8810.0 0.00027321
8830.0 0.00025229
8850.0 0.00022703
8870.0 0.00020852
8890.0 0.00020101
8910.0 0.00019278
8930.0 0.00017874
8950.0 0.00016653
8970.0 0.00016217
8990.0 0.00016317
9010.0 0.00016248
9030.0 0.00016067
9050.0 0.00015936
9070.0 0.00015849
9090.0 0.00015768
9110.0 0.00015689
9130.0 0.0001561
9150.0 0.00015532
9170.0 0.00015454
9190.0 0.0001538
9210.0 0.00015311
9230.0 0.00015232
9250.0 0.00015156
9270.0 0.00015081
9290.0 0.00015007
9310.0 0.00014935
9330.0 0.00014863
9350.0 0.00014792
9370.0 0.00014722
9390.0 0.00014652
9410.0 0.00014584
9430.0 0.00014513
9450.0 0.00014429
9470.0 0.00014351
9490.0 0.00014299
9510.0 0.0001424
9530.0 0.00014181
9550.0 0.00014119
9570.0 0.00014056
9590.0 0.00013994
9610.0 0.00013932
9630.0 0.00013869
9650.0 0.00013807
9670.0 0.00013747
9690.0 0.00013686
9710.0 0.00013625
9730.0 0.00013565
9750.0 0.00013506
9770.0 0.00013445
9790.0 0.00013386
9810.0 0.00013328
9830.0 0.00013269
9850.0 0.00013208
9870.0 0.00013151
9890.0 0.00013094
9910.0 0.00013035
9930.0 0.00012978
9950.0 0.00012908
9970.0 0.00012853
9990.0 0.00012797
10010.0 0.0001274
10030.0 0.00012683
10050.0 0.00012627
10070.0 0.00012571
10090.0 0.00012515
10110.0 0.00012452
10130.0 0.00012367
10150.0 0.00012313
10170.0 0.00012264
10190.0 0.00012208
10210.0 0.00012154
10230.0 0.00012098
10250.0 0.00012037
10270.0 0.00011976
10290.0 0.00011918
10310.0 0.00011855
10330.0 0.00011789
10350.0 0.00011726
10370.0 0.00011664
10390.0 0.00011597
10410.0 0.00011531
10430.0 0.00011468
10450.0 0.00011401
10470.0 0.00011331
10490.0 0.00011264
10510.0 0.00011197
10530.0 0.00011123
10550.0 0.00011051
10570.0 0.00010982
10590.0 0.00010909
10610.0 0.00010833
10630.0 0.00010761
10650.0 0.00010687
10670.0 0.00010608
10690.0 0.0001053
10710.0 0.00010453
10730.0 0.00010373
10750.0 0.00010288
10770.0 0.00010209
10790.0 0.00010127
10810.0 0.00010041
10830.0 9.9559e-05
10850.0 9.8733e-05
10870.0 9.7831e-05
10890.0 9.6922e-05
10910.0 9.6047e-05
10930.0 9.5152e-05
10950.0 9.4211e-05
10970.0 9.3291e-05
10990.0 9.241e-05
11010.0 9.0896e-05
11030.0 8.9907e-05
11050.0 8.8981e-05
11070.0 8.8068e-05
11090.0 8.7126e-05
11110.0 8.6271e-05
11130.0 8.546e-05
11150.0 8.4652e-05
11170.0 8.3879e-05
11190.0 8.3182e-05
11210.0 8.2502e-05
11230.0 8.1843e-05
11250.0 8.1248e-05
11270.0 8.0703e-05
11290.0 8.0172e-05
11310.0 7.968e-05
11330.0 7.9249e-05
11350.0 7.8832e-05
11370.0 7.8426e-05
11390.0 7.8045e-05
11410.0 7.7675e-05
11430.0 7.7278e-05
11450.0 7.6874e-05
11470.0 7.646e-05
11490.0 7.6008e-05
11510.0 7.5503e-05
11530.0 7.4978e-05
11550.0 7.4415e-05
11570.0 7.3782e-05
11590.0 7.3107e-05
11610.0 7.2406e-05
11630.0 7.1634e-05
11650.0 7.0793e-05
11670.0 6.9942e-05
11690.0 6.9048e-05
11710.0 6.8079e-05
11730.0 6.7074e-05
11750.0 6.6064e-05
11770.0 6.4974e-05
11790.0 6.3825e-05
11810.0 6.2672e-05
11830.0 6.1485e-05
11850.0 6.0202e-05
11870.0 5.8928e-05
11890.0 5.7675e-05
11910.0 5.6376e-05
11930.0 5.5062e-05
11950.0 5.3808e-05
11970.0 5.2563e-05
11990.0 5.1301e-05
12010.0 5.0109e-05
12030.0 4.8986e-05
12050.0 4.7882e-05
12070.0 4.6816e-05
12090.0 4.5868e-05
12110.0 4.4968e-05
12130.0 4.411e-05
12150.0 4.3338e-05
12170.0 4.2653e-05
12190.0 4.2005e-05
12210.0 4.1442e-05
12230.0 4.0973e-05
12250.0 4.0575e-05
12270.0 4.025e-05
12290.0 4.0009e-05
12310.0 3.9842e-05
12330.0 3.9741e-05
12350.0 3.9706e-05
12370.0 3.9722e-05
12390.0 3.9787e-05
12410.0 3.9902e-05
12430.0 4.0038e-05
12450.0 4.0191e-05
12470.0 4.037e-05
12490.0 4.0557e-05
12510.0 4.0733e-05
12530.0 4.0915e-05
12550.0 4.1096e-05
12570.0 4.1254e-05
12590.0 4.1391e-05
12610.0 4.1513e-05
12630.0 4.1601e-05
12650.0 4.1643e-05
12670.0 4.1647e-05
12690.0 4.1603e-05
12710.0 4.1504e-05
12730.0 4.1352e-05
12750.0 4.1137e-05
12770.0 4.0863e-05
12790.0 4.054e-05
12810.0 4.016e-05
12830.0 3.9725e-05
12850.0 3.9266e-05
12870.0 3.878e-05
12890.0 3.8258e-05
12910.0 3.7729e-05
12930.0 3.7209e-05
12950.0 3.6675e-05
12970.0 3.6142e-05
12990.0 3.5644e-05
13010.0 3.5161e-05
13030.0 3.4685e-05
13050.0 3.4235e-05
13070.0 3.3818e-05
13090.0 3.3408e-05
13110.0 3.3015e-05
13130.0 3.265e-05
13150.0 3.2302e-05
13170.0 3.1959e-05
13190.0 3.1641e-05
13210.0 3.1345e-05
13230.0 3.1057e-05
13250.0 3.0782e-05
13270.0 3.0528e-05
13290.0 3.0284e-05
13310.0 3.0043e-05
13330.0 2.9816e-05
13350.0 2.9597e-05
13370.0 2.9378e-05
13390.0 2.9158e-05
13410.0 2.8945e-05
13430.0 2.8727e-05
13450.0 2.85e-05
13470.0 2.8269e-05
13490.0 2.8036e-05
13510.0 2.7783e-05
13530.0 2.7522e-05
13550.0 2.7261e-05
13570.0 2.6988e-05
13590.0 2.67e-05
13610.0 2.6414e-05
13630.0 2.6129e-05
13650.0 2.5831e-05
13670.0 2.5531e-05
13690.0 2.524e-05
13710.0 2.4946e-05
13730.0 2.4641e-05
13750.0 2.4354e-05
13770.0 2.4072e-05
13790.0 2.3785e-05
13810.0 2.3504e-05
13830.0 2.324e-05
13850.0 2.2973e-05
13870.0 2.2708e-05
13890.0 2.246e-05
13910.0 2.2222e-05
13930.0 2.1987e-05
13950.0 2.1764e-05
13970.0 2.1563e-05
13990.0 2.1369e-05
14010.0 2.1185e-05
14030.0 2.1018e-05
14050.0 2.0863e-05
14070.0 2.0712e-05
14090.0 2.0574e-05
14110.0 2.0448e-05
14130.0 2.0327e-05
14150.0 2.021e-05
14170.0 2.0104e-05
14190.0 2.0002e-05
14210.0 1.9901e-05
14230.0 1.9805e-05
14250.0 1.9714e-05
14270.0 1.9623e-05
14290.0 1.9533e-05
14310.0 1.9448e-05
14330.0 1.9366e-05
14350.0 1.9282e-05
14370.0 1.9201e-05
14390.0 1.9123e-05
14410.0 1.9044e-05
14430.0 1.8966e-05
14450.0 1.8891e-05
14470.0 1.8818e-05
14490.0 1.8742e-05
14510.0 1.867e-05
14530.0 1.86e-05
14550.0 1.8528e-05
14570.0 1.8454e-05
14590.0 1.8383e-05
14610.0 1.8309e-05
14630.0 1.823e-05
14650.0 1.8154e-05
14670.0 1.8081e-05
14690.0 1.8009e-05
14710.0 1.7945e-05
14730.0 1.7898e-05
14750.0 1.7868e-05
14770.0 1.7862e-05
14790.0 1.7888e-05
14810.0 1.795e-05
14830.0 1.8059e-05
14850.0 1.8217e-05
14870.0 1.8417e-05
14890.0 1.8666e-05
14910.0 1.8963e-05
14930.0 1.9278e-05
14950.0 1.9598e-05
14970.0 1.9923e-05
14990.0 2.022e-05
15010.0 2.0471e-05
15030.0 2.0681e-05
15050.0 2.0849e-05
15070.0 2.0969e-05
15090.0 2.1059e-05
15110.0 2.113e-05
15130.0 2.1187e-05
15150.0 2.1237e-05
15170.0 2.1284e-05
15190.0 2.133e-05
15210.0 2.1377e-05
15230.0 2.1424e-05
15250.0 2.1472e-05
15270.0 2.1521e-05
15290.0 2.1571e-05
15310.0 2.1622e-05
15330.0 2.1674e-05
15350.0 2.1728e-05
15370.0 2.1782e-05
15390.0 2.1837e-05
15410.0 2.1893e-05
15430.0 2.195e-05
15450.0 2.2007e-05
15470.0 2.2066e-05
15490.0 2.2126e-05
15510.0 2.2186e-05
15530.0 2.2248e-05
15550.0 2.231e-05
15570.0 2.2373e-05
15590.0 2.2437e-05
15610.0 2.2502e-05
15630.0 2.2568e-05
15650.0 2.2634e-05
15670.0 2.2701e-05
15690.0 2.2769e-05
15710.0 2.2838e-05
15730.0 2.2907e-05
15750.0 2.2977e-05
15770.0 2.3048e-05
15790.0 2.3119e-05
15810.0 2.3191e-05
15830.0 2.3263e-05
15850.0 2.3337e-05
15870.0 2.3411e-05
15890.0 2.3485e-05
15910.0 2.356e-05
15930.0 2.3635e-05
15950.0 2.3711e-05
15970.0 2.3788e-05
15990.0 2.3864e-05
16010.0 2.3942e-05
16030.0 2.4019e-05
16050.0 2.4098e-05
16070.0 2.4176e-05
16090.0 2.4255e-05
16110.0 2.4334e-05
16130.0 2.4413e-05
16150.0 2.4493e-05
16170.0 2.4573e-05
16190.0 2.4653e-05
16210.0 2.4733e-05
16230.0 2.4813e-05
16250.0 2.4894e-05
16270.0 2.4975e-05
16290.0 2.5056e-05
16310.0 2.5136e-05
16330.0 2.5217e-05
16350.0 2.5298e-05
16370.0 2.5379e-05
16390.0 2.546e-05
16410.0 2.554e-05
16430.0 2.5621e-05
16450.0 2.5701e-05
16470.0 2.5781e-05
16490.0 2.5861e-05
16510.0 2.5941e-05
16530.0 2.6021e-05
16550.0 2.61e-05
16570.0 2.6179e-05
16590.0 2.6257e-05
16610.0 2.6335e-05
16630.0 2.6413e-05
16650.0 2.649e-05
16670.0 2.6567e-05
16690.0 2.6643e-05
16710.0 2.6719e-05
16730.0 2.6794e-05
16750.0 2.6869e-05
16770.0 2.6943e-05
16790.0 2.7016e-05
16810.0 2.7088e-05
16830.0 2.716e-05
16850.0 2.7231e-05
16870.0 2.7302e-05
16890.0 2.7371e-05
16910.0 2.744e-05
16930.0 2.7507e-05
16950.0 2.7574e-05
16970.0 2.764e-05
16990.0 2.7705e-05
17010.0 2.7769e-05
17030.0 2.7832e-05
17050.0 2.7894e-05
17070.0 2.7955e-05
17090.0 2.8015e-05
17110.0 2.8073e-05
17130.0 2.8131e-05
17150.0 2.8187e-05
17170.0 2.8242e-05
17190.0 2.8296e-05
17210.0 2.8349e-05
17230.0 2.84e-05
17250.0 2.845e-05
17270.0 2.8498e-05
17290.0 2.8546e-05
17310.0 2.8592e-05
17330.0 2.8636e-05
17350.0 2.8679e-05
17370.0 2.8721e-05
17390.0 2.8761e-05
17410.0 2.88e-05
17430.0 2.8837e-05
17450.0 2.8872e-05
17470.0 2.8906e-05
17490.0 2.8939e-05
17510.0 2.897e-05
17530.0 2.8999e-05
17550.0 2.9027e-05
17570.0 2.9053e-05
17590.0 2.9077e-05
17610.0 2.91e-05
17630.0 2.9121e-05
17650.0 2.914e-05
17670.0 2.9158e-05
17690.0 2.9173e-05
17710.0 2.9188e-05
17730.0 2.92e-05
17750.0 2.9211e-05
17770.0 2.922e-05
17790.0 2.9227e-05
17810.0 2.9232e-05
17830.0 2.9235e-05
17850.0 2.9237e-05
17870.0 2.9237e-05
17890.0 2.9235e-05
17910.0 2.9231e-05
17930.0 2.9226e-05
17950.0 2.9219e-05
17970.0 2.9209e-05
17990.0 2.9198e-05
18010.0 2.9186e-05
18030.0 2.9171e-05
18050.0 2.9154e-05
18070.0 2.9136e-05
18090.0 2.9116e-05
18110.0 2.9094e-05
18130.0 2.907e-05
18150.0 2.9044e-05
18170.0 2.9017e-05
18190.0 2.8987e-05
18210.0 2.8956e-05
18230.0 2.8923e-05
18250.0 2.8889e-05
18270.0 2.8852e-05
18290.0 2.8814e-05
18310.0 2.8774e-05
18330.0 2.8732e-05
18350.0 2.8688e-05
18370.0 2.8643e-05
18390.0 2.8596e-05
18410.0 2.8547e-05
18430.0 2.8497e-05
18450.0 2.8444e-05
18470.0 2.8391e-05
18490.0 2.8335e-05
18510.0 2.8278e-05
18530.0 2.8219e-05
18550.0 2.8158e-05
18570.0 2.8096e-05
18590.0 2.8032e-05
18610.0 2.7967e-05
18630.0 2.79e-05
18650.0 2.7832e-05
18670.0 2.7762e-05
18690.0 2.769e-05
18710.0 2.7617e-05
18730.0 2.7543e-05
18750.0 2.7467e-05
18770.0 2.7389e-05
18790.0 2.731e-05
18810.0 2.723e-05
18830.0 2.7148e-05
18850.0 2.7065e-05
18870.0 2.6981e-05
18890.0 2.6895e-05
18910.0 2.6808e-05
18930.0 2.672e-05
18950.0 2.6631e-05
18970.0 2.654e-05
18990.0 2.6448e-05
19010.0 2.6355e-05
19030.0 2.626e-05
19050.0 2.6165e-05
19070.0 2.6068e-05
19090.0 2.597e-05
19110.0 2.5872e-05
19130.0 2.5772e-05
19150.0 2.5671e-05
19170.0 2.5569e-05
19190.0 2.5466e-05
19210.0 2.5362e-05
19230.0 2.5257e-05
19250.0 2.5151e-05
19270.0 2.5045e-05
19290.0 2.4937e-05
19310.0 2.4829e-05
19330.0 2.4719e-05
19350.0 2.4609e-05
19370.0 2.4499e-05
19390.0 2.4387e-05
19410.0 2.4275e-05
19430.0 2.4162e-05
19450.0 2.4048e-05
19470.0 2.3934e-05
19490.0 2.3819e-05
19510.0 2.3703e-05
19530.0 2.3587e-05
19550.0 2.347e-05
19570.0 2.3353e-05
19590.0 2.3235e-05
19610.0 2.3117e-05
19630.0 2.2998e-05
19650.0 2.2879e-05
19670.0 2.276e-05
19690.0 2.264e-05
19710.0 2.2519e-05
19730.0 2.2398e-05
19750.0 2.2277e-05
19770.0 2.2156e-05
19790.0 2.2034e-05
19810.0 2.1912e-05
19830.0 2.1789e-05
19850.0 2.1665e-05
19870.0 2.1539e-05
19890.0 2.1409e-05
19910.0 2.1272e-05
19930.0 2.1123e-05
19950.0 2.0958e-05
19970.0 2.0768e-05
19990.0 2.0547e-05
20010.0 2.0301e-05
20030.0 2.0017e-05
20050.0 1.97e-05
20070.0 1.9364e-05
20090.0 1.9013e-05
20110.0 1.8635e-05
20130.0 1.826e-05
20150.0 1.7894e-05
20170.0 1.7524e-05
20190.0 1.7156e-05
20210.0 1.6806e-05
20230.0 1.6465e-05
20250.0 1.6123e-05
20270.0 1.5798e-05
20290.0 1.5491e-05
20310.0 1.519e-05
20330.0 1.4896e-05
20350.0 1.463e-05
20370.0 1.4374e-05
20390.0 1.4129e-05
20410.0 1.3902e-05
20430.0 1.3693e-05
20450.0 1.3493e-05
20470.0 1.3308e-05
20490.0 1.314e-05
20510.0 1.2984e-05
20530.0 1.2839e-05
20550.0 1.2708e-05
20570.0 1.2588e-05
20590.0 1.2476e-05
20610.0 1.2374e-05
20630.0 1.2279e-05
20650.0 1.219e-05
20670.0 1.2106e-05
20690.0 1.2026e-05
20710.0 1.1948e-05
20730.0 1.1872e-05
20750.0 1.1797e-05
20770.0 1.172e-05
20790.0 1.1642e-05
20810.0 1.1561e-05
20830.0 1.1477e-05
20850.0 1.1389e-05
20870.0 1.1297e-05
20890.0 1.12e-05
20910.0 1.1099e-05
20930.0 1.0993e-05
20950.0 1.0882e-05
20970.0 1.0768e-05
20990.0 1.065e-05
21010.0 1.0526e-05
21030.0 1.04e-05
21050.0 1.0272e-05
21070.0 1.0141e-05
21090.0 1.0007e-05
21110.0 9.8736e-06
21130.0 9.7405e-06
21150.0 9.605e-06
21170.0 9.4702e-06
21190.0 9.3384e-06
21210.0 9.2052e-06
21230.0 9.0719e-06
21250.0 8.943e-06
21270.0 8.8161e-06
21290.0 8.6894e-06
21310.0 8.5656e-06
21330.0 8.4472e-06
21350.0 8.3296e-06
21370.0 8.2145e-06
21390.0 8.1045e-06
21410.0 7.9982e-06
21430.0 7.893e-06
21450.0 7.7935e-06
21470.0 7.6992e-06
21490.0 7.6079e-06
21510.0 7.5204e-06
21530.0 7.4382e-06
21550.0 7.3597e-06
21570.0 7.2842e-06
21590.0 7.213e-06
21610.0 7.1454e-06
21630.0 7.0804e-06
21650.0 7.018e-06
21670.0 6.9586e-06
21690.0 6.901e-06
21710.0 6.8449e-06
21730.0 6.7903e-06
21750.0 6.7369e-06
21770.0 6.6841e-06
21790.0 6.6319e-06
21810.0 6.5802e-06
21830.0 6.5288e-06
21850.0 6.4773e-06
21870.0 6.426e-06
21890.0 6.3749e-06
21910.0 6.3234e-06
21930.0 6.2719e-06
21950.0 6.2203e-06
21970.0 6.1684e-06
21990.0 6.1159e-06
22010.0 6.0632e-06
22030.0 6.0102e-06
22050.0 5.9563e-06
22070.0 5.9016e-06
22090.0 5.8466e-06
22110.0 5.7904e-06
22130.0 5.7328e-06
22150.0 5.6746e-06
22170.0 5.6155e-06
22190.0 5.5543e-06
22210.0 5.4919e-06
22230.0 5.4294e-06
22250.0 5.3653e-06
22270.0 5.2993e-06
22290.0 5.2332e-06
22310.0 5.1665e-06
22330.0 5.0971e-06
22350.0 5.0274e-06
22370.0 4.958e-06
22390.0 4.887e-06
22410.0 4.814e-06
22430.0 4.7425e-06
22450.0 4.6707e-06
22470.0 4.5971e-06
22490.0 4.5238e-06
22510.0 4.4519e-06
22530.0 4.3783e-06
22550.0 4.3041e-06
22570.0 4.2324e-06
22590.0 4.1614e-06
22610.0 4.0898e-06
22630.0 4.02e-06
22650.0 3.9533e-06
