#lamb flux
1010.0 1.0421e-06
1030.0 1.1406e-06
1050.0 1.2427e-06
1070.0 1.3576e-06
1090.0 1.4913e-06
1110.0 1.6279e-06
1130.0 1.7651e-06
1150.0 1.9086e-06
1170.0 2.0569e-06
1190.0 2.1983e-06
1210.0 2.3429e-06
1230.0 2.4941e-06
1250.0 2.6438e-06
1270.0 2.792e-06
1290.0 2.9511e-06
1310.0 3.1134e-06
1330.0 3.2725e-06
1350.0 3.4361e-06
1370.0 3.6069e-06
1390.0 3.7759e-06
1410.0 3.9416e-06
1430.0 4.1145e-06
1450.0 4.2874e-06
1470.0 4.4542e-06
1490.0 4.6211e-06
1510.0 4.7945e-06
1530.0 4.9566e-06
1550.0 5.1133e-06
1570.0 5.2715e-06
1590.0 5.4256e-06
1610.0 5.568e-06
1630.0 5.7089e-06
1650.0 5.8488e-06
1670.0 5.9783e-06
1690.0 6.1005e-06
1710.0 6.2235e-06
1730.0 6.3424e-06
1750.0 6.4477e-06
1770.0 6.5534e-06
1790.0 6.6588e-06
1810.0 6.7571e-06
1830.0 6.8516e-06
1850.0 6.9544e-06
1870.0 7.054e-06
1890.0 7.1506e-06
1910.0 7.2531e-06
1930.0 7.363e-06
1950.0 7.4713e-06
1970.0 7.5837e-06
1990.0 7.7075e-06
2010.0 7.8353e-06
2030.0 7.9647e-06
2050.0 8.1045e-06
2070.0 8.2534e-06
2090.0 8.3993e-06
2110.0 8.5488e-06
2130.0 8.7052e-06
2150.0 8.8606e-06
2170.0 9.0104e-06
2190.0 9.1642e-06
2210.0 9.3166e-06
2230.0 9.4598e-06
2250.0 9.5979e-06
2270.0 9.7364e-06
2290.0 9.864e-06
2310.0 9.9789e-06
2330.0 1.009e-05
2350.0 1.0195e-05
2370.0 1.0286e-05
2390.0 1.0369e-05
2410.0 1.0451e-05
2430.0 1.0521e-05
2450.0 1.0579e-05
2470.0 1.0634e-05
2490.0 1.0686e-05
2510.0 1.0732e-05
2530.0 1.08e-05
2550.0 1.0932e-05
2570.0 1.1173e-05
2590.0 1.1582e-05
2610.0 1.2299e-05
2630.0 1.3371e-05
2650.0 1.4746e-05
2670.0 1.6447e-05
2690.0 1.8406e-05
2710.0 2.0324e-05
2730.0 2.2022e-05
2750.0 2.3446e-05
2770.0 2.4347e-05
2790.0 2.4653e-05
2810.0 2.4406e-05
2830.0 2.3593e-05
2850.0 2.2378e-05
2870.0 2.0872e-05
2890.0 1.91e-05
2910.0 1.7185e-05
2930.0 1.526e-05
2950.0 1.322e-05
2970.0 1.1102e-05
2990.0 9.0192e-06
3010.0 1.0961e-05
3030.0 7.5169e-06
3050.0 4.0546e-06
3070.0 1.2123e-06
3090.0 1.2123e-06
3110.0 1.2123e-06
3130.0 1.2123e-06
3150.0 1.2123e-06
3170.0 1.2123e-06
3190.0 1.2123e-06
3210.0 3.8274e-05
3230.0 0.00010646
3250.0 0.00014483
3270.0 0.00012709
3290.0 9.6333e-05
3310.0 7.6313e-05
3330.0 7.1187e-05
3350.0 7.4669e-05
3370.0 8.0777e-05
3390.0 8.7167e-05
3410.0 9.3861e-05
3430.0 0.00010204
3450.0 0.00010986
3470.0 0.00011798
3490.0 0.00011949
3510.0 0.00010422
3530.0 9.7577e-05
3550.0 0.00012478
3570.0 0.0001589
3590.0 0.00017685
3610.0 0.00018309
3630.0 0.00019409
3650.0 0.00019427
3670.0 0.00020242
3690.0 0.00023807
3710.0 0.00027672
3730.0 0.00030211
3750.0 0.00031779
3770.0 0.00032284
3790.0 0.00031309
3810.0 0.00029027
3830.0 0.0002541
3850.0 0.00019992
3870.0 0.00017775
3890.0 0.00020023
3910.0 0.00026524
3930.0 0.00033155
3950.0 0.00036247
3970.0 0.00037518
3990.0 0.00040461
4010.0 0.00041835
4030.0 0.00037824
4050.0 0.00028515
4070.0 0.00024125
4090.0 0.00027018
4110.0 0.00029992
4130.0 0.00032033
4150.0 0.00032052
4170.0 0.00030819
4190.0 0.00029437
4210.0 0.00031343
4230.0 0.00033662
4250.0 0.00035675
4270.0 0.00035771
4290.0 0.00034646
4310.0 0.00034815
4330.0 0.0003827
4350.0 0.00042129
4370.0 0.00042679
4390.0 0.00039798
4410.0 0.00035379
4430.0 0.00028674
4450.0 0.00023687
4470.0 0.00023579
4490.0 0.00026168
4510.0 0.00028518
4530.0 0.00029982
4550.0 0.0003234
4570.0 0.00042046
4590.0 0.00057778
4610.0 0.00068658
4630.0 0.00072931
4650.0 0.00079309
4670.0 0.00088314
4690.0 0.00089896
4710.0 0.00077879
4730.0 0.00061108
4750.0 0.00047965
4770.0 0.00040346
4790.0 0.00036769
4810.0 0.00035726
4830.0 0.00038823
4850.0 0.00045767
4870.0 0.00051111
4890.0 0.00052429
4910.0 0.00052682
4930.0 0.00058218
4950.0 0.00067092
4970.0 0.0007284
4990.0 0.00072306
5010.0 0.00065132
5030.0 0.00053912
5050.0 0.00043715
5070.0 0.00037335
5090.0 0.00034924
5110.0 0.0003496
5130.0 0.00035419
5150.0 0.00034971
5170.0 0.00033286
5190.0 0.00032501
5210.0 0.00034136
5230.0 0.00038999
5250.0 0.00047032
5270.0 0.00055586
5290.0 0.00061474
5310.0 0.00066397
5330.0 0.00073509
5350.0 0.00079774
5370.0 0.00079953
5390.0 0.00074541
5410.0 0.00069661
5430.0 0.00071419
5450.0 0.00082148
5470.0 0.00096581
5490.0 0.0010776
5510.0 0.0011249
5530.0 0.0011202
5550.0 0.0010887
5570.0 0.0010522
5590.0 0.0010172
5610.0 0.00099694
5630.0 0.0010002
5650.0 0.0010018
5670.0 0.00095683
5690.0 0.00086618
5710.0 0.00077373
5730.0 0.00071528
5750.0 0.00070157
5770.0 0.00072732
5790.0 0.00075586
5810.0 0.00077396
5830.0 0.00078309
5850.0 0.00076953
5870.0 0.00074902
5890.0 0.00075205
5910.0 0.00077895
5930.0 0.00078872
5950.0 0.00074739
5970.0 0.00066376
5990.0 0.0005582
6010.0 0.00047443
6030.0 0.00045173
6050.0 0.00048509
6070.0 0.00050967
6090.0 0.00048259
6110.0 0.00044289
6130.0 0.00045534
6150.0 0.00050924
6170.0 0.0005589
6190.0 0.00058915
6210.0 0.0005999
6230.0 0.00058884
6250.0 0.00053548
6270.0 0.00045153
6290.0 0.0003813
6310.0 0.00035218
6330.0 0.00035616
6350.0 0.00036835
6370.0 0.00038821
6390.0 0.00044449
6410.0 0.0005356
6430.0 0.00061648
6450.0 0.00065732
6470.0 0.00067541
6490.0 0.00068566
6510.0 0.00069172
6530.0 0.00069769
6550.0 0.00070546
6570.0 0.00072323
6590.0 0.00073911
6610.0 0.00073716
6630.0 0.00070594
6650.0 0.00065283
6670.0 0.00060148
6690.0 0.00056692
6710.0 0.00054269
6730.0 0.00052012
6750.0 0.00051146
6770.0 0.00052503
6790.0 0.0005446
6810.0 0.00055355
6830.0 0.00054494
6850.0 0.00051871
6870.0 0.00049124
6890.0 0.00047913
6910.0 0.0004789
6930.0 0.00049059
6950.0 0.00050331
6970.0 0.00051308
6990.0 0.00051501
7010.0 0.00049821
7030.0 0.00046058
7050.0 0.000413
7070.0 0.00038064
7090.0 0.00037395
7110.0 0.00037723
7130.0 0.00035973
7150.0 0.00032514
7170.0 0.00031742
7190.0 0.00035085
7210.0 0.00040207
7230.0 0.00044598
7250.0 0.00046218
7270.0 0.00045157
7290.0 0.00042414
7310.0 0.00040136
7330.0 0.00039754
7350.0 0.00040439
7370.0 0.00041137
7390.0 0.00043119
7410.0 0.00047362
7430.0 0.00052705
7450.0 0.0005716
7470.0 0.00058688
7490.0 0.00055994
7510.0 0.00051618
7530.0 0.00048176
7550.0 0.00044939
7570.0 0.00041517
7590.0 0.00039666
7610.0 0.00039622
7630.0 0.00041206
7650.0 0.00044224
7670.0 0.00047923
7690.0 0.00051084
7710.0 0.0005343
7730.0 0.00055406
7750.0 0.00056931
7770.0 0.00057024
7790.0 0.00057407
7810.0 0.00057247
7830.0 0.00055328
7850.0 0.00053116
7870.0 0.00051797
7890.0 0.00051927
7910.0 0.00051643
7930.0 0.00050232
7950.0 0.00048065
7970.0 0.00046107
7990.0 0.00044243
8010.0 0.000425
8030.0 0.0004247
8050.0 0.00042286
8070.0 0.00041538
8090.0 0.00040977
8110.0 0.00039964
8130.0 0.00039817
8150.0 0.00039319
8170.0 0.00038375
8190.0 0.00037193
8210.0 0.00036122
8230.0 0.00034996
8250.0 0.00034492
8270.0 0.00032095
8290.0 0.0002725
8310.0 0.00021848
8330.0 0.00018162
8350.0 0.00017279
8370.0 0.0001955
8390.0 0.00022672
8410.0 0.00024123
8430.0 0.00024761
8450.0 0.00026253
8470.0 0.00028276
8490.0 0.00031256
8510.0 0.00034844
8530.0 0.00038677
8550.0 0.00041754
8570.0 0.00044015
8590.0 0.00045656
8610.0 0.00046442
8630.0 0.00046091
8650.0 0.00045203
8670.0 0.00045108
8690.0 0.0004738
8710.0 0.0005051
8730.0 0.00052064
8750.0 0.00051626
8770.0 0.00052111
8790.0 0.00051953
8810.0 0.00049262
8830.0 0.00045683
8850.0 0.00041209
8870.0 0.00037742
8890.0 0.00036638
8910.0 0.00036115
8930.0 0.00033797
8950.0 0.0003118
8970.0 0.0003004
8990.0 0.00029955
9010.0 0.00029191
9030.0 0.00028616
9050.0 0.00028348
9070.0 0.00028214
9090.0 0.00028098
9110.0 0.00027986
9130.0 0.00027874
9150.0 0.00027765
9170.0 0.0002765
9190.0 0.00027562
9210.0 0.00027527
9230.0 0.0002739
9250.0 0.00027268
9270.0 0.00027156
9290.0 0.00027051
9310.0 0.00026949
9330.0 0.0002685
9350.0 0.00026757
9370.0 0.00026665
9390.0 0.00026571
9410.0 0.00026481
9430.0 0.00026387
9450.0 0.00026256
9470.0 0.00026139
9490.0 0.00026092
9510.0 0.00026026
9530.0 0.00025956
9550.0 0.00025881
9570.0 0.00025804
9590.0 0.00025727
9610.0 0.00025649
9630.0 0.00025571
9650.0 0.00025494
9670.0 0.00025419
9690.0 0.00025343
9710.0 0.00025268
9730.0 0.00025194
9750.0 0.00025121
9770.0 0.00025046
9790.0 0.00024973
9810.0 0.00024901
9830.0 0.00024827
9850.0 0.00024754
9870.0 0.00024683
9890.0 0.00024611
9910.0 0.00024537
9930.0 0.00024463
9950.0 0.00024272
9970.0 0.00024233
9990.0 0.00024187
10010.0 0.00024139
10030.0 0.0002408
10050.0 0.0002401
10070.0 0.00023941
10090.0 0.00023871
10110.0 0.00023788
10130.0 0.00023692
10150.0 0.00023619
10170.0 0.00023545
10190.0 0.0002346
10210.0 0.00023382
10230.0 0.00023304
10250.0 0.00023216
10270.0 0.00023128
10290.0 0.00023045
10310.0 0.00022954
10330.0 0.00022854
10350.0 0.00022762
10370.0 0.0002267
10390.0 0.00022568
10410.0 0.00022465
10430.0 0.0002237
10450.0 0.00022265
10470.0 0.00022154
10490.0 0.00022048
10510.0 0.00021941
10530.0 0.00021819
10550.0 0.000217
10570.0 0.00021587
10590.0 0.00021464
10610.0 0.00021336
10630.0 0.00021213
10650.0 0.00021087
10670.0 0.00020949
10690.0 0.00020812
10710.0 0.00020679
10730.0 0.00020535
10750.0 0.00020382
10770.0 0.00020241
10790.0 0.00020093
10810.0 0.00019935
10830.0 0.00019779
10850.0 0.00019627
10870.0 0.00019457
10890.0 0.00019285
10910.0 0.00019118
10930.0 0.00018945
10950.0 0.00018759
10970.0 0.00018574
10990.0 0.00018394
11010.0 0.00019907
11030.0 0.00019703
11050.0 0.00019506
11070.0 0.00019305
11090.0 0.00019088
11110.0 0.00018886
11130.0 0.00018688
11150.0 0.00018483
11170.0 0.00018278
11190.0 0.00018085
11210.0 0.00017887
11230.0 0.00017684
11250.0 0.0001749
11270.0 0.00017301
11290.0 0.00017106
11310.0 0.00016912
11330.0 0.00016733
11350.0 0.0001655
11370.0 0.00016364
11390.0 0.00016182
11410.0 0.00016001
11430.0 0.00015804
11450.0 0.00015605
11470.0 0.00015403
11490.0 0.00015186
11510.0 0.0001495
11530.0 0.00014712
11550.0 0.00014465
11570.0 0.00014196
11590.0 0.00013919
11610.0 0.00013642
11630.0 0.00013347
11650.0 0.00013041
11670.0 0.00012745
11690.0 0.00012449
11710.0 0.00012143
11730.0 0.00011844
11750.0 0.0001156
11770.0 0.00011271
11790.0 0.00010983
11810.0 0.0001071
11830.0 0.00010442
11850.0 0.00010168
11870.0 9.9071e-05
11890.0 9.6596e-05
11910.0 9.4111e-05
11930.0 9.1664e-05
11950.0 8.9368e-05
11970.0 8.7122e-05
11990.0 8.4874e-05
12010.0 8.2764e-05
12030.0 8.0785e-05
12050.0 7.8854e-05
12070.0 7.7004e-05
12090.0 7.5364e-05
12110.0 7.3826e-05
12130.0 7.2391e-05
12150.0 7.1127e-05
12170.0 7.0033e-05
12190.0 6.9055e-05
12210.0 6.8257e-05
12230.0 6.7641e-05
12250.0 6.7185e-05
12270.0 6.6901e-05
12290.0 6.678e-05
12310.0 6.6797e-05
12330.0 6.6974e-05
12350.0 6.7286e-05
12370.0 6.7685e-05
12390.0 6.819e-05
12410.0 6.8829e-05
12430.0 6.9476e-05
12450.0 7.0152e-05
12470.0 7.089e-05
12490.0 7.1635e-05
12510.0 7.232e-05
12530.0 7.3013e-05
12550.0 7.3689e-05
12570.0 7.4269e-05
12590.0 7.4763e-05
12610.0 7.52e-05
12630.0 7.552e-05
12650.0 7.5678e-05
12670.0 7.5722e-05
12690.0 7.5625e-05
12710.0 7.5367e-05
12730.0 7.4962e-05
12750.0 7.4404e-05
12770.0 7.3696e-05
12790.0 7.2864e-05
12810.0 7.1905e-05
12830.0 7.0822e-05
12850.0 6.9683e-05
12870.0 6.8488e-05
12890.0 6.7218e-05
12910.0 6.5933e-05
12930.0 6.4669e-05
12950.0 6.3378e-05
12970.0 6.2088e-05
12990.0 6.0869e-05
13010.0 5.9682e-05
13030.0 5.8506e-05
13050.0 5.7382e-05
13070.0 5.6323e-05
13090.0 5.5273e-05
13110.0 5.4251e-05
13130.0 5.3286e-05
13150.0 5.2351e-05
13170.0 5.1415e-05
13190.0 5.0529e-05
13210.0 4.9688e-05
13230.0 4.8857e-05
13250.0 4.8051e-05
13270.0 4.7294e-05
13290.0 4.6561e-05
13310.0 4.5841e-05
13330.0 4.517e-05
13350.0 4.4541e-05
13370.0 4.3938e-05
13390.0 4.3367e-05
13410.0 4.2855e-05
13430.0 4.2373e-05
13450.0 4.1921e-05
13470.0 4.1506e-05
13490.0 4.1124e-05
13510.0 4.0755e-05
13530.0 4.0404e-05
13550.0 4.0071e-05
13570.0 3.974e-05
13590.0 3.9404e-05
13610.0 3.9068e-05
13630.0 3.8729e-05
13650.0 3.8373e-05
13670.0 3.8008e-05
13690.0 3.7642e-05
13710.0 3.7265e-05
13730.0 3.6873e-05
13750.0 3.6495e-05
13770.0 3.6124e-05
13790.0 3.5751e-05
13810.0 3.5391e-05
13830.0 3.5055e-05
13850.0 3.4726e-05
13870.0 3.4409e-05
13890.0 3.4117e-05
13910.0 3.3841e-05
13930.0 3.3572e-05
13950.0 3.3316e-05
13970.0 3.3077e-05
13990.0 3.2838e-05
14010.0 3.2598e-05
14030.0 3.2362e-05
14050.0 3.2123e-05
14070.0 3.1866e-05
14090.0 3.1604e-05
14110.0 3.1337e-05
14130.0 3.1055e-05
14150.0 3.0756e-05
14170.0 3.0461e-05
14190.0 3.0162e-05
14210.0 2.9853e-05
14230.0 2.9551e-05
14250.0 2.9266e-05
14270.0 2.8983e-05
14290.0 2.8715e-05
14310.0 2.848e-05
14330.0 2.8269e-05
14350.0 2.8079e-05
14370.0 2.7921e-05
14390.0 2.7795e-05
14410.0 2.769e-05
14430.0 2.761e-05
14450.0 2.7554e-05
14470.0 2.7516e-05
14490.0 2.749e-05
14510.0 2.7478e-05
14530.0 2.7475e-05
14550.0 2.748e-05
14570.0 2.7494e-05
14590.0 2.7518e-05
14610.0 2.7555e-05
14630.0 2.761e-05
14650.0 2.7687e-05
14670.0 2.779e-05
14690.0 2.793e-05
14710.0 2.8113e-05
14730.0 2.8334e-05
14750.0 2.8606e-05
14770.0 2.8942e-05
14790.0 2.9331e-05
14810.0 2.9772e-05
14830.0 3.0307e-05
14850.0 3.0907e-05
14870.0 3.1552e-05
14890.0 3.2264e-05
14910.0 3.3042e-05
14930.0 3.3819e-05
14950.0 3.4576e-05
14970.0 3.5324e-05
14990.0 3.5994e-05
15010.0 3.6558e-05
15030.0 3.7032e-05
15050.0 3.7416e-05
15070.0 3.77e-05
15090.0 3.7925e-05
15110.0 3.811e-05
15130.0 3.8269e-05
15150.0 3.8414e-05
15170.0 3.8554e-05
15190.0 3.8694e-05
15210.0 3.8835e-05
15230.0 3.8978e-05
15250.0 3.9124e-05
15270.0 3.9272e-05
15290.0 3.9424e-05
15310.0 3.9579e-05
15330.0 3.9736e-05
15350.0 3.9896e-05
15370.0 4.0058e-05
15390.0 4.0223e-05
15410.0 4.0391e-05
15430.0 4.0562e-05
15450.0 4.0734e-05
15470.0 4.091e-05
15490.0 4.1088e-05
15510.0 4.1268e-05
15530.0 4.145e-05
15550.0 4.1635e-05
15570.0 4.1822e-05
15590.0 4.2011e-05
15610.0 4.2202e-05
15630.0 4.2396e-05
15650.0 4.2592e-05
15670.0 4.2789e-05
15690.0 4.2988e-05
15710.0 4.319e-05
15730.0 4.3392e-05
15750.0 4.3597e-05
15770.0 4.3804e-05
15790.0 4.4012e-05
15810.0 4.4221e-05
15830.0 4.4432e-05
15850.0 4.4645e-05
15870.0 4.4859e-05
15890.0 4.5074e-05
15910.0 4.529e-05
15930.0 4.5508e-05
15950.0 4.5727e-05
15970.0 4.5946e-05
15990.0 4.6167e-05
16010.0 4.6388e-05
16030.0 4.6611e-05
16050.0 4.6834e-05
16070.0 4.7058e-05
16090.0 4.7282e-05
16110.0 4.7507e-05
16130.0 4.7732e-05
16150.0 4.7957e-05
16170.0 4.8183e-05
16190.0 4.8409e-05
16210.0 4.8635e-05
16230.0 4.8861e-05
16250.0 4.9088e-05
16270.0 4.9314e-05
16290.0 4.9539e-05
16310.0 4.9765e-05
16330.0 4.999e-05
16350.0 5.0214e-05
16370.0 5.0438e-05
16390.0 5.0661e-05
16410.0 5.0884e-05
16430.0 5.1105e-05
16450.0 5.1326e-05
16470.0 5.1546e-05
16490.0 5.1764e-05
16510.0 5.1981e-05
16530.0 5.2197e-05
16550.0 5.2412e-05
16570.0 5.2625e-05
16590.0 5.2837e-05
16610.0 5.3047e-05
16630.0 5.3255e-05
16650.0 5.3461e-05
16670.0 5.3666e-05
16690.0 5.3869e-05
16710.0 5.4069e-05
16730.0 5.4267e-05
16750.0 5.4463e-05
16770.0 5.4657e-05
16790.0 5.4848e-05
16810.0 5.5036e-05
16830.0 5.5222e-05
16850.0 5.5405e-05
16870.0 5.5586e-05
16890.0 5.5764e-05
16910.0 5.5938e-05
16930.0 5.611e-05
16950.0 5.6278e-05
16970.0 5.6444e-05
16990.0 5.6605e-05
17010.0 5.6764e-05
17030.0 5.692e-05
17050.0 5.7071e-05
17070.0 5.7219e-05
17090.0 5.7364e-05
17110.0 5.7504e-05
17130.0 5.7641e-05
17150.0 5.7774e-05
17170.0 5.7904e-05
17190.0 5.8029e-05
17210.0 5.815e-05
17230.0 5.8267e-05
17250.0 5.838e-05
17270.0 5.8488e-05
17290.0 5.8592e-05
17310.0 5.8693e-05
17330.0 5.8788e-05
17350.0 5.8879e-05
17370.0 5.8966e-05
17390.0 5.9048e-05
17410.0 5.9125e-05
17430.0 5.9199e-05
17450.0 5.9267e-05
17470.0 5.933e-05
17490.0 5.9389e-05
17510.0 5.9443e-05
17530.0 5.9493e-05
17550.0 5.9537e-05
17570.0 5.9577e-05
17590.0 5.9612e-05
17610.0 5.9642e-05
17630.0 5.9667e-05
17650.0 5.9687e-05
17670.0 5.9702e-05
17690.0 5.9712e-05
17710.0 5.9717e-05
17730.0 5.9718e-05
17750.0 5.9713e-05
17770.0 5.9703e-05
17790.0 5.9689e-05
17810.0 5.9669e-05
17830.0 5.9645e-05
17850.0 5.9615e-05
17870.0 5.9581e-05
17890.0 5.9542e-05
17910.0 5.9497e-05
17930.0 5.9448e-05
17950.0 5.9394e-05
17970.0 5.9335e-05
17990.0 5.9272e-05
18010.0 5.9203e-05
18030.0 5.913e-05
18050.0 5.9052e-05
18070.0 5.8969e-05
18090.0 5.8882e-05
18110.0 5.8789e-05
18130.0 5.8693e-05
18150.0 5.8591e-05
18170.0 5.8485e-05
18190.0 5.8375e-05
18210.0 5.826e-05
18230.0 5.8141e-05
18250.0 5.8017e-05
18270.0 5.789e-05
18290.0 5.7757e-05
18310.0 5.7621e-05
18330.0 5.748e-05
18350.0 5.7336e-05
18370.0 5.7187e-05
18390.0 5.7034e-05
18410.0 5.6878e-05
18430.0 5.6718e-05
18450.0 5.6553e-05
18470.0 5.6385e-05
18490.0 5.6214e-05
18510.0 5.6039e-05
18530.0 5.586e-05
18550.0 5.5678e-05
18570.0 5.5492e-05
18590.0 5.5303e-05
18610.0 5.5111e-05
18630.0 5.4915e-05
18650.0 5.4716e-05
18670.0 5.4515e-05
18690.0 5.431e-05
18710.0 5.4103e-05
18730.0 5.3892e-05
18750.0 5.3679e-05
18770.0 5.3463e-05
18790.0 5.3245e-05
18810.0 5.3023e-05
18830.0 5.28e-05
18850.0 5.2574e-05
18870.0 5.2346e-05
18890.0 5.2116e-05
18910.0 5.1883e-05
18930.0 5.1648e-05
18950.0 5.1411e-05
18970.0 5.1173e-05
18990.0 5.0932e-05
19010.0 5.0689e-05
19030.0 5.0445e-05
19050.0 5.02e-05
19070.0 4.9952e-05
19090.0 4.9703e-05
19110.0 4.9453e-05
19130.0 4.9201e-05
19150.0 4.8948e-05
19170.0 4.8694e-05
19190.0 4.8439e-05
19210.0 4.8182e-05
19230.0 4.7924e-05
19250.0 4.7666e-05
19270.0 4.7407e-05
19290.0 4.7147e-05
19310.0 4.6886e-05
19330.0 4.6625e-05
19350.0 4.6362e-05
19370.0 4.6099e-05
19390.0 4.5836e-05
19410.0 4.5572e-05
19430.0 4.5308e-05
19450.0 4.5044e-05
19470.0 4.478e-05
19490.0 4.4515e-05
19510.0 4.425e-05
19530.0 4.3985e-05
19550.0 4.372e-05
19570.0 4.3455e-05
19590.0 4.319e-05
19610.0 4.2925e-05
19630.0 4.2661e-05
19650.0 4.2396e-05
19670.0 4.2133e-05
19690.0 4.1869e-05
19710.0 4.1605e-05
19730.0 4.1343e-05
19750.0 4.1081e-05
19770.0 4.0818e-05
19790.0 4.0557e-05
19810.0 4.0296e-05
19830.0 4.0035e-05
19850.0 3.9773e-05
19870.0 3.9508e-05
19890.0 3.9236e-05
19910.0 3.8949e-05
19930.0 3.8641e-05
19950.0 3.8299e-05
19970.0 3.7905e-05
19990.0 3.7449e-05
20010.0 3.694e-05
20030.0 3.6356e-05
20050.0 3.57e-05
20070.0 3.5008e-05
20090.0 3.4286e-05
20110.0 3.3509e-05
20130.0 3.2741e-05
20150.0 3.1994e-05
20170.0 3.1243e-05
20190.0 3.0501e-05
20210.0 2.9801e-05
20230.0 2.9124e-05
20250.0 2.8453e-05
20270.0 2.7822e-05
20290.0 2.7231e-05
20310.0 2.6659e-05
20330.0 2.6107e-05
20350.0 2.5611e-05
20370.0 2.5141e-05
20390.0 2.4694e-05
20410.0 2.4283e-05
20430.0 2.3908e-05
20450.0 2.355e-05
20470.0 2.322e-05
20490.0 2.2922e-05
20510.0 2.2647e-05
20530.0 2.2389e-05
20550.0 2.2155e-05
20570.0 2.1942e-05
20590.0 2.1741e-05
20610.0 2.1556e-05
20630.0 2.1383e-05
20650.0 2.122e-05
20670.0 2.1064e-05
20690.0 2.0916e-05
20710.0 2.0771e-05
20730.0 2.0628e-05
20750.0 2.0486e-05
20770.0 2.0343e-05
20790.0 2.0198e-05
20810.0 2.0049e-05
20830.0 1.9896e-05
20850.0 1.9738e-05
20870.0 1.9572e-05
20890.0 1.94e-05
20910.0 1.9224e-05
20930.0 1.9041e-05
20950.0 1.8851e-05
20970.0 1.8657e-05
20990.0 1.8461e-05
21010.0 1.8255e-05
21030.0 1.8048e-05
21050.0 1.7841e-05
21070.0 1.763e-05
21090.0 1.7415e-05
21110.0 1.7204e-05
21130.0 1.6995e-05
21150.0 1.6783e-05
21170.0 1.6574e-05
21190.0 1.6371e-05
21210.0 1.6167e-05
21230.0 1.5964e-05
21250.0 1.5768e-05
21270.0 1.5577e-05
21290.0 1.5388e-05
21310.0 1.5203e-05
21330.0 1.5028e-05
21350.0 1.4855e-05
21370.0 1.4687e-05
21390.0 1.4527e-05
21410.0 1.4373e-05
21430.0 1.4222e-05
21450.0 1.408e-05
21470.0 1.3947e-05
21490.0 1.3818e-05
21510.0 1.3696e-05
21530.0 1.3582e-05
21550.0 1.3474e-05
21570.0 1.3371e-05
21590.0 1.3275e-05
21610.0 1.3184e-05
21630.0 1.3099e-05
21650.0 1.3018e-05
21670.0 1.2943e-05
21690.0 1.2871e-05
21710.0 1.2803e-05
21730.0 1.2738e-05
21750.0 1.2675e-05
21770.0 1.2616e-05
21790.0 1.2559e-05
21810.0 1.2503e-05
21830.0 1.2449e-05
21850.0 1.2397e-05
21870.0 1.2345e-05
21890.0 1.2294e-05
21910.0 1.2243e-05
21930.0 1.2193e-05
21950.0 1.2142e-05
21970.0 1.209e-05
21990.0 1.2038e-05
22010.0 1.1985e-05
22030.0 1.1931e-05
22050.0 1.1875e-05
22070.0 1.1817e-05
22090.0 1.1758e-05
22110.0 1.1698e-05
22130.0 1.1635e-05
22150.0 1.1571e-05
22170.0 1.1505e-05
22190.0 1.1438e-05
22210.0 1.1368e-05
22230.0 1.1298e-05
22250.0 1.1225e-05
22270.0 1.1151e-05
22290.0 1.1075e-05
22310.0 1.0997e-05
22330.0 1.0916e-05
22350.0 1.0832e-05
22370.0 1.0746e-05
22390.0 1.0656e-05
22410.0 1.056e-05
22430.0 1.0462e-05
22450.0 1.036e-05
22470.0 1.0251e-05
22490.0 1.0137e-05
22510.0 1.0021e-05
22530.0 9.8961e-06
22550.0 9.7647e-06
22570.0 9.6326e-06
22590.0 9.4966e-06
22610.0 9.3538e-06
