#lamb flux
1010.0 7.192e-05
1030.0 9.062e-05
1050.0 0.00011225
1070.0 0.00013676
1090.0 0.00016479
1110.0 0.00019381
1130.0 0.00022329
1150.0 0.0002539
1170.0 0.00028559
1190.0 0.00031582
1210.0 0.00034677
1230.0 0.00037886
1250.0 0.00041039
1270.0 0.00044106
1290.0 0.00047337
1310.0 0.00050554
1330.0 0.00053623
1350.0 0.00056701
1370.0 0.00059847
1390.0 0.00062878
1410.0 0.0006578
1430.0 0.00068778
1450.0 0.00071737
1470.0 0.00074556
1490.0 0.00077375
1510.0 0.00080384
1530.0 0.00083225
1550.0 0.00085969
1570.0 0.00088577
1590.0 0.00091178
1610.0 0.00093642
1630.0 0.00096203
1650.0 0.00098852
1670.0 0.0010142
1690.0 0.0010397
1710.0 0.0010665
1730.0 0.0010938
1750.0 0.0011195
1770.0 0.0011463
1790.0 0.001174
1810.0 0.001201
1830.0 0.0012277
1850.0 0.0012564
1870.0 0.0012847
1890.0 0.0013123
1910.0 0.0013406
1930.0 0.0013699
1950.0 0.0013979
1970.0 0.0014259
1990.0 0.0014552
2010.0 0.0014842
2030.0 0.0015126
2050.0 0.001542
2070.0 0.0015723
2090.0 0.0016012
2110.0 0.0016302
2130.0 0.0016603
2150.0 0.00169
2170.0 0.0017188
2190.0 0.0017487
2210.0 0.0017792
2230.0 0.0018087
2250.0 0.0018383
2270.0 0.0018693
2290.0 0.0018997
2310.0 0.001929
2330.0 0.0019593
2350.0 0.0019898
2370.0 0.0020192
2390.0 0.0020488
2410.0 0.0020797
2430.0 0.0021099
2450.0 0.0021402
2470.0 0.0021735
2490.0 0.002212
2510.0 0.002256
2530.0 0.0023131
2550.0 0.0023924
2570.0 0.0024992
2590.0 0.0026409
2610.0 0.0028441
2630.0 0.0031138
2650.0 0.0034425
2670.0 0.0038473
2690.0 0.0043354
2710.0 0.0048658
2730.0 0.0054175
2750.0 0.0060079
2770.0 0.0065835
2790.0 0.0071051
2810.0 0.0075807
2830.0 0.0080102
2850.0 0.0083487
2870.0 0.0086279
2890.0 0.0088704
2910.0 0.0090787
2930.0 0.0092589
2950.0 0.0094345
2970.0 0.0096083
2990.0 0.0097746
3010.0 0.0099394
3030.0 0.01011
3050.0 0.010282
3070.0 0.010443
3090.0 0.010609
3110.0 0.010781
3130.0 0.010963
3150.0 0.011175
3170.0 0.011485
3190.0 0.011929
3210.0 0.012551
3230.0 0.013423
3250.0 0.014559
3270.0 0.015588
3290.0 0.017306
3310.0 0.020997
3330.0 0.021882
3350.0 0.022071
3370.0 0.022226
3390.0 0.022383
3410.0 0.02254
3430.0 0.022698
3450.0 0.022857
3470.0 0.023011
3490.0 0.02315
3510.0 0.02324
3530.0 0.022666
3550.0 0.021734
3570.0 0.021826
3590.0 0.023005
3610.0 0.024855
3630.0 0.025539
3650.0 0.024396
3670.0 0.022272
3690.0 0.021009
3710.0 0.021209
3730.0 0.021915
3750.0 0.022343
3770.0 0.023188
3790.0 0.024171
3810.0 0.024038
3830.0 0.02261
3850.0 0.021348
3870.0 0.020894
3890.0 0.020984
3910.0 0.02087
3930.0 0.021002
3950.0 0.022024
3970.0 0.023216
3990.0 0.023941
4010.0 0.023623
4030.0 0.022891
4050.0 0.022609
4070.0 0.022456
4090.0 0.022452
4110.0 0.022254
4130.0 0.021531
4150.0 0.020741
4170.0 0.020486
4190.0 0.019679
4210.0 0.01834
4230.0 0.01688
4250.0 0.015414
4270.0 0.014347
4290.0 0.013616
4310.0 0.013371
4330.0 0.013705
4350.0 0.014147
4370.0 0.014635
4390.0 0.015545
4410.0 0.01629
4430.0 0.016067
4450.0 0.014868
4470.0 0.013784
4490.0 0.01327
4510.0 0.01298
4530.0 0.012903
4550.0 0.012835
4570.0 0.012904
4590.0 0.013186
4610.0 0.013664
4630.0 0.013962
4650.0 0.014113
4670.0 0.013784
4690.0 0.012948
4710.0 0.0121
4730.0 0.01152
4750.0 0.011131
4770.0 0.011079
4790.0 0.010942
4810.0 0.0106
4830.0 0.010477
4850.0 0.010685
4870.0 0.010616
4890.0 0.010292
4910.0 0.009911
4930.0 0.0091965
4950.0 0.0082364
4970.0 0.0075642
4990.0 0.0070015
5010.0 0.0067693
5030.0 0.0068584
5050.0 0.0069156
5070.0 0.0070339
5090.0 0.0073149
5110.0 0.0072851
5130.0 0.0072073
5150.0 0.0072059
5170.0 0.0071245
5190.0 0.0071755
5210.0 0.0070977
5230.0 0.0069033
5250.0 0.0068566
5270.0 0.0068608
5290.0 0.0067817
5310.0 0.0066352
5330.0 0.0064321
5350.0 0.0062679
5370.0 0.0061418
5390.0 0.006012
5410.0 0.0058995
5430.0 0.0058678
5450.0 0.005917
5470.0 0.0060053
5490.0 0.0061803
5510.0 0.006361
5530.0 0.0064429
5550.0 0.006548
5570.0 0.006588
5590.0 0.0064876
5610.0 0.0064784
5630.0 0.0065704
5650.0 0.0065459
5670.0 0.0064623
5690.0 0.0063391
5710.0 0.0063923
5730.0 0.0065462
5750.0 0.0063563
5770.0 0.0061199
5790.0 0.0057243
5810.0 0.0050992
5830.0 0.0055883
5850.0 0.0062888
5870.0 0.0065431
5890.0 0.0067079
5910.0 0.0069059
5930.0 0.0070329
5950.0 0.0070664
5970.0 0.0071334
5990.0 0.0071877
6010.0 0.0071217
6030.0 0.0070326
6050.0 0.0070766
6070.0 0.0071969
6090.0 0.0072486
6110.0 0.0071641
6130.0 0.0070698
6150.0 0.0069341
6170.0 0.0067877
6190.0 0.0066115
6210.0 0.00651
6230.0 0.0065462
6250.0 0.0065317
6270.0 0.0065153
6290.0 0.0065851
6310.0 0.0066606
6330.0 0.0066238
6350.0 0.0065098
6370.0 0.0064832
6390.0 0.0064414
6410.0 0.0063474
6430.0 0.00625
6450.0 0.0061842
6470.0 0.0061172
6490.0 0.0060826
6510.0 0.0060246
6530.0 0.0059171
6550.0 0.0058241
6570.0 0.0057635
6590.0 0.0057825
6610.0 0.0057664
6630.0 0.005588
6650.0 0.0054359
6670.0 0.0053804
6690.0 0.0052919
6710.0 0.0051557
6730.0 0.0050961
6750.0 0.0051174
6770.0 0.0053936
6790.0 0.0059817
6810.0 0.0056486
6830.0 0.0049334
6850.0 0.0046979
6870.0 0.0045847
6890.0 0.00454
6910.0 0.0045014
6930.0 0.0044595
6950.0 0.0043939
6970.0 0.0042276
6990.0 0.0041332
7010.0 0.0041353
7030.0 0.0040953
7050.0 0.0039745
7070.0 0.0038679
7090.0 0.0038255
7110.0 0.0038475
7130.0 0.0037952
7150.0 0.0037428
7170.0 0.0036949
7190.0 0.0036749
7210.0 0.0036491
7230.0 0.0036221
7250.0 0.0035996
7270.0 0.0035636
7290.0 0.0035507
7310.0 0.0035419
7330.0 0.0034444
7350.0 0.0033045
7370.0 0.0031974
7390.0 0.0031296
7410.0 0.0030749
7430.0 0.003052
7450.0 0.0030099
7470.0 0.0029954
7490.0 0.0029208
7510.0 0.0028304
7530.0 0.0028102
7550.0 0.002833
7570.0 0.0027708
7590.0 0.0025835
7610.0 0.0025192
7630.0 0.0026105
7650.0 0.0026177
7670.0 0.002583
7690.0 0.0026467
7710.0 0.0026883
7730.0 0.0026737
7750.0 0.0027628
7770.0 0.0026556
7790.0 0.0025552
7810.0 0.0026623
7830.0 0.002727
7850.0 0.0027504
7870.0 0.0027701
7890.0 0.0027515
7910.0 0.0026963
7930.0 0.0026778
7950.0 0.0027616
7970.0 0.0027317
7990.0 0.0025198
8010.0 0.0035594
8030.0 0.0034858
8050.0 0.0034291
8070.0 0.0033245
8090.0 0.0029887
8110.0 0.0029563
8130.0 0.0032853
8150.0 0.0034682
8170.0 0.0035581
8190.0 0.0037005
8210.0 0.0035754
8230.0 0.0035798
8250.0 0.003567
8270.0 0.0035411
8290.0 0.0034842
8310.0 0.0033157
8330.0 0.0032569
8350.0 0.0033503
8370.0 0.0033869
8390.0 0.0033141
8410.0 0.0032746
8430.0 0.0031701
8450.0 0.0031168
8470.0 0.0033225
8490.0 0.0033439
8510.0 0.0031503
8530.0 0.0030995
8550.0 0.0030627
8570.0 0.0028843
8590.0 0.0028972
8610.0 0.0029304
8630.0 0.0030113
8650.0 0.0030149
8670.0 0.0030162
8690.0 0.0029597
8710.0 0.0028646
8730.0 0.0027871
8750.0 0.0027355
8770.0 0.0027317
8790.0 0.0028033
8810.0 0.0026689
8830.0 0.002647
8850.0 0.0027561
8870.0 0.0026144
8890.0 0.0024428
8910.0 0.0023972
8930.0 0.0023801
8950.0 0.0022361
8970.0 0.0021448
8990.0 0.0020983
9010.0 0.001985
9030.0 0.0019564
9050.0 0.0019463
9070.0 0.0019371
9090.0 0.0019278
9110.0 0.0019184
9130.0 0.0019088
9150.0 0.0018994
9170.0 0.0018898
9190.0 0.0018802
9210.0 0.0018705
9230.0 0.0018607
9250.0 0.0018508
9270.0 0.0018409
9290.0 0.001831
9310.0 0.0018218
9330.0 0.0018136
9350.0 0.0018055
9370.0 0.0017972
9390.0 0.0017889
9410.0 0.0017806
9430.0 0.0017723
9450.0 0.0017638
9470.0 0.0017563
9490.0 0.0017483
9510.0 0.0017393
9530.0 0.0017304
9550.0 0.0017217
9570.0 0.001713
9590.0 0.0017044
9610.0 0.0016968
9630.0 0.0016895
9650.0 0.001682
9670.0 0.0016745
9690.0 0.001667
9710.0 0.0016596
9730.0 0.001652
9750.0 0.0016445
9770.0 0.0016371
9790.0 0.0016295
9810.0 0.001622
9830.0 0.0016145
9850.0 0.0016062
9870.0 0.0015972
9890.0 0.0015907
9910.0 0.0015839
9930.0 0.0015758
9950.0 0.0015684
9970.0 0.0015615
9990.0 0.0015545
10010.0 0.0015474
10030.0 0.0015402
10050.0 0.0015329
10070.0 0.0015257
10090.0 0.0015185
10110.0 0.0015113
10130.0 0.0015041
10150.0 0.001497
10170.0 0.0014899
10190.0 0.0014828
10210.0 0.0014759
10230.0 0.0014689
10250.0 0.001462
10270.0 0.0014552
10290.0 0.0014484
10310.0 0.0014416
10330.0 0.0014349
10350.0 0.0014282
10370.0 0.0014216
10390.0 0.001415
10410.0 0.0014074
10430.0 0.0013996
10450.0 0.0013944
10470.0 0.0013885
10490.0 0.0013827
10510.0 0.0013767
10530.0 0.0013705
10550.0 0.0013644
10570.0 0.0013585
10590.0 0.0013525
10610.0 0.0013465
10630.0 0.0013407
10650.0 0.0013349
10670.0 0.001329
10690.0 0.0013233
10710.0 0.0013177
10730.0 0.0013121
10750.0 0.0013064
10770.0 0.0013011
10790.0 0.0012957
10810.0 0.0012903
10830.0 0.001285
10850.0 0.0012798
10870.0 0.0012745
10890.0 0.0012692
10910.0 0.0012641
10930.0 0.0012588
10950.0 0.0012533
10970.0 0.0012477
10990.0 0.0012421
11010.0 0.0011989
11030.0 0.0011927
11050.0 0.0011865
11070.0 0.0011801
11090.0 0.001173
11110.0 0.0011661
11130.0 0.0011591
11150.0 0.0011517
11170.0 0.0011441
11190.0 0.0011367
11210.0 0.001129
11230.0 0.001121
11250.0 0.0011133
11270.0 0.0011057
11290.0 0.0010979
11310.0 0.0010903
11330.0 0.0010834
11350.0 0.0010765
11370.0 0.0010699
11390.0 0.0010638
11410.0 0.0010581
11430.0 0.0010523
11450.0 0.0010469
11470.0 0.0010419
11490.0 0.0010369
11510.0 0.0010319
11530.0 0.0010271
11550.0 0.0010223
11570.0 0.0010172
11590.0 0.0010121
11610.0 0.001007
11630.0 0.0010016
11650.0 0.00099581
11670.0 0.00099014
11690.0 0.00098431
11710.0 0.00097812
11730.0 0.00097186
11750.0 0.00096574
11770.0 0.0009593
11790.0 0.00095272
11810.0 0.00094635
11830.0 0.00094001
11850.0 0.00093339
11870.0 0.00092708
11890.0 0.00092111
11910.0 0.00091514
11930.0 0.00090932
11950.0 0.00090397
11970.0 0.00089884
11990.0 0.0008938
12010.0 0.00088921
12030.0 0.00088503
12050.0 0.00088105
12070.0 0.00087732
12090.0 0.00087413
12110.0 0.00087116
12130.0 0.00086839
12150.0 0.00086591
12170.0 0.0008637
12190.0 0.0008615
12210.0 0.00085942
12230.0 0.00085744
12250.0 0.00085541
12270.0 0.0008532
12290.0 0.00085088
12310.0 0.00084841
12330.0 0.00084554
12350.0 0.00084234
12370.0 0.00083888
12390.0 0.000835
12410.0 0.00083047
12430.0 0.00082577
12450.0 0.00082074
12470.0 0.00081516
12490.0 0.00080922
12510.0 0.00080323
12530.0 0.00079679
12550.0 0.00078993
12570.0 0.00078309
12590.0 0.00077617
12610.0 0.00076885
12630.0 0.00076146
12650.0 0.00075445
12670.0 0.00074727
12690.0 0.00074001
12710.0 0.00073311
12730.0 0.00072643
12750.0 0.00071958
12770.0 0.00071313
12790.0 0.00070712
12810.0 0.00070125
12830.0 0.00069556
12850.0 0.00069046
12870.0 0.00068572
12890.0 0.00068116
12910.0 0.00067706
12930.0 0.00067345
12950.0 0.00067011
12970.0 0.00066714
12990.0 0.00066472
13010.0 0.0006627
13030.0 0.00066103
13050.0 0.00065976
13070.0 0.00065888
13090.0 0.00065825
13110.0 0.00065788
13130.0 0.00065769
13150.0 0.00065759
13170.0 0.0006575
13190.0 0.00065734
13210.0 0.00065704
13230.0 0.00065651
13250.0 0.00065568
13270.0 0.00065455
13290.0 0.00065306
13310.0 0.0006511
13330.0 0.00064878
13350.0 0.00064612
13370.0 0.00064297
13390.0 0.00063936
13410.0 0.00063561
13430.0 0.00063147
13450.0 0.00062688
13470.0 0.00062211
13490.0 0.00061723
13510.0 0.00061178
13530.0 0.00060618
13550.0 0.00060061
13570.0 0.00059481
13590.0 0.00058869
13610.0 0.00058264
13630.0 0.00057668
13650.0 0.00057038
13670.0 0.00056407
13690.0 0.00055796
13710.0 0.00055175
13730.0 0.00054525
13750.0 0.00053918
13770.0 0.00053322
13790.0 0.00052716
13810.0 0.00052126
13830.0 0.00051574
13850.0 0.00051019
13870.0 0.0005047
13890.0 0.00049958
13910.0 0.00049467
13930.0 0.00048975
13950.0 0.00048505
13970.0 0.00048076
13990.0 0.00047651
14010.0 0.00047237
14030.0 0.00046853
14050.0 0.00046489
14070.0 0.00046122
14090.0 0.00045782
14110.0 0.00045468
14130.0 0.00045162
14150.0 0.00044864
14170.0 0.00044595
14190.0 0.00044338
14210.0 0.00044084
14230.0 0.00043845
14250.0 0.00043622
14270.0 0.00043398
14290.0 0.00043177
14310.0 0.00042972
14330.0 0.00042771
14350.0 0.00042568
14370.0 0.00042372
14390.0 0.00042186
14410.0 0.00041996
14430.0 0.00041807
14450.0 0.00041627
14470.0 0.00041449
14490.0 0.00041264
14510.0 0.00041086
14530.0 0.00040915
14550.0 0.00040737
14570.0 0.00040558
14590.0 0.00040386
14610.0 0.00040209
14630.0 0.00040024
14650.0 0.00039843
14670.0 0.00039663
14690.0 0.00039475
14710.0 0.00039282
14730.0 0.00039097
14750.0 0.00038906
14770.0 0.00038706
14790.0 0.00038507
14810.0 0.00038311
14830.0 0.00038097
14850.0 0.00037883
14870.0 0.00037674
14890.0 0.0003746
14910.0 0.00037241
14930.0 0.00037032
14950.0 0.00036836
14970.0 0.00036642
14990.0 0.00036466
15010.0 0.00036313
15030.0 0.00036174
15050.0 0.00036045
15070.0 0.00035937
15090.0 0.00035839
15110.0 0.00035744
15130.0 0.00035654
15150.0 0.0003557
15170.0 0.00035484
15190.0 0.00035396
15210.0 0.00035312
15230.0 0.00035228
15250.0 0.00035141
15270.0 0.00035054
15290.0 0.00034972
15310.0 0.00034887
15330.0 0.000348
15350.0 0.00034716
15370.0 0.00034633
15390.0 0.00034544
15410.0 0.00034459
15430.0 0.00034375
15450.0 0.00034289
15470.0 0.00034202
15490.0 0.00034118
15510.0 0.00034034
15530.0 0.00033947
15550.0 0.00033862
15570.0 0.00033778
15590.0 0.00033692
15610.0 0.00033603
15630.0 0.00033519
15650.0 0.00033435
15670.0 0.00033347
15690.0 0.00033262
15710.0 0.00033179
15730.0 0.00033092
15750.0 0.00033005
15770.0 0.00032921
15790.0 0.00032836
15810.0 0.00032747
15830.0 0.00032661
15850.0 0.00032577
15870.0 0.00032491
15890.0 0.00032404
15910.0 0.0003232
15930.0 0.00032235
15950.0 0.00032146
15970.0 0.0003206
15990.0 0.00031976
16010.0 0.00031889
16030.0 0.000318
16050.0 0.00031717
16070.0 0.00031631
16090.0 0.00031544
16110.0 0.00031458
16130.0 0.00031375
16150.0 0.00031285
16170.0 0.00031198
16190.0 0.00031114
16210.0 0.00031027
16230.0 0.00030939
16250.0 0.00030854
16270.0 0.0003077
16290.0 0.00030681
16310.0 0.00030594
16330.0 0.0003051
16350.0 0.00030424
16370.0 0.00030333
16390.0 0.00030248
16410.0 0.00030163
16430.0 0.00030076
16450.0 0.00029988
16470.0 0.00029905
16490.0 0.00029817
16510.0 0.00029729
16530.0 0.00029643
16550.0 0.00029558
16570.0 0.00029469
16590.0 0.00029381
16610.0 0.00029297
16630.0 0.0002921
16650.0 0.00029122
16670.0 0.00029037
16690.0 0.00028952
16710.0 0.00028862
16730.0 0.00028775
16750.0 0.0002869
16770.0 0.00028603
16790.0 0.00028513
16810.0 0.00028429
16830.0 0.00028343
16850.0 0.00028255
16870.0 0.00028168
16890.0 0.00028083
16910.0 0.00027995
16930.0 0.00027905
16950.0 0.0002782
16970.0 0.00027734
16990.0 0.00027645
17010.0 0.00027559
17030.0 0.00027475
17050.0 0.00027386
17070.0 0.00027298
17090.0 0.00027213
17110.0 0.00027126
17130.0 0.00027036
17150.0 0.00026949
17170.0 0.00026865
17190.0 0.00026777
17210.0 0.00026689
17230.0 0.00026604
17250.0 0.00026517
17270.0 0.00026428
17290.0 0.00026341
17310.0 0.00026256
17330.0 0.00026167
17350.0 0.00026078
17370.0 0.00025994
17390.0 0.00025907
17410.0 0.00025818
17430.0 0.00025732
17450.0 0.00025648
17470.0 0.00025557
17490.0 0.00025469
17510.0 0.00025384
17530.0 0.00025297
17550.0 0.00025208
17570.0 0.00025122
17590.0 0.00025037
17610.0 0.00024948
17630.0 0.00024861
17650.0 0.00024776
17670.0 0.00024688
17690.0 0.00024598
17710.0 0.00024512
17730.0 0.00024427
17750.0 0.00024338
17770.0 0.00024251
17790.0 0.00024167
17810.0 0.00024078
17830.0 0.00023989
17850.0 0.00023904
17870.0 0.00023818
17890.0 0.00023728
17910.0 0.0002364
17930.0 0.00023556
17950.0 0.00023468
17970.0 0.0002338
17990.0 0.00023295
18010.0 0.00023209
18030.0 0.00023119
18050.0 0.00023032
18070.0 0.00022947
18090.0 0.00022859
18110.0 0.0002277
18130.0 0.00022685
18150.0 0.00022599
18170.0 0.0002251
18190.0 0.00022423
18210.0 0.00022339
18230.0 0.0002225
18250.0 0.00022161
18270.0 0.00022076
18290.0 0.00021989
18310.0 0.00021901
18330.0 0.00021814
18350.0 0.0002173
18370.0 0.00021641
18390.0 0.00021553
18410.0 0.00021468
18430.0 0.00021381
18450.0 0.00021291
18470.0 0.00021205
18490.0 0.0002112
18510.0 0.00021032
18530.0 0.00020944
18550.0 0.0002086
18570.0 0.00020773
18590.0 0.00020683
18610.0 0.00020597
18630.0 0.00020512
18650.0 0.00020423
18670.0 0.00020335
18690.0 0.00020251
18710.0 0.00020164
18730.0 0.00020076
18750.0 0.0001999
18770.0 0.00019905
18790.0 0.00019815
18810.0 0.00019728
18830.0 0.00019643
18850.0 0.00019556
18870.0 0.00019467
18890.0 0.00019382
18910.0 0.00019297
18930.0 0.00019208
18950.0 0.00019121
18970.0 0.00019036
18990.0 0.00018949
19010.0 0.00018859
19030.0 0.00018774
19050.0 0.00018689
19070.0 0.000186
19090.0 0.00018513
19110.0 0.0001843
19130.0 0.00018342
19150.0 0.00018253
19170.0 0.00018168
19190.0 0.00018082
19210.0 0.00017993
19230.0 0.00017906
19250.0 0.00017822
19270.0 0.00017734
19290.0 0.00017646
19310.0 0.00017562
19330.0 0.00017476
19350.0 0.00017386
19370.0 0.000173
19390.0 0.00017215
19410.0 0.00017127
19430.0 0.00017039
19450.0 0.00016955
19470.0 0.00016869
19490.0 0.00016781
19510.0 0.00016694
19530.0 0.0001661
19550.0 0.00016521
19570.0 0.00016433
19590.0 0.00016348
19610.0 0.00016262
19630.0 0.00016174
19650.0 0.00016088
19670.0 0.00016004
19690.0 0.00015916
19710.0 0.00015828
19730.0 0.00015743
19750.0 0.00015657
19770.0 0.00015567
19790.0 0.00015482
19810.0 0.00015397
19830.0 0.0001531
19850.0 0.00015223
19870.0 0.0001514
19890.0 0.00015055
19910.0 0.00014969
19930.0 0.00014889
19950.0 0.00014814
19970.0 0.00014742
19990.0 0.00014679
20010.0 0.00014626
20030.0 0.0001458
20050.0 0.00014541
20070.0 0.00014512
20090.0 0.00014487
20110.0 0.00014466
20130.0 0.00014448
20150.0 0.00014432
20170.0 0.00014415
20190.0 0.00014399
20210.0 0.00014383
20230.0 0.00014366
20250.0 0.00014348
20270.0 0.00014329
20290.0 0.0001431
20310.0 0.00014289
20330.0 0.00014266
20350.0 0.00014243
20370.0 0.00014219
20390.0 0.00014193
20410.0 0.00014166
20430.0 0.0001414
20450.0 0.00014111
20470.0 0.00014082
20490.0 0.00014053
20510.0 0.00014025
20530.0 0.00013995
20550.0 0.00013966
20570.0 0.00013939
20590.0 0.00013911
20610.0 0.00013884
20630.0 0.00013858
20650.0 0.00013833
20670.0 0.00013807
20690.0 0.00013782
20710.0 0.00013757
20730.0 0.00013731
20750.0 0.00013704
20770.0 0.00013677
20790.0 0.00013648
20810.0 0.00013616
20830.0 0.00013583
20850.0 0.00013549
20870.0 0.0001351
20890.0 0.00013469
20910.0 0.00013427
20930.0 0.00013382
20950.0 0.00013334
20970.0 0.00013285
20990.0 0.00013236
21010.0 0.00013183
21030.0 0.0001313
21050.0 0.00013079
21070.0 0.00013026
21090.0 0.00012972
21110.0 0.0001292
21130.0 0.0001287
21150.0 0.00012818
21170.0 0.00012768
21190.0 0.00012719
21210.0 0.00012669
21230.0 0.00012618
21250.0 0.00012569
21270.0 0.0001252
21290.0 0.00012469
21310.0 0.00012417
21330.0 0.00012367
21350.0 0.00012313
21370.0 0.00012258
21390.0 0.00012203
21410.0 0.00012147
21430.0 0.00012086
21450.0 0.00012026
21470.0 0.00011966
21490.0 0.00011903
21510.0 0.00011838
21530.0 0.00011774
21550.0 0.00011709
21570.0 0.00011641
21590.0 0.00011574
21610.0 0.00011508
21630.0 0.0001144
21650.0 0.00011369
21670.0 0.00011303
21690.0 0.00011236
21710.0 0.00011167
21730.0 0.000111
21750.0 0.00011035
21770.0 0.00010966
21790.0 0.00010898
21810.0 0.00010833
21830.0 0.00010767
21850.0 0.00010698
21870.0 0.00010632
21890.0 0.00010567
21910.0 0.000105
21930.0 0.00010434
21950.0 0.0001037
21970.0 0.00010305
21990.0 0.00010239
22010.0 0.00010176
22030.0 0.00010116
22050.0 0.00010055
22070.0 9.9957e-05
22090.0 9.9405e-05
22110.0 9.8861e-05
22130.0 9.8326e-05
22150.0 9.783e-05
22170.0 9.7363e-05
22190.0 9.6899e-05
22210.0 9.6461e-05
22230.0 9.6065e-05
22250.0 9.5678e-05
22270.0 9.5301e-05
22290.0 9.4951e-05
22310.0 9.4617e-05
22330.0 9.4278e-05
22350.0 9.3952e-05
22370.0 9.364e-05
22390.0 9.3325e-05
22410.0 9.3001e-05
22430.0 9.2692e-05
22450.0 9.2382e-05
22470.0 9.2059e-05
22490.0 9.1736e-05
22510.0 9.142e-05
22530.0 9.1088e-05
22550.0 9.0748e-05
22570.0 9.042e-05
22590.0 9.0091e-05
22610.0 8.9752e-05
22630.0 8.9421e-05
22650.0 8.9106e-05
22670.0 8.8785e-05
22690.0 8.8469e-05
22710.0 8.8172e-05
22730.0 8.7886e-05
22750.0 8.7598e-05
22770.0 8.7334e-05
22790.0 8.7091e-05
22810.0 8.6855e-05
22830.0 8.6633e-05
22850.0 8.6435e-05
22870.0 8.6249e-05
22890.0 8.6071e-05
22910.0 8.5911e-05
22930.0 8.5766e-05
22950.0 8.5628e-05
22970.0 8.5498e-05
22990.0 8.5383e-05
23010.0 8.5275e-05
23030.0 8.5171e-05
23050.0 8.5077e-05
23070.0 8.4991e-05
23090.0 8.4911e-05
23110.0 8.4858e-05
23130.0 8.4819e-05
23150.0 8.4792e-05
23170.0 8.478e-05
23190.0 8.4784e-05
23210.0 8.4805e-05
23230.0 8.4847e-05
23250.0 8.4908e-05
