#lamb flux
1010.0 2.0841e-07
1030.0 2.3051e-07
1050.0 2.5592e-07
1070.0 2.8452e-07
1090.0 3.1701e-07
1110.0 3.5034e-07
1130.0 3.8388e-07
1150.0 4.1901e-07
1170.0 4.5526e-07
1190.0 4.8962e-07
1210.0 5.2445e-07
1230.0 5.6045e-07
1250.0 5.9571e-07
1270.0 6.2995e-07
1290.0 6.6614e-07
1310.0 7.023e-07
1330.0 7.3698e-07
1350.0 7.7205e-07
1370.0 8.0825e-07
1390.0 8.4355e-07
1410.0 8.7781e-07
1430.0 9.1362e-07
1450.0 9.4942e-07
1470.0 9.8403e-07
1490.0 1.019e-06
1510.0 1.056e-06
1530.0 1.091e-06
1550.0 1.1256e-06
1570.0 1.1613e-06
1590.0 1.1971e-06
1610.0 1.2313e-06
1630.0 1.2666e-06
1650.0 1.3028e-06
1670.0 1.3379e-06
1690.0 1.3725e-06
1710.0 1.4085e-06
1730.0 1.4448e-06
1750.0 1.4789e-06
1770.0 1.514e-06
1790.0 1.5499e-06
1810.0 1.5847e-06
1830.0 1.6189e-06
1850.0 1.6553e-06
1870.0 1.6907e-06
1890.0 1.7251e-06
1910.0 1.7602e-06
1930.0 1.7963e-06
1950.0 1.8307e-06
1970.0 1.8649e-06
1990.0 1.9004e-06
2010.0 1.9354e-06
2030.0 1.9692e-06
2050.0 2.0041e-06
2070.0 2.04e-06
2090.0 2.074e-06
2110.0 2.1079e-06
2130.0 2.1429e-06
2150.0 2.1773e-06
2170.0 2.2103e-06
2190.0 2.2446e-06
2210.0 2.2791e-06
2230.0 2.3123e-06
2250.0 2.3455e-06
2270.0 2.3801e-06
2290.0 2.4137e-06
2310.0 2.4461e-06
2330.0 2.4797e-06
2350.0 2.5142e-06
2370.0 2.5486e-06
2390.0 2.5859e-06
2410.0 2.63e-06
2430.0 2.6807e-06
2450.0 2.7414e-06
2470.0 2.8191e-06
2490.0 2.9171e-06
2510.0 3.0284e-06
2530.0 3.1625e-06
2550.0 3.3303e-06
2570.0 3.539e-06
2590.0 3.8105e-06
2610.0 4.2171e-06
2630.0 4.7975e-06
2650.0 5.5564e-06
2670.0 6.5376e-06
2690.0 7.7433e-06
2710.0 9.0304e-06
2730.0 1.0302e-05
2750.0 1.1555e-05
2770.0 1.2644e-05
2790.0 1.351e-05
2810.0 1.4196e-05
2830.0 1.4733e-05
2850.0 1.5099e-05
2870.0 1.5368e-05
2890.0 1.5581e-05
2910.0 1.575e-05
2930.0 1.5889e-05
2950.0 1.6022e-05
2970.0 1.6151e-05
2990.0 1.6273e-05
3010.0 0.00045996
3030.0 0.0004634
3050.0 0.00046672
3070.0 0.00046957
3090.0 0.00047201
3110.0 0.00047353
3130.0 0.00047347
3150.0 0.00047137
3170.0 0.00046632
3190.0 0.00045839
3210.0 0.00044834
3230.0 0.00043683
3250.0 0.00042547
3270.0 0.00041717
3290.0 0.00041256
3310.0 0.00041331
3330.0 0.00041929
3350.0 0.00042971
3370.0 0.00044458
3390.0 0.00046332
3410.0 0.00048372
3430.0 0.00050662
3450.0 0.00053298
3470.0 0.00056178
3490.0 0.00059229
3510.0 0.00062677
3530.0 0.0006637
3550.0 0.00070109
3570.0 0.0007401
3590.0 0.00078252
3610.0 0.00082622
3630.0 0.0008698
3650.0 0.000915
3670.0 0.00095628
3690.0 0.00098713
3710.0 0.0010048
3730.0 0.0010054
3750.0 0.0009914
3770.0 0.00098591
3790.0 0.00098005
3810.0 0.00095596
3830.0 0.00098555
3850.0 0.001102
3870.0 0.0011659
3890.0 0.0011605
3910.0 0.0011655
3930.0 0.0011962
3950.0 0.0012151
3970.0 0.001107
3990.0 0.00095255
4010.0 0.0028549
4030.0 0.0034591
4050.0 0.0039657
4070.0 0.0034409
4090.0 0.0031164
4110.0 0.0027499
4130.0 0.002531
4150.0 0.0026923
4170.0 0.002652
4190.0 0.0028268
4210.0 0.002801
4230.0 0.0029627
4250.0 0.0035049
4270.0 0.0035461
4290.0 0.0032677
4310.0 0.0033954
4330.0 0.0036117
4350.0 0.0040496
4370.0 0.0046085
4390.0 0.0043246
4410.0 0.0031951
4430.0 0.0027048
4450.0 0.0024854
4470.0 0.0019077
4490.0 0.0020586
4510.0 0.0031096
4530.0 0.0035863
4550.0 0.0036174
4570.0 0.0040705
4590.0 0.0046367
4610.0 0.0062538
4630.0 0.0081224
4650.0 0.0088086
4670.0 0.0081576
4690.0 0.0077838
4710.0 0.008228
4730.0 0.0077649
4750.0 0.0058053
4770.0 0.0042584
4790.0 0.0039765
4810.0 0.0037902
4830.0 0.0034699
4850.0 0.0038076
4870.0 0.0050303
4890.0 0.0059321
4910.0 0.0052047
4930.0 0.0046054
4950.0 0.0050597
4970.0 0.0064888
4990.0 0.0087939
5010.0 0.010116
5030.0 0.0089201
5050.0 0.006035
5070.0 0.0039773
5090.0 0.0032071
5110.0 0.0032982
5130.0 0.0038067
5150.0 0.0041242
5170.0 0.0040623
5190.0 0.003796
5210.0 0.0039676
5230.0 0.0041709
5250.0 0.004495
5270.0 0.0048497
5290.0 0.0053744
5310.0 0.0062556
5330.0 0.0069226
5350.0 0.0068784
5370.0 0.007225
5390.0 0.0082908
5410.0 0.0082832
5430.0 0.0073252
5450.0 0.0067301
5470.0 0.0071462
5490.0 0.0087305
5510.0 0.010916
5530.0 0.01252
5550.0 0.012101
5570.0 0.011
5590.0 0.0095648
5610.0 0.0088209
5630.0 0.0085534
5650.0 0.0081462
5670.0 0.0077191
5690.0 0.0069008
5710.0 0.0067284
5730.0 0.0061978
5750.0 0.0043697
5770.0 0.0034091
5790.0 0.0038632
5810.0 0.0043622
5830.0 0.005353
5850.0 0.0063721
5870.0 0.0070698
5890.0 0.0071895
5910.0 0.0070534
5930.0 0.0067139
5950.0 0.0068413
5970.0 0.0077983
5990.0 0.0073323
6010.0 0.0061466
6030.0 0.005193
6050.0 0.0045225
6070.0 0.0044977
6090.0 0.0048771
6110.0 0.0054534
6130.0 0.0055369
6150.0 0.004764
6170.0 0.0041908
6190.0 0.0047162
6210.0 0.0062347
6230.0 0.0081817
6250.0 0.008862
6270.0 0.0077441
6290.0 0.0065156
6310.0 0.0050865
6330.0 0.0038972
6350.0 0.0034762
6370.0 0.0036556
6390.0 0.0042261
6410.0 0.005211
6430.0 0.006085
6450.0 0.0069629
6470.0 0.0079726
6490.0 0.0096304
6510.0 0.010768
6530.0 0.010564
6550.0 0.0095528
6570.0 0.0081094
6590.0 0.0073125
6610.0 0.0063053
6630.0 0.0057123
6650.0 0.0053998
6670.0 0.0052458
6690.0 0.0047398
6710.0 0.0043086
6730.0 0.0031034
6750.0 0.0030767
6770.0 0.0033442
6790.0 0.0038439
6810.0 0.0035172
6830.0 0.0036218
6850.0 0.0033875
6870.0 0.0030945
6890.0 0.0029712
6910.0 0.0031662
6930.0 0.0029656
6950.0 0.0030511
6970.0 0.0032092
6990.0 0.0036427
7010.0 0.0036737
7030.0 0.0037321
7050.0 0.0035591
7070.0 0.0033912
7090.0 0.0034011
7110.0 0.0034995
7130.0 0.003766
7150.0 0.0039998
7170.0 0.0044135
7190.0 0.0048517
7210.0 0.0047674
7230.0 0.004901
7250.0 0.0052669
7270.0 0.0057396
7290.0 0.0068124
7310.0 0.0073921
7330.0 0.007145
7350.0 0.0064622
7370.0 0.0056227
7390.0 0.0054547
7410.0 0.0057967
7430.0 0.0064424
7450.0 0.0070169
7470.0 0.0069524
7490.0 0.0063393
7510.0 0.0071809
7530.0 0.0071023
7550.0 0.0063837
7570.0 0.0049869
7590.0 0.0034283
7610.0 0.0029425
7630.0 0.0033433
7650.0 0.003953
7670.0 0.0049199
7690.0 0.005414
7710.0 0.0056421
7730.0 0.0059291
7750.0 0.0066562
7770.0 0.0067609
7790.0 0.0062102
7810.0 0.0056665
7830.0 0.0058435
7850.0 0.0056804
7870.0 0.005208
7890.0 0.0043758
7910.0 0.0035569
7930.0 0.0033963
7950.0 0.0030942
7970.0 0.0028642
7990.0 0.0028479
8010.0 0.00021323
8030.0 0.00021018
8050.0 0.00020761
8070.0 0.00021081
8090.0 0.00022721
8110.0 0.0002232
8130.0 0.00018296
8150.0 0.00017846
8170.0 0.00015277
8190.0 0.00014412
8210.0 0.00018882
8230.0 0.00021052
8250.0 0.00018807
8270.0 0.00016347
8290.0 0.00016053
8310.0 0.00012384
8330.0 8.3388e-05
8350.0 5.9256e-05
8370.0 3.6852e-05
8390.0 6.8199e-05
8410.0 7.9429e-05
8430.0 9.7902e-05
8450.0 0.00011492
8470.0 0.00014354
8490.0 0.00014212
8510.0 0.00013936
8530.0 0.00014459
8550.0 0.00019693
8570.0 0.0002341
8590.0 0.00025093
8610.0 0.00031775
8630.0 0.00038232
8650.0 0.00039754
8670.0 0.00042359
8690.0 0.00042806
8710.0 0.00038731
8730.0 0.00036096
8750.0 0.00031803
8770.0 0.00030148
8790.0 0.00029665
8810.0 0.00028481
8830.0 0.00022658
8850.0 0.00016499
8870.0 0.0001262
8890.0 0.0001246
8910.0 0.00014367
8930.0 0.00016406
8950.0 0.00016745
8970.0 0.00016802
8990.0 0.00014911
9010.0 0.0015351
9030.0 0.0013901
9050.0 0.0013969
9070.0 0.001408
9090.0 0.0014178
9110.0 0.0014299
9130.0 0.0014392
9150.0 0.0014464
9170.0 0.0014541
9190.0 0.0014623
9210.0 0.001471
9230.0 0.0014801
9250.0 0.0014894
9270.0 0.001499
9290.0 0.0015089
9310.0 0.0015189
9330.0 0.0015291
9350.0 0.0015396
9370.0 0.0015503
9390.0 0.0015611
9410.0 0.0015722
9430.0 0.0015836
9450.0 0.001595
9470.0 0.0016066
9490.0 0.0016185
9510.0 0.0016306
9530.0 0.0016428
9550.0 0.0016553
9570.0 0.0016681
9590.0 0.0016809
9610.0 0.001694
9630.0 0.0017074
9650.0 0.0017209
9670.0 0.0017344
9690.0 0.0017483
9710.0 0.0017624
9730.0 0.0017766
9750.0 0.0017909
9770.0 0.0018057
9790.0 0.0018204
9810.0 0.0018353
9830.0 0.0018504
9850.0 0.0018657
9870.0 0.001881
9890.0 0.0018965
9910.0 0.0019124
9930.0 0.0019282
9950.0 0.0019441
9970.0 0.0019603
9990.0 0.0019766
10010.0 0.0017153
10030.0 0.0017294
10050.0 0.0017438
10070.0 0.0017587
10090.0 0.0017728
10110.0 0.0017872
10130.0 0.0018017
10150.0 0.0018161
10170.0 0.0018307
10190.0 0.0018456
10210.0 0.0018603
10230.0 0.0018749
10250.0 0.0018898
10270.0 0.0019046
10290.0 0.0019193
10310.0 0.0019342
10330.0 0.0019492
10350.0 0.0019639
10370.0 0.0019786
10390.0 0.0019935
10410.0 0.0020083
10430.0 0.0020228
10450.0 0.0020375
10470.0 0.0020522
10490.0 0.0020667
10510.0 0.002081
10530.0 0.0020956
10550.0 0.0021099
10570.0 0.002124
10590.0 0.0021381
10610.0 0.0021522
10630.0 0.002166
10650.0 0.0021796
10670.0 0.0021934
10690.0 0.0022069
10710.0 0.0022202
10730.0 0.0022334
10750.0 0.0022467
10770.0 0.0022594
10790.0 0.0022721
10810.0 0.0022847
10830.0 0.0022969
10850.0 0.0023085
10870.0 0.0023198
10890.0 0.0023297
10910.0 0.0023373
10930.0 0.0023417
10950.0 0.0023407
10970.0 0.0023328
10990.0 0.0023172
11010.0 0.0022882
11030.0 0.0022518
11050.0 0.0022074
11070.0 0.0021543
11090.0 0.0020906
11110.0 0.0020247
11130.0 0.0019559
11150.0 0.0018819
11170.0 0.0018055
11190.0 0.0017315
11210.0 0.001655
11230.0 0.0015766
11250.0 0.0015017
11270.0 0.0014298
11290.0 0.0013577
11310.0 0.0012894
11330.0 0.0012293
11350.0 0.0011725
11370.0 0.00112
11390.0 0.0010746
11410.0 0.0010348
11430.0 0.00099791
11450.0 0.0009661
11470.0 0.00093859
11490.0 0.000913
11510.0 0.00088834
11530.0 0.00086546
11550.0 0.00084273
11570.0 0.00081848
11590.0 0.00079336
11610.0 0.0007678
11630.0 0.00073997
11650.0 0.00071019
11670.0 0.00068083
11690.0 0.00065106
11710.0 0.00062034
11730.0 0.00059058
11750.0 0.00056304
11770.0 0.00053603
11790.0 0.00051072
11810.0 0.00048843
11830.0 0.00046851
11850.0 0.00045015
11870.0 0.00043479
11890.0 0.00042203
11910.0 0.00041081
11930.0 0.00040117
11950.0 0.00039314
11970.0 0.00038597
11990.0 0.00037919
12010.0 0.00037292
12030.0 0.00036687
12050.0 0.00036063
12070.0 0.00035413
12090.0 0.00034786
12110.0 0.0003415
12130.0 0.00033513
12150.0 0.00032925
12170.0 0.00032412
12190.0 0.00031968
12210.0 0.00031659
12230.0 0.00031509
12250.0 0.00031533
12270.0 0.00031771
12290.0 0.00032221
12310.0 0.00032865
12330.0 0.00033767
12350.0 0.00034893
12370.0 0.00036175
12390.0 0.00037653
12410.0 0.00039385
12430.0 0.00041145
12450.0 0.00042967
12470.0 0.00044905
12490.0 0.00046852
12510.0 0.00048678
12530.0 0.00050494
12550.0 0.00052247
12570.0 0.00053794
12590.0 0.00055152
12610.0 0.00056362
12630.0 0.00057327
12650.0 0.00057993
12670.0 0.00058431
12690.0 0.00058606
12710.0 0.00058509
12730.0 0.0005817
12750.0 0.00057565
12770.0 0.00056735
12790.0 0.00055728
12810.0 0.00054525
12830.0 0.00053134
12850.0 0.00051679
12870.0 0.00050141
12890.0 0.00048476
12910.0 0.00046784
12930.0 0.00045116
12950.0 0.00043376
12970.0 0.00041605
12990.0 0.00039929
13010.0 0.00038274
13030.0 0.000366
13050.0 0.00034993
13070.0 0.00033487
13090.0 0.00031976
13110.0 0.00030514
13130.0 0.00029166
13150.0 0.0002789
13170.0 0.0002664
13190.0 0.00025528
13210.0 0.0002455
13230.0 0.00023655
13250.0 0.00022884
13270.0 0.00022277
13290.0 0.00021804
13310.0 0.00021478
13330.0 0.0002133
13350.0 0.00021347
13370.0 0.00021539
13390.0 0.00021915
13410.0 0.00022423
13430.0 0.00023084
13450.0 0.000239
13470.0 0.00024806
13490.0 0.00025766
13510.0 0.00026848
13530.0 0.00027945
13550.0 0.00028996
13570.0 0.00030031
13590.0 0.00031041
13610.0 0.00031938
13630.0 0.00032722
13650.0 0.00033438
13670.0 0.00034032
13690.0 0.00034491
13710.0 0.00034846
13730.0 0.000351
13750.0 0.00035227
13770.0 0.00035256
13790.0 0.00035192
13810.0 0.00035036
13830.0 0.00034807
13850.0 0.00034496
13870.0 0.00034104
13890.0 0.00033655
13910.0 0.0003315
13930.0 0.00032564
13950.0 0.00031926
13970.0 0.00031272
13990.0 0.00030561
14010.0 0.00029804
14030.0 0.0002905
14050.0 0.00028289
14070.0 0.00027487
14090.0 0.00026717
14110.0 0.00025995
14130.0 0.00025294
14150.0 0.00024634
14170.0 0.00024071
14190.0 0.00023585
14210.0 0.00023172
14230.0 0.00022866
14250.0 0.00022668
14270.0 0.00022572
14290.0 0.00022593
14310.0 0.00022719
14330.0 0.00022945
14350.0 0.00023278
14370.0 0.00023692
14390.0 0.00024163
14410.0 0.00024718
14430.0 0.00025327
14450.0 0.00025949
14470.0 0.00026594
14490.0 0.0002728
14510.0 0.00027936
14530.0 0.00028559
14550.0 0.00029182
14570.0 0.0002978
14590.0 0.00030325
14610.0 0.00030851
14630.0 0.00031372
14650.0 0.00031858
14670.0 0.00032326
14690.0 0.00032815
14710.0 0.00033329
14730.0 0.00033843
14750.0 0.00034412
14770.0 0.00035058
14790.0 0.00035757
14810.0 0.00036516
14830.0 0.00037414
14850.0 0.00038391
14870.0 0.0003941
14890.0 0.00040509
14910.0 0.00041677
14930.0 0.000428
14950.0 0.00043848
14970.0 0.00044842
14990.0 0.00045674
15010.0 0.00046311
15030.0 0.00046783
15050.0 0.00047095
15070.0 0.00047247
15090.0 0.00047301
15110.0 0.00047285
15130.0 0.00047226
15150.0 0.00047146
15170.0 0.00047052
15190.0 0.0004695
15210.0 0.0004685
15230.0 0.00046751
15250.0 0.00046648
15270.0 0.00046545
15290.0 0.00046449
15310.0 0.0004635
15330.0 0.00046249
15350.0 0.00046153
15370.0 0.00046057
15390.0 0.00045957
15410.0 0.0004586
15430.0 0.00045766
15450.0 0.00045669
15470.0 0.00045571
15490.0 0.00045479
15510.0 0.00045386
15530.0 0.0004529
15550.0 0.00045196
15570.0 0.00045106
15590.0 0.00045011
15610.0 0.00044915
15630.0 0.00044825
15650.0 0.00044734
15670.0 0.00044641
15690.0 0.00044549
15710.0 0.00044462
15730.0 0.00044369
15750.0 0.00044277
15770.0 0.00044189
15790.0 0.000441
15810.0 0.00044006
15830.0 0.00043917
15850.0 0.0004383
15870.0 0.00043739
15890.0 0.00043649
15910.0 0.00043563
15930.0 0.00043475
15950.0 0.00043383
15970.0 0.00043295
15990.0 0.00043208
16010.0 0.00043118
16030.0 0.00043028
16050.0 0.00042943
16070.0 0.00042855
16090.0 0.00042765
16110.0 0.00042678
16130.0 0.00042593
16150.0 0.00042502
16170.0 0.00042413
16190.0 0.00042327
16210.0 0.00042239
16230.0 0.00042149
16250.0 0.00042062
16270.0 0.00041977
16290.0 0.00041887
16310.0 0.00041798
16330.0 0.00041713
16350.0 0.00041625
16370.0 0.00041532
16390.0 0.00041446
16410.0 0.00041359
16430.0 0.00041269
16450.0 0.0004118
16470.0 0.00041095
16490.0 0.00041005
16510.0 0.00040914
16530.0 0.00040826
16550.0 0.00040739
16570.0 0.00040647
16590.0 0.00040556
16610.0 0.0004047
16630.0 0.0004038
16650.0 0.00040288
16670.0 0.000402
16690.0 0.00040112
16710.0 0.00040018
16730.0 0.00039927
16750.0 0.00039839
16770.0 0.00039747
16790.0 0.00039653
16810.0 0.00039564
16830.0 0.00039475
16850.0 0.00039381
16870.0 0.00039289
16890.0 0.000392
16910.0 0.00039106
16930.0 0.0003901
16950.0 0.00038919
16970.0 0.00038827
16990.0 0.00038732
17010.0 0.00038639
17030.0 0.00038549
17050.0 0.00038453
17070.0 0.00038357
17090.0 0.00038265
17110.0 0.00038171
17130.0 0.00038072
17150.0 0.00037978
17170.0 0.00037885
17190.0 0.00037788
17210.0 0.00037691
17230.0 0.00037598
17250.0 0.00037502
17270.0 0.00037402
17290.0 0.00037306
17310.0 0.00037211
17330.0 0.00037112
17350.0 0.00037012
17370.0 0.00036918
17390.0 0.0003682
17410.0 0.0003672
17430.0 0.00036623
17450.0 0.00036527
17470.0 0.00036424
17490.0 0.00036323
17510.0 0.00036226
17530.0 0.00036126
17550.0 0.00036024
17570.0 0.00035925
17590.0 0.00035827
17610.0 0.00035725
17630.0 0.00035623
17650.0 0.00035524
17670.0 0.00035423
17690.0 0.00035316
17710.0 0.00035217
17730.0 0.00035117
17750.0 0.00035012
17770.0 0.0003491
17790.0 0.0003481
17810.0 0.00034706
17830.0 0.00034601
17850.0 0.00034499
17870.0 0.00034397
17890.0 0.0003429
17910.0 0.00034185
17930.0 0.00034084
17950.0 0.00033979
17970.0 0.00033873
17990.0 0.0003377
18010.0 0.00033667
18030.0 0.00033558
18050.0 0.00033453
18070.0 0.00033349
18090.0 0.00033243
18110.0 0.00033135
18130.0 0.00033031
18150.0 0.00032926
18170.0 0.00032818
18190.0 0.00032712
18210.0 0.00032608
18230.0 0.00032499
18250.0 0.00032389
18270.0 0.00032285
18290.0 0.00032178
18310.0 0.00032069
18330.0 0.00031962
18350.0 0.00031857
18370.0 0.00031748
18390.0 0.00031638
18410.0 0.00031532
18430.0 0.00031425
18450.0 0.00031313
18470.0 0.00031205
18490.0 0.00031099
18510.0 0.00030989
18530.0 0.0003088
18550.0 0.00030774
18570.0 0.00030665
18590.0 0.00030553
18610.0 0.00030445
18630.0 0.00030338
18650.0 0.00030226
18670.0 0.00030115
18690.0 0.00030009
18710.0 0.000299
18730.0 0.00029789
18750.0 0.0002968
18770.0 0.00029574
18790.0 0.0002946
18810.0 0.00029349
18830.0 0.00029242
18850.0 0.00029132
18870.0 0.0002902
18890.0 0.00028912
18910.0 0.00028804
18930.0 0.00028692
18950.0 0.00028581
18970.0 0.00028474
18990.0 0.00028363
19010.0 0.00028249
19030.0 0.00028141
19050.0 0.00028033
19070.0 0.00027921
19090.0 0.0002781
19110.0 0.00027704
19130.0 0.00027592
19150.0 0.0002748
19170.0 0.00027371
19190.0 0.00027262
19210.0 0.00027149
19230.0 0.00027038
19250.0 0.00026931
19270.0 0.0002682
19290.0 0.00026709
19310.0 0.00026601
19330.0 0.00026492
19350.0 0.00026378
19370.0 0.00026268
19390.0 0.0002616
19410.0 0.00026049
19430.0 0.00025937
19450.0 0.0002583
19470.0 0.00025721
19490.0 0.00025609
19510.0 0.000255
19530.0 0.00025392
19550.0 0.0002528
19570.0 0.00025168
19590.0 0.00025061
19610.0 0.00024952
19630.0 0.0002484
19650.0 0.00024732
19670.0 0.00024625
19690.0 0.00024513
19710.0 0.00024403
19730.0 0.00024295
19750.0 0.00024186
19770.0 0.00024073
19790.0 0.00023965
19810.0 0.00023858
19830.0 0.00023747
19850.0 0.00023636
19870.0 0.00023526
19890.0 0.00023409
19910.0 0.0002328
19930.0 0.00023142
19950.0 0.00022984
19970.0 0.00022789
19990.0 0.00022555
20010.0 0.00020067
20030.0 0.00019777
20050.0 0.00019437
20070.0 0.00019068
20090.0 0.00018672
20110.0 0.00018224
20130.0 0.0001777
20150.0 0.00017321
20170.0 0.00016855
20190.0 0.00016382
20210.0 0.00015935
20230.0 0.000155
20250.0 0.00015063
20270.0 0.00014658
20290.0 0.00014288
20310.0 0.00013937
20330.0 0.00013608
20350.0 0.00013336
20370.0 0.00013093
20390.0 0.00012881
20410.0 0.0001271
20430.0 0.00012578
20450.0 0.00012473
20470.0 0.00012403
20490.0 0.00012365
20510.0 0.00012354
20530.0 0.0001237
20550.0 0.00012408
20570.0 0.00012463
20590.0 0.00012539
20610.0 0.0001263
20630.0 0.0001273
20650.0 0.00012842
20670.0 0.00012971
20690.0 0.00013101
20710.0 0.00013237
20730.0 0.00013382
20750.0 0.00013535
20770.0 0.00013684
20790.0 0.00013842
20810.0 0.00014008
20830.0 0.00014174
20850.0 0.0001434
20870.0 0.00014518
20890.0 0.000147
20910.0 0.00014875
20930.0 0.00015056
20950.0 0.00015245
20970.0 0.00015428
20990.0 0.00015609
21010.0 0.000158
21030.0 0.00015986
21050.0 0.00016164
21070.0 0.00016341
21090.0 0.00016519
21110.0 0.00016681
21130.0 0.00016834
21150.0 0.00016981
21170.0 0.00017115
21190.0 0.0001723
21210.0 0.00017334
21230.0 0.0001742
21250.0 0.00017481
21270.0 0.0001752
21290.0 0.00017535
21310.0 0.00017521
21330.0 0.00017479
21350.0 0.00017407
21370.0 0.000173
21390.0 0.00017165
21410.0 0.00016999
21430.0 0.00016789
21450.0 0.00016553
21470.0 0.00016296
21490.0 0.00016006
21510.0 0.00015687
21530.0 0.00015363
21550.0 0.00015024
21570.0 0.00014662
21590.0 0.00014307
21610.0 0.00013963
21630.0 0.00013619
21650.0 0.00013283
21670.0 0.00012991
21690.0 0.00012723
21710.0 0.00012481
21730.0 0.00012282
21750.0 0.00012129
21770.0 0.00012013
21790.0 0.00011946
21810.0 0.00011927
21830.0 0.00011954
21850.0 0.00012028
21870.0 0.00012145
21890.0 0.00012295
21910.0 0.00012489
21930.0 0.00012715
21950.0 0.0001296
21970.0 0.00013232
21990.0 0.00013537
22010.0 0.00013842
22030.0 0.00014152
22050.0 0.00014477
22070.0 0.00014804
22090.0 0.00015113
22110.0 0.00015425
22130.0 0.00015737
22150.0 0.00016028
22170.0 0.00016302
22190.0 0.00016574
22210.0 0.00016827
22230.0 0.0001705
22250.0 0.00017259
22270.0 0.00017452
22290.0 0.00017618
22310.0 0.00017759
22330.0 0.00017884
22350.0 0.0001798
22370.0 0.00018048
22390.0 0.00018091
22410.0 0.00018104
22430.0 0.00018087
22450.0 0.0001804
22470.0 0.0001796
22490.0 0.00017847
22510.0 0.00017706
22530.0 0.00017525
22550.0 0.00017306
22570.0 0.00017063
22590.0 0.00016788
22610.0 0.00016473
22630.0 0.00016131
22650.0 0.00015778
22670.0 0.00015387
22690.0 0.0001497
22710.0 0.00014549
22730.0 0.00014116
22750.0 0.00013646
22770.0 0.00013187
22790.0 0.00012738
22810.0 0.00012278
22830.0 0.00011819
22850.0 0.00011389
22870.0 0.00010967
22890.0 0.00010548
22910.0 0.00010162
22930.0 9.8077e-05
22950.0 9.4704e-05
22970.0 9.1584e-05
22990.0 8.8999e-05
23010.0 8.6706e-05
