#lamb flux
1010.0 4.5784e-07
1030.0 4.8743e-07
1050.0 5.2162e-07
1070.0 5.6015e-07
1090.0 6.0394e-07
1110.0 6.4897e-07
1130.0 6.944e-07
1150.0 7.4212e-07
1170.0 7.9149e-07
1190.0 8.3851e-07
1210.0 8.8634e-07
1230.0 9.3593e-07
1250.0 9.8476e-07
1270.0 1.0324e-06
1290.0 1.083e-06
1310.0 1.1338e-06
1330.0 1.1828e-06
1350.0 1.2326e-06
1370.0 1.2843e-06
1390.0 1.3351e-06
1410.0 1.3847e-06
1430.0 1.4368e-06
1450.0 1.4892e-06
1470.0 1.5403e-06
1490.0 1.5922e-06
1510.0 1.6471e-06
1530.0 1.6996e-06
1550.0 1.7517e-06
1570.0 1.8057e-06
1590.0 1.8599e-06
1610.0 1.9121e-06
1630.0 1.9657e-06
1650.0 2.0207e-06
1670.0 2.074e-06
1690.0 2.1265e-06
1710.0 2.1808e-06
1730.0 2.235e-06
1750.0 2.2858e-06
1770.0 2.3376e-06
1790.0 2.3898e-06
1810.0 2.4398e-06
1830.0 2.4882e-06
1850.0 2.5387e-06
1870.0 2.5871e-06
1890.0 2.6328e-06
1910.0 2.6784e-06
1930.0 2.7241e-06
1950.0 2.7664e-06
1970.0 2.8069e-06
1990.0 2.8481e-06
2010.0 2.8872e-06
2030.0 2.9234e-06
2050.0 2.9598e-06
2070.0 2.9963e-06
2090.0 3.0289e-06
2110.0 3.0603e-06
2130.0 3.0921e-06
2150.0 3.1222e-06
2170.0 3.1496e-06
2190.0 3.178e-06
2210.0 3.2061e-06
2230.0 3.2321e-06
2250.0 3.2576e-06
2270.0 3.285e-06
2290.0 3.311e-06
2310.0 3.3354e-06
2330.0 3.3616e-06
2350.0 3.3885e-06
2370.0 3.4143e-06
2390.0 3.4414e-06
2410.0 3.4713e-06
2430.0 3.501e-06
2450.0 3.5311e-06
2470.0 3.5645e-06
2490.0 3.6024e-06
2510.0 3.6455e-06
2530.0 3.7063e-06
2550.0 3.8051e-06
2570.0 3.9642e-06
2590.0 4.2107e-06
2610.0 4.612e-06
2630.0 5.1903e-06
2650.0 5.9204e-06
2670.0 6.8144e-06
2690.0 7.8465e-06
2710.0 8.8857e-06
2730.0 9.8666e-06
2750.0 1.0806e-05
2770.0 1.1625e-05
2790.0 1.2312e-05
2810.0 1.2926e-05
2830.0 1.3514e-05
2850.0 1.4049e-05
2870.0 1.4583e-05
2890.0 1.5148e-05
2910.0 1.5734e-05
2930.0 1.6323e-05
2950.0 1.6954e-05
2970.0 1.7622e-05
2990.0 1.8296e-05
3010.0 6.474e-05
3030.0 6.7213e-05
3050.0 6.9672e-05
3070.0 7.1891e-05
3090.0 7.3771e-05
3110.0 7.4795e-05
3130.0 7.4351e-05
3150.0 7.1783e-05
3170.0 6.5762e-05
3190.0 5.6174e-05
3210.0 4.3199e-05
3230.0 2.864e-05
3250.0 4.3906e-05
3270.0 2.7458e-05
3290.0 6.3204e-05
3310.0 2.4916e-05
3330.0 2.4665e-05
3350.0 2.954e-05
3370.0 3.5371e-05
3390.0 4.1747e-05
3410.0 4.8136e-05
3430.0 5.4869e-05
3450.0 6.1664e-05
3470.0 6.7934e-05
3490.0 7.2324e-05
3510.0 8.6846e-05
3530.0 0.00011246
3550.0 0.00010955
3570.0 9.0335e-05
3590.0 0.00012228
3610.0 7.9139e-05
3630.0 0.00012887
3650.0 0.00015011
3670.0 0.00019088
3690.0 0.00017723
3710.0 0.00011867
3730.0 0.00015316
3750.0 0.00015683
3770.0 0.00016832
3790.0 0.00016333
3810.0 0.00016814
3830.0 0.00026426
3850.0 0.00032438
3870.0 0.00040002
3890.0 0.00038875
3910.0 0.00034745
3930.0 0.00035192
3950.0 0.00038013
3970.0 0.00041914
3990.0 0.00026875
4010.0 0.00014548
4030.0 0.0002587
4050.0 0.00034219
4070.0 0.00036608
4090.0 0.00025606
4110.0 0.00016208
4130.0 0.00026656
4150.0 0.00027214
4170.0 0.00025332
4190.0 0.00022986
4210.0 0.00032534
4230.0 0.00023969
4250.0 0.00025969
4270.0 0.00025799
4290.0 0.00024443
4310.0 0.00031334
4330.0 0.00033858
4350.0 0.0002821
4370.0 0.00023815
4390.0 0.00029025
4410.0 0.00029726
4430.0 0.00021857
4450.0 0.00019832
4470.0 0.00024509
4490.0 0.00018752
4510.0 0.00026174
4530.0 0.00027203
4550.0 0.00032283
4570.0 0.00045511
4590.0 0.00045008
4610.0 0.00035686
4630.0 0.00056952
4650.0 0.00075896
4670.0 0.00072379
4690.0 0.00051182
4710.0 0.00054275
4730.0 0.00061478
4750.0 0.00050646
4770.0 0.00038718
4790.0 0.00026131
4810.0 0.00035667
4830.0 0.00042007
4850.0 0.00036924
4870.0 0.00015522
4890.0 0.00041899
4910.0 0.00054932
4930.0 0.00059704
4950.0 0.0006152
4970.0 0.00043214
4990.0 0.00050289
5010.0 0.00058411
5030.0 0.00062609
5050.0 0.00058449
5070.0 0.00041332
5090.0 0.00033534
5110.0 0.00032418
5130.0 0.00030802
5150.0 0.00032084
5170.0 0.00028629
5190.0 0.00034133
5210.0 0.00034711
5230.0 0.00038564
5250.0 0.0004593
5270.0 0.00038196
5290.0 0.00039843
5310.0 0.00058741
5330.0 0.00067733
5350.0 0.0005702
5370.0 0.00051425
5390.0 0.0005985
5410.0 0.00071641
5430.0 0.00076555
5450.0 0.00080778
5470.0 0.00081575
5490.0 0.00084269
5510.0 0.0010118
5530.0 0.0010543
5550.0 0.0011167
5570.0 0.0011762
5590.0 0.0011597
5610.0 0.0010892
5630.0 0.0010667
5650.0 0.0011067
5670.0 0.0010848
5690.0 0.0009317
5710.0 0.00092457
5730.0 0.00092896
5750.0 0.00096908
5770.0 0.00083735
5790.0 0.00080139
5810.0 0.00082369
5830.0 0.00089187
5850.0 0.00083308
5870.0 0.00083985
5890.0 0.00098264
5910.0 0.00091982
5930.0 0.00076213
5950.0 0.00069076
5970.0 0.00075533
5990.0 0.00068816
6010.0 0.00063012
6030.0 0.00061793
6050.0 0.00056595
6070.0 0.00043853
6090.0 0.00041705
6110.0 0.00053503
6130.0 0.00060041
6150.0 0.00062016
6170.0 0.00060312
6190.0 0.00057524
6210.0 0.00059979
6230.0 0.00072786
6250.0 0.00067255
6270.0 0.00060469
6290.0 0.00054967
6310.0 0.00049786
6330.0 0.00046184
6350.0 0.00041278
6370.0 0.00041837
6390.0 0.00048683
6410.0 0.00060447
6430.0 0.00071451
6450.0 0.00071726
6470.0 0.00072526
6490.0 0.00088575
6510.0 0.0010169
6530.0 0.00096633
6550.0 0.00091689
6570.0 0.00093011
6590.0 0.00091671
6610.0 0.00097028
6630.0 0.0009048
6650.0 0.00078613
6670.0 0.00072519
6690.0 0.00071891
6710.0 0.00085095
6730.0 0.00075769
6750.0 0.00062321
6770.0 0.00056258
6790.0 0.00059769
6810.0 0.00068638
6830.0 0.00068318
6850.0 0.00061273
6870.0 0.00063462
6890.0 0.00063071
6910.0 0.00059275
6930.0 0.00065809
6950.0 0.00061218
6970.0 0.00057028
6990.0 0.00056849
7010.0 0.00057266
7030.0 0.00055625
7050.0 0.00053262
7070.0 0.00057127
7090.0 0.00053207
7110.0 0.00045113
7130.0 0.00038749
7150.0 0.00038053
7170.0 0.00048046
7190.0 0.00050937
7210.0 0.00048298
7230.0 0.00050794
7250.0 0.00049335
7270.0 0.00048124
7290.0 0.00052132
7310.0 0.00057147
7330.0 0.00055679
7350.0 0.00051657
7370.0 0.00047786
7390.0 0.0004793
7410.0 0.0005507
7430.0 0.00062006
7450.0 0.00066017
7470.0 0.00066963
7490.0 0.0007449
7510.0 0.0007355
7530.0 0.00066496
7550.0 0.00062854
7570.0 0.00054236
7590.0 0.00051558
7610.0 0.00049724
7630.0 0.00045736
7650.0 0.0004906
7670.0 0.00054269
7690.0 0.00058994
7710.0 0.00067213
7730.0 0.00070392
7750.0 0.00073028
7770.0 0.00075796
7790.0 0.00082096
7810.0 0.00082578
7830.0 0.00073999
7850.0 0.00074188
7870.0 0.00071329
7890.0 0.00072924
7910.0 0.0006858
7930.0 0.0006798
7950.0 0.00056999
7970.0 0.00057099
7990.0 0.00055098
8010.0 0.00059771
8030.0 0.00059426
8050.0 0.00063024
8070.0 0.00060366
8090.0 0.00060514
8110.0 0.00059475
8130.0 0.00058695
8150.0 0.00055014
8170.0 0.00053872
8190.0 0.00053631
8210.0 0.0005405
8230.0 0.00047188
8250.0 0.00043061
8270.0 0.00037985
8290.0 0.00032234
8310.0 0.00028341
8330.0 0.00022406
8350.0 0.00018106
8370.0 0.00017448
8390.0 0.00016883
8410.0 0.00017635
8430.0 0.0002264
8450.0 0.0002461
8470.0 0.00026437
8490.0 0.00030878
8510.0 0.00033538
8530.0 0.00038064
8550.0 0.0004494
8570.0 0.0004927
8590.0 0.00051719
8610.0 0.00057333
8630.0 0.00065099
8650.0 0.00066654
8670.0 0.00067913
8690.0 0.00070338
8710.0 0.0006884
8730.0 0.00066539
8750.0 0.00061195
8770.0 0.00061095
8790.0 0.00060113
8810.0 0.00055175
8830.0 0.00055135
8850.0 0.00050397
8870.0 0.00047962
8890.0 0.00042886
8910.0 0.00047713
8930.0 0.00043075
8950.0 0.00043103
8970.0 0.0004393
8990.0 0.00042581
9010.0 0.0004369
9030.0 0.00041474
9050.0 0.00041273
9070.0 0.00041291
9090.0 0.00041301
9110.0 0.00041338
9130.0 0.00041336
9150.0 0.00041313
9170.0 0.00041177
9190.0 0.00040875
9210.0 0.00041522
9230.0 0.00041339
9250.0 0.00041233
9270.0 0.00041144
9290.0 0.00041065
9310.0 0.00040991
9330.0 0.00040919
9350.0 0.00040847
9370.0 0.00040773
9390.0 0.00040695
9410.0 0.00040614
9430.0 0.00040532
9450.0 0.00040444
9470.0 0.00040354
9490.0 0.00040263
9510.0 0.00040168
9530.0 0.0004007
9550.0 0.00039973
9570.0 0.00039873
9590.0 0.00039772
9610.0 0.00039669
9630.0 0.00039567
9650.0 0.00039464
9670.0 0.00039359
9690.0 0.00039255
9710.0 0.00039152
9730.0 0.00039047
9750.0 0.00038943
9770.0 0.00038843
9790.0 0.00038741
9810.0 0.00038639
9830.0 0.0003854
9850.0 0.00038442
9870.0 0.00038344
9890.0 0.00038247
9910.0 0.00038155
9930.0 0.00038062
9950.0 0.00037911
9970.0 0.00037842
9990.0 0.00037772
10010.0 0.00037699
10030.0 0.00037624
10050.0 0.00037536
10070.0 0.00037376
10090.0 0.00037331
10110.0 0.00037286
10130.0 0.00037235
10150.0 0.00037181
10170.0 0.00037124
10190.0 0.00037064
10210.0 0.00037008
10230.0 0.00036954
10250.0 0.000369
10270.0 0.00036849
10290.0 0.00036803
10310.0 0.00036758
10330.0 0.00036713
10350.0 0.00036674
10370.0 0.00036638
10390.0 0.00036602
10410.0 0.00036569
10430.0 0.00036542
10450.0 0.00036515
10470.0 0.0003649
10490.0 0.00036469
10510.0 0.00036451
10530.0 0.00036432
10550.0 0.00036417
10570.0 0.00036407
10590.0 0.00036397
10610.0 0.00036389
10630.0 0.00036385
10650.0 0.00036383
10670.0 0.00036381
10690.0 0.00036383
10710.0 0.00036387
10730.0 0.00036393
10750.0 0.00036399
10770.0 0.0003641
10790.0 0.00036422
10810.0 0.00036434
10830.0 0.00036447
10850.0 0.00036461
10870.0 0.00036466
10890.0 0.00036458
10910.0 0.00036427
10930.0 0.00036354
10950.0 0.00036209
10970.0 0.00035975
10990.0 0.00035645
11010.0 0.00036263
11030.0 0.0003563
11050.0 0.00034887
11070.0 0.00034027
11090.0 0.00033028
11110.0 0.00032033
11130.0 0.00031037
11150.0 0.00030018
11170.0 0.00029027
11190.0 0.00028125
11210.0 0.00027255
11230.0 0.00026427
11250.0 0.00025694
11270.0 0.0002504
11290.0 0.00024428
11310.0 0.00023883
11330.0 0.00023424
11350.0 0.00023
11370.0 0.00022605
11390.0 0.00022251
11410.0 0.00021917
11430.0 0.0002157
11450.0 0.00021226
11470.0 0.00020883
11490.0 0.00020517
11510.0 0.00020119
11530.0 0.00019719
11550.0 0.00019303
11570.0 0.00018853
11590.0 0.00018392
11610.0 0.00017936
11630.0 0.00017456
11650.0 0.00016961
11670.0 0.0001649
11690.0 0.00016025
11710.0 0.00015552
11730.0 0.00015096
11750.0 0.00014673
11770.0 0.00014249
11790.0 0.00013836
11810.0 0.00013454
11830.0 0.0001309
11850.0 0.00012724
11870.0 0.00012385
11890.0 0.00012071
11910.0 0.0001176
11930.0 0.00011457
11950.0 0.00011175
11970.0 0.00010899
11990.0 0.00010618
12010.0 0.00010352
12030.0 0.00010099
12050.0 9.8448e-05
12070.0 9.5936e-05
12090.0 9.3689e-05
12110.0 9.1527e-05
12130.0 8.9454e-05
12150.0 8.7619e-05
12170.0 8.6051e-05
12190.0 8.4637e-05
12210.0 8.3547e-05
12230.0 8.2828e-05
12250.0 8.2447e-05
12270.0 8.2449e-05
12290.0 8.2863e-05
12310.0 8.365e-05
12330.0 8.4858e-05
12350.0 8.6447e-05
12370.0 8.8313e-05
12390.0 9.0477e-05
12410.0 9.2989e-05
12430.0 9.5535e-05
12450.0 9.8132e-05
12470.0 0.00010082
12490.0 0.00010346
12510.0 0.00010588
12530.0 0.00010822
12550.0 0.0001104
12570.0 0.00011228
12590.0 0.00011392
12610.0 0.00011536
12630.0 0.00011653
12650.0 0.00011742
12670.0 0.0001181
12690.0 0.00011857
12710.0 0.00011884
12730.0 0.00011894
12750.0 0.00011885
12770.0 0.00011863
12790.0 0.00011828
12810.0 0.00011779
12830.0 0.00011715
12850.0 0.00011642
12870.0 0.00011559
12890.0 0.00011458
12910.0 0.00011345
12930.0 0.00011223
12950.0 0.00011081
12970.0 0.00010919
12990.0 0.00010753
13010.0 0.00010572
13030.0 0.00010373
13050.0 0.00010166
13070.0 9.9609e-05
13090.0 9.7415e-05
13110.0 9.5185e-05
13130.0 9.3066e-05
13150.0 9.1009e-05
13170.0 8.8948e-05
13190.0 8.7116e-05
13210.0 8.5522e-05
13230.0 8.4078e-05
13250.0 8.286e-05
13270.0 8.1935e-05
13290.0 8.1231e-05
13310.0 8.0737e-05
13330.0 8.0483e-05
13350.0 8.0415e-05
13370.0 8.0486e-05
13390.0 8.0663e-05
13410.0 8.0886e-05
13430.0 8.1113e-05
13450.0 8.1299e-05
13470.0 8.1401e-05
13490.0 8.1398e-05
13510.0 8.1251e-05
13530.0 8.0956e-05
13550.0 8.0539e-05
13570.0 7.999e-05
13590.0 7.9309e-05
13610.0 7.8569e-05
13630.0 7.7799e-05
13650.0 7.6967e-05
13670.0 7.6142e-05
13690.0 7.5369e-05
13710.0 7.4622e-05
13730.0 7.3892e-05
13750.0 7.3261e-05
13770.0 7.2686e-05
13790.0 7.2136e-05
13810.0 7.1625e-05
13830.0 7.1156e-05
13850.0 7.0676e-05
13870.0 7.018e-05
13890.0 6.9681e-05
13910.0 6.9159e-05
13930.0 6.8583e-05
13950.0 6.7977e-05
13970.0 6.7375e-05
13990.0 6.6738e-05
14010.0 6.6085e-05
14030.0 6.5461e-05
14050.0 6.4861e-05
14070.0 6.4269e-05
14090.0 6.374e-05
14110.0 6.3279e-05
14130.0 6.2872e-05
14150.0 6.2528e-05
14170.0 6.2263e-05
14190.0 6.2063e-05
14210.0 6.1927e-05
14230.0 6.1859e-05
14250.0 6.1851e-05
14270.0 6.1912e-05
14290.0 6.2045e-05
14310.0 6.2227e-05
14330.0 6.2468e-05
14350.0 6.278e-05
14370.0 6.3136e-05
14390.0 6.3516e-05
14410.0 6.3952e-05
14430.0 6.4418e-05
14450.0 6.4876e-05
14470.0 6.5342e-05
14490.0 6.5836e-05
14510.0 6.6301e-05
14530.0 6.6742e-05
14550.0 6.7203e-05
14570.0 6.7674e-05
14590.0 6.8136e-05
14610.0 6.8641e-05
14630.0 6.9225e-05
14650.0 6.9851e-05
14670.0 7.0542e-05
14690.0 7.1361e-05
14710.0 7.2309e-05
14730.0 7.3299e-05
14750.0 7.4426e-05
14770.0 7.5704e-05
14790.0 7.7043e-05
14810.0 7.8427e-05
14830.0 7.9983e-05
14850.0 8.1553e-05
14870.0 8.3063e-05
14890.0 8.4573e-05
14910.0 8.6053e-05
14930.0 8.7349e-05
14950.0 8.845e-05
14970.0 8.9396e-05
14990.0 9.0079e-05
15010.0 9.0487e-05
15030.0 9.0672e-05
15050.0 9.0655e-05
15070.0 9.0456e-05
15090.0 9.0146e-05
15110.0 8.9757e-05
15130.0 8.9322e-05
15150.0 8.8869e-05
15170.0 8.8397e-05
15190.0 8.7917e-05
15210.0 8.7441e-05
15230.0 8.6967e-05
15250.0 8.6485e-05
15270.0 8.6006e-05
15290.0 8.5538e-05
15310.0 8.5064e-05
15330.0 8.4588e-05
15350.0 8.4121e-05
15370.0 8.3655e-05
15390.0 8.318e-05
15410.0 8.2713e-05
15430.0 8.2252e-05
15450.0 8.1788e-05
15470.0 8.1321e-05
15490.0 8.0866e-05
15510.0 8.0411e-05
15530.0 7.9952e-05
15550.0 7.9498e-05
15570.0 7.9051e-05
15590.0 7.8598e-05
15610.0 7.8144e-05
15630.0 7.7702e-05
15650.0 7.7261e-05
15670.0 7.6815e-05
15690.0 7.6376e-05
15710.0 7.5945e-05
15730.0 7.5508e-05
15750.0 7.5073e-05
15770.0 7.4647e-05
15790.0 7.4221e-05
15810.0 7.3789e-05
15830.0 7.3367e-05
15850.0 7.2951e-05
15870.0 7.2532e-05
15890.0 7.2114e-05
15910.0 7.1706e-05
15930.0 7.1297e-05
15950.0 7.0884e-05
15970.0 7.0479e-05
15990.0 7.008e-05
16010.0 6.9677e-05
16030.0 6.9275e-05
16050.0 6.8886e-05
16070.0 6.8495e-05
16090.0 6.8101e-05
16110.0 6.7716e-05
16130.0 6.7336e-05
16150.0 6.6948e-05
16170.0 6.6565e-05
16190.0 6.6192e-05
16210.0 6.5818e-05
16230.0 6.5442e-05
16250.0 6.5074e-05
16270.0 6.4712e-05
16290.0 6.4344e-05
16310.0 6.3981e-05
16330.0 6.3625e-05
16350.0 6.3268e-05
16370.0 6.2906e-05
16390.0 6.2557e-05
16410.0 6.2211e-05
16430.0 6.186e-05
16450.0 6.1514e-05
16470.0 6.1178e-05
16490.0 6.0836e-05
16510.0 6.0494e-05
16530.0 6.0161e-05
16550.0 5.983e-05
16570.0 5.9495e-05
16590.0 5.9164e-05
16610.0 5.8843e-05
16630.0 5.8519e-05
16650.0 5.8194e-05
16670.0 5.7878e-05
16690.0 5.7563e-05
16710.0 5.7241e-05
16730.0 5.6928e-05
16750.0 5.662e-05
16770.0 5.631e-05
16790.0 5.5999e-05
16810.0 5.5698e-05
16830.0 5.5398e-05
16850.0 5.5093e-05
16870.0 5.4795e-05
16890.0 5.4502e-05
16910.0 5.4204e-05
16930.0 5.3906e-05
16950.0 5.3619e-05
16970.0 5.3331e-05
16990.0 5.304e-05
17010.0 5.2755e-05
17030.0 5.2476e-05
17050.0 5.2192e-05
17070.0 5.1909e-05
17090.0 5.1634e-05
17110.0 5.1358e-05
17130.0 5.1076e-05
17150.0 5.0804e-05
17170.0 5.0537e-05
17190.0 5.0265e-05
17210.0 4.9994e-05
17230.0 4.9733e-05
17250.0 4.9468e-05
17270.0 4.9199e-05
17290.0 4.8938e-05
17310.0 4.868e-05
17330.0 4.8418e-05
17350.0 4.8157e-05
17370.0 4.7906e-05
17390.0 4.7652e-05
17410.0 4.7396e-05
17430.0 4.7146e-05
17450.0 4.69e-05
17470.0 4.6645e-05
17490.0 4.6396e-05
17510.0 4.6153e-05
17530.0 4.5909e-05
17550.0 4.5661e-05
17570.0 4.5421e-05
17590.0 4.5184e-05
17610.0 4.4941e-05
17630.0 4.4702e-05
17650.0 4.4469e-05
17670.0 4.4233e-05
17690.0 4.399e-05
17710.0 4.3761e-05
17730.0 4.3531e-05
17750.0 4.3298e-05
17770.0 4.3067e-05
17790.0 4.2844e-05
17810.0 4.2615e-05
17830.0 4.2384e-05
17850.0 4.2162e-05
17870.0 4.194e-05
17890.0 4.1712e-05
17910.0 4.1488e-05
17930.0 4.1273e-05
17950.0 4.1052e-05
17970.0 4.0831e-05
17990.0 4.0617e-05
18010.0 4.0403e-05
18030.0 4.0181e-05
18050.0 3.9967e-05
18070.0 3.9757e-05
18090.0 3.9543e-05
18110.0 3.9328e-05
18130.0 3.9122e-05
18150.0 3.8914e-05
18170.0 3.8702e-05
18190.0 3.8495e-05
18210.0 3.8293e-05
18230.0 3.8084e-05
18250.0 3.7875e-05
18270.0 3.7675e-05
18290.0 3.7474e-05
18310.0 3.7268e-05
18330.0 3.7068e-05
18350.0 3.6873e-05
18370.0 3.6671e-05
18390.0 3.6471e-05
18410.0 3.6276e-05
18430.0 3.6081e-05
18450.0 3.5879e-05
18470.0 3.5686e-05
18490.0 3.5496e-05
18510.0 3.5301e-05
18530.0 3.5107e-05
18550.0 3.4921e-05
18570.0 3.473e-05
18590.0 3.4536e-05
18610.0 3.4348e-05
18630.0 3.4163e-05
18650.0 3.3973e-05
18670.0 3.3784e-05
18690.0 3.3604e-05
18710.0 3.3419e-05
18730.0 3.3232e-05
18750.0 3.3051e-05
18770.0 3.2873e-05
18790.0 3.2686e-05
18810.0 3.2503e-05
18830.0 3.2327e-05
18850.0 3.2148e-05
18870.0 3.1966e-05
18890.0 3.1791e-05
18910.0 3.1617e-05
18930.0 3.1438e-05
18950.0 3.1262e-05
18970.0 3.1091e-05
18990.0 3.0916e-05
19010.0 3.0736e-05
19030.0 3.0567e-05
19050.0 3.0398e-05
19070.0 3.0224e-05
19090.0 3.0054e-05
19110.0 2.9889e-05
19130.0 2.9718e-05
19150.0 2.9546e-05
19170.0 2.9381e-05
19190.0 2.9216e-05
19210.0 2.9045e-05
19230.0 2.8879e-05
19250.0 2.8719e-05
19270.0 2.8554e-05
19290.0 2.8388e-05
19310.0 2.8229e-05
19330.0 2.8069e-05
19350.0 2.7901e-05
19370.0 2.774e-05
19390.0 2.7583e-05
19410.0 2.7422e-05
19430.0 2.726e-05
19450.0 2.7106e-05
19470.0 2.695e-05
19490.0 2.6789e-05
19510.0 2.6633e-05
19530.0 2.6481e-05
19550.0 2.6322e-05
19570.0 2.6163e-05
19590.0 2.6013e-05
19610.0 2.5861e-05
19630.0 2.5704e-05
19650.0 2.5553e-05
19670.0 2.5406e-05
19690.0 2.5251e-05
19710.0 2.5099e-05
19730.0 2.4951e-05
19750.0 2.4802e-05
19770.0 2.4648e-05
19790.0 2.4501e-05
19810.0 2.4356e-05
19830.0 2.4205e-05
19850.0 2.4055e-05
19870.0 2.3908e-05
19890.0 2.3751e-05
19910.0 2.3578e-05
19930.0 2.3395e-05
19950.0 2.3188e-05
19970.0 2.2937e-05
19990.0 2.2639e-05
20010.0 2.2309e-05
20030.0 2.192e-05
20050.0 2.1478e-05
20070.0 2.1018e-05
20090.0 2.0542e-05
20110.0 2.0028e-05
20130.0 1.9535e-05
20150.0 1.9071e-05
20170.0 1.8615e-05
20190.0 1.8177e-05
20210.0 1.7785e-05
20230.0 1.7423e-05
20250.0 1.7079e-05
20270.0 1.6777e-05
20290.0 1.6518e-05
20310.0 1.6287e-05
20330.0 1.6089e-05
20350.0 1.5941e-05
20370.0 1.5829e-05
20390.0 1.5753e-05
20410.0 1.5719e-05
20430.0 1.5724e-05
20450.0 1.5769e-05
20470.0 1.5856e-05
20490.0 1.598e-05
20510.0 1.6141e-05
20530.0 1.6346e-05
20550.0 1.6581e-05
20570.0 1.6837e-05
20590.0 1.713e-05
20610.0 1.7445e-05
20630.0 1.7766e-05
20650.0 1.81e-05
20670.0 1.8455e-05
20690.0 1.8793e-05
20710.0 1.9117e-05
20730.0 1.9438e-05
20750.0 1.9742e-05
20770.0 2.0012e-05
20790.0 2.0264e-05
20810.0 2.0497e-05
20830.0 2.07e-05
20850.0 2.0877e-05
20870.0 2.104e-05
20890.0 2.1184e-05
20910.0 2.1306e-05
20930.0 2.1418e-05
20950.0 2.1522e-05
20970.0 2.1614e-05
20990.0 2.1697e-05
21010.0 2.1775e-05
21030.0 2.1842e-05
21050.0 2.1897e-05
21070.0 2.1941e-05
21090.0 2.197e-05
21110.0 2.1982e-05
21130.0 2.1979e-05
21150.0 2.1957e-05
21170.0 2.1918e-05
21190.0 2.1865e-05
21210.0 2.1794e-05
21230.0 2.1708e-05
21250.0 2.1614e-05
21270.0 2.1512e-05
21290.0 2.14e-05
21310.0 2.1285e-05
21330.0 2.1174e-05
21350.0 2.1061e-05
21370.0 2.095e-05
21390.0 2.0848e-05
21410.0 2.0754e-05
21430.0 2.0662e-05
21450.0 2.0585e-05
21470.0 2.052e-05
21490.0 2.0466e-05
21510.0 2.0422e-05
21530.0 2.0394e-05
21550.0 2.0377e-05
21570.0 2.0373e-05
21590.0 2.0383e-05
21610.0 2.0406e-05
21630.0 2.0443e-05
21650.0 2.0496e-05
21670.0 2.0561e-05
21690.0 2.064e-05
21710.0 2.0737e-05
21730.0 2.0848e-05
21750.0 2.097e-05
21770.0 2.1115e-05
21790.0 2.1276e-05
21810.0 2.1447e-05
21830.0 2.1635e-05
21850.0 2.1845e-05
21870.0 2.2064e-05
21890.0 2.2289e-05
21910.0 2.2535e-05
21930.0 2.2792e-05
21950.0 2.3049e-05
21970.0 2.3316e-05
21990.0 2.3601e-05
22010.0 2.3874e-05
22030.0 2.4143e-05
22050.0 2.4416e-05
22070.0 2.4682e-05
22090.0 2.4925e-05
22110.0 2.5161e-05
22130.0 2.5385e-05
22150.0 2.5582e-05
22170.0 2.5752e-05
22190.0 2.5901e-05
22210.0 2.6018e-05
22230.0 2.6096e-05
22250.0 2.6141e-05
22270.0 2.6148e-05
22290.0 2.6116e-05
22310.0 2.6046e-05
22330.0 2.593e-05
22350.0 2.5774e-05
22370.0 2.5583e-05
22390.0 2.535e-05
22410.0 2.507e-05
22430.0 2.4769e-05
22450.0 2.4439e-05
22470.0 2.4068e-05
22490.0 2.3675e-05
22510.0 2.3276e-05
22530.0 2.2843e-05
22550.0 2.2387e-05
22570.0 2.1942e-05
22590.0 2.1492e-05
22610.0 2.1025e-05
