#lamb flux
1010.0 2.7785e-09
1030.0 3.0731e-09
1050.0 3.4118e-09
1070.0 3.7932e-09
1090.0 4.2264e-09
1110.0 4.6707e-09
1130.0 5.1178e-09
1150.0 5.5862e-09
1170.0 6.0694e-09
1190.0 6.5276e-09
1210.0 6.9919e-09
1230.0 7.4718e-09
1250.0 7.9419e-09
1270.0 8.3985e-09
1290.0 8.8809e-09
1310.0 9.363e-09
1330.0 9.8253e-09
1350.0 1.0293e-08
1370.0 1.0775e-08
1390.0 1.1246e-08
1410.0 1.1703e-08
1430.0 1.218e-08
1450.0 1.2658e-08
1470.0 1.3119e-08
1490.0 1.3585e-08
1510.0 1.4078e-08
1530.0 1.4545e-08
1550.0 1.5006e-08
1570.0 1.5482e-08
1590.0 1.596e-08
1610.0 1.6416e-08
1630.0 1.6886e-08
1650.0 1.7369e-08
1670.0 1.7837e-08
1690.0 1.8298e-08
1710.0 1.8778e-08
1730.0 1.9261e-08
1750.0 1.9716e-08
1770.0 2.0184e-08
1790.0 2.0663e-08
1810.0 2.1126e-08
1830.0 2.1583e-08
1850.0 2.2068e-08
1870.0 2.2541e-08
1890.0 2.2999e-08
1910.0 2.3467e-08
1930.0 2.3947e-08
1950.0 2.4407e-08
1970.0 2.4862e-08
1990.0 2.5336e-08
2010.0 2.5802e-08
2030.0 2.6253e-08
2050.0 2.6719e-08
2070.0 2.7197e-08
2090.0 2.765e-08
2110.0 2.8102e-08
2130.0 2.8569e-08
2150.0 2.9027e-08
2170.0 2.9467e-08
2190.0 2.9924e-08
2210.0 3.0385e-08
2230.0 3.0828e-08
2250.0 3.1269e-08
2270.0 3.1731e-08
2290.0 3.218e-08
2310.0 3.2611e-08
2330.0 3.3059e-08
2350.0 3.3519e-08
2370.0 3.3978e-08
2390.0 3.4474e-08
2410.0 3.5062e-08
2430.0 3.5739e-08
2450.0 3.6548e-08
2470.0 3.7584e-08
2490.0 3.889e-08
2510.0 4.0375e-08
2530.0 4.2162e-08
2550.0 4.4399e-08
2570.0 4.7182e-08
2590.0 5.0802e-08
2610.0 5.6221e-08
2630.0 6.3959e-08
2650.0 7.4077e-08
2670.0 8.7158e-08
2690.0 1.0323e-07
2710.0 1.2039e-07
2730.0 1.3735e-07
2750.0 1.5405e-07
2770.0 1.6857e-07
2790.0 1.8011e-07
2810.0 1.8926e-07
2830.0 1.9642e-07
2850.0 2.013e-07
2870.0 2.0488e-07
2890.0 2.0772e-07
2910.0 2.0998e-07
2930.0 2.1183e-07
2950.0 2.136e-07
2970.0 2.1533e-07
2990.0 2.1695e-07
3010.0 6.1321e-06
3030.0 6.178e-06
3050.0 6.2223e-06
3070.0 6.2602e-06
3090.0 6.2928e-06
3110.0 6.3131e-06
3130.0 6.3123e-06
3150.0 6.2842e-06
3170.0 6.2169e-06
3190.0 6.1112e-06
3210.0 5.9772e-06
3230.0 5.8237e-06
3250.0 5.6723e-06
3270.0 5.5616e-06
3290.0 5.5002e-06
3310.0 5.5101e-06
3330.0 5.5899e-06
3350.0 5.7288e-06
3370.0 5.9271e-06
3390.0 6.1769e-06
3410.0 6.4489e-06
3430.0 6.7542e-06
3450.0 7.1057e-06
3470.0 7.4895e-06
3490.0 7.8963e-06
3510.0 8.3561e-06
3530.0 8.8484e-06
3550.0 9.3469e-06
3570.0 9.8669e-06
3590.0 1.0432e-05
3610.0 1.1015e-05
3630.0 1.1596e-05
3650.0 1.2199e-05
3670.0 1.2749e-05
3690.0 1.316e-05
3710.0 1.3396e-05
3730.0 1.3404e-05
3750.0 1.3217e-05
3770.0 1.3144e-05
3790.0 1.3066e-05
3810.0 1.2745e-05
3830.0 1.3139e-05
3850.0 1.4691e-05
3870.0 1.5543e-05
3890.0 1.5472e-05
3910.0 1.5538e-05
3930.0 1.5947e-05
3950.0 1.6199e-05
3970.0 1.4759e-05
3990.0 1.2699e-05
4010.0 3.8061e-05
4030.0 4.6117e-05
4050.0 5.287e-05
4070.0 4.5874e-05
4090.0 4.1548e-05
4110.0 3.6662e-05
4130.0 3.3744e-05
4150.0 3.5893e-05
4170.0 3.5356e-05
4190.0 3.7687e-05
4210.0 3.7342e-05
4230.0 3.9498e-05
4250.0 4.6727e-05
4270.0 4.7277e-05
4290.0 4.3565e-05
4310.0 4.5267e-05
4330.0 4.815e-05
4350.0 5.3989e-05
4370.0 6.144e-05
4390.0 5.7655e-05
4410.0 4.2597e-05
4430.0 3.6061e-05
4450.0 3.3136e-05
4470.0 2.5433e-05
4490.0 2.7445e-05
4510.0 4.1457e-05
4530.0 4.7812e-05
4550.0 4.8227e-05
4570.0 5.4267e-05
4590.0 6.1816e-05
4610.0 8.3375e-05
4630.0 0.00010829
4650.0 0.00011744
4670.0 0.00010876
4690.0 0.00010377
4710.0 0.0001097
4730.0 0.00010352
4750.0 7.7395e-05
4770.0 5.6772e-05
4790.0 5.3014e-05
4810.0 5.0531e-05
4830.0 4.6261e-05
4850.0 5.0763e-05
4870.0 6.7063e-05
4890.0 7.9086e-05
4910.0 6.9388e-05
4930.0 6.1399e-05
4950.0 6.7456e-05
4970.0 8.6508e-05
4990.0 0.00011724
5010.0 0.00013487
5030.0 0.00011892
5050.0 8.0458e-05
5070.0 5.3025e-05
5090.0 4.2757e-05
5110.0 4.3972e-05
5130.0 5.075e-05
5150.0 5.4984e-05
5170.0 5.4159e-05
5190.0 5.0608e-05
5210.0 5.2897e-05
5230.0 5.5607e-05
5250.0 5.9929e-05
5270.0 6.4659e-05
5290.0 7.1656e-05
5310.0 8.3405e-05
5330.0 9.2299e-05
5350.0 9.171e-05
5370.0 9.6333e-05
5390.0 0.00011054
5410.0 0.00011045
5430.0 9.7673e-05
5450.0 8.9739e-05
5470.0 9.5288e-05
5490.0 0.00011642
5510.0 0.00014556
5530.0 0.00016695
5550.0 0.00016136
5570.0 0.00014669
5590.0 0.00012755
5610.0 0.00011763
5630.0 0.00011406
5650.0 0.00010863
5670.0 0.00010294
5690.0 9.2029e-05
5710.0 8.973e-05
5730.0 8.2655e-05
5750.0 5.8276e-05
5770.0 4.5465e-05
5790.0 5.1522e-05
5810.0 5.8178e-05
5830.0 7.1393e-05
5850.0 8.4985e-05
5870.0 9.4292e-05
5890.0 9.589e-05
5910.0 9.4075e-05
5930.0 8.9549e-05
5950.0 9.1249e-05
5970.0 0.00010401
5990.0 9.7801e-05
6010.0 8.1987e-05
6030.0 6.9267e-05
6050.0 6.0323e-05
6070.0 5.9993e-05
6090.0 6.5052e-05
6110.0 7.2739e-05
6130.0 7.3853e-05
6150.0 6.3544e-05
6170.0 5.5899e-05
6190.0 6.2907e-05
6210.0 8.3161e-05
6230.0 0.00010913
6250.0 0.0001182
6270.0 0.00010329
6290.0 8.6907e-05
6310.0 6.7846e-05
6330.0 5.1983e-05
6350.0 4.6368e-05
6370.0 4.876e-05
6390.0 5.637e-05
6410.0 6.9507e-05
6430.0 8.1165e-05
6450.0 9.2873e-05
6470.0 0.00010634
6490.0 0.00012845
6510.0 0.00014363
6530.0 0.00014091
6550.0 0.00012742
6570.0 0.00010817
6590.0 9.7537e-05
6610.0 8.4102e-05
6630.0 7.6193e-05
6650.0 7.2025e-05
6670.0 6.997e-05
6690.0 6.3222e-05
6710.0 5.747e-05
6730.0 4.1395e-05
6750.0 4.1038e-05
6770.0 4.4606e-05
6790.0 5.1271e-05
6810.0 4.6914e-05
6830.0 4.8309e-05
6850.0 4.5184e-05
6870.0 4.1276e-05
6890.0 3.9631e-05
6910.0 4.2232e-05
6930.0 3.9556e-05
6950.0 4.0697e-05
6970.0 4.2805e-05
6990.0 4.8587e-05
7010.0 4.9001e-05
7030.0 4.978e-05
7050.0 4.7473e-05
7070.0 4.5233e-05
7090.0 4.5366e-05
7110.0 4.6678e-05
7130.0 5.0233e-05
7150.0 5.3351e-05
7170.0 5.8869e-05
7190.0 6.4714e-05
7210.0 6.359e-05
7230.0 6.5372e-05
7250.0 7.0252e-05
7270.0 7.6558e-05
7290.0 9.0866e-05
7310.0 9.8598e-05
7330.0 9.5303e-05
7350.0 8.6196e-05
7370.0 7.4998e-05
7390.0 7.2758e-05
7410.0 7.7319e-05
7430.0 8.5931e-05
7450.0 9.3594e-05
7470.0 9.2735e-05
7490.0 8.4556e-05
7510.0 9.5781e-05
7530.0 9.4732e-05
7550.0 8.5147e-05
7570.0 6.6516e-05
7590.0 4.5727e-05
7610.0 3.9248e-05
7630.0 4.4593e-05
7650.0 5.2725e-05
7670.0 6.562e-05
7690.0 7.2209e-05
7710.0 7.5251e-05
7730.0 7.9079e-05
7750.0 8.8775e-05
7770.0 9.0171e-05
7790.0 8.2827e-05
7810.0 7.5574e-05
7830.0 7.7934e-05
7850.0 7.5759e-05
7870.0 6.9458e-05
7890.0 5.8358e-05
7910.0 4.7437e-05
7930.0 4.5295e-05
7950.0 4.1265e-05
7970.0 3.8199e-05
7990.0 3.7981e-05
8010.0 2.8129e-06
8030.0 2.7764e-06
8050.0 2.7389e-06
8070.0 2.7748e-06
8090.0 2.9814e-06
8110.0 2.9306e-06
8130.0 2.4174e-06
8150.0 2.3543e-06
8170.0 2.0279e-06
8190.0 1.9218e-06
8210.0 2.4957e-06
8230.0 2.7786e-06
8250.0 2.5043e-06
8270.0 2.1797e-06
8290.0 2.1248e-06
8310.0 1.6353e-06
8330.0 1.1022e-06
8350.0 7.8223e-07
8370.0 4.9284e-07
8390.0 9.0089e-07
8410.0 1.0498e-06
8430.0 1.294e-06
8450.0 1.5195e-06
8470.0 1.8887e-06
8490.0 1.8754e-06
8510.0 1.8447e-06
8530.0 1.9252e-06
8550.0 2.5975e-06
8570.0 3.075e-06
8590.0 3.3179e-06
8610.0 4.1913e-06
8630.0 5.049e-06
8650.0 5.2818e-06
8670.0 5.6129e-06
8690.0 5.6444e-06
8710.0 5.1117e-06
8730.0 4.7547e-06
8750.0 4.1969e-06
8770.0 3.9823e-06
8790.0 3.9124e-06
8810.0 3.7489e-06
8830.0 2.9978e-06
8850.0 2.1946e-06
8870.0 1.6804e-06
8890.0 1.6428e-06
8910.0 1.8827e-06
8930.0 2.1415e-06
8950.0 2.1825e-06
8970.0 2.1928e-06
8990.0 1.9557e-06
9010.0 2.0495e-05
9030.0 1.8571e-05
9050.0 1.866e-05
9070.0 1.8808e-05
9090.0 1.8937e-05
9110.0 1.9096e-05
9130.0 1.922e-05
9150.0 1.9315e-05
9170.0 1.9417e-05
9190.0 1.9526e-05
9210.0 1.9641e-05
9230.0 1.9762e-05
9250.0 1.9885e-05
9270.0 2.0012e-05
9290.0 2.0144e-05
9310.0 2.0276e-05
9330.0 2.0411e-05
9350.0 2.0551e-05
9370.0 2.0693e-05
9390.0 2.0835e-05
9410.0 2.0982e-05
9430.0 2.1134e-05
9450.0 2.1285e-05
9470.0 2.1439e-05
9490.0 2.1598e-05
9510.0 2.1758e-05
9530.0 2.1919e-05
9550.0 2.2086e-05
9570.0 2.2256e-05
9590.0 2.2426e-05
9610.0 2.2599e-05
9630.0 2.2777e-05
9650.0 2.2956e-05
9670.0 2.3135e-05
9690.0 2.332e-05
9710.0 2.3507e-05
9730.0 2.3695e-05
9750.0 2.3885e-05
9770.0 2.4081e-05
9790.0 2.4277e-05
9810.0 2.4474e-05
9830.0 2.4675e-05
9850.0 2.4878e-05
9870.0 2.5081e-05
9890.0 2.5287e-05
9910.0 2.5497e-05
9930.0 2.5707e-05
9950.0 2.5918e-05
9970.0 2.6133e-05
9990.0 2.635e-05
10010.0 2.2865e-05
10030.0 2.3052e-05
10050.0 2.3244e-05
10070.0 2.3442e-05
10090.0 2.3629e-05
10110.0 2.382e-05
10130.0 2.4012e-05
10150.0 2.4204e-05
10170.0 2.4398e-05
10190.0 2.4595e-05
10210.0 2.4789e-05
10230.0 2.4984e-05
10250.0 2.5181e-05
10270.0 2.5378e-05
10290.0 2.5573e-05
10310.0 2.577e-05
10330.0 2.597e-05
10350.0 2.6165e-05
10370.0 2.6361e-05
10390.0 2.6558e-05
10410.0 2.6755e-05
10430.0 2.6947e-05
10450.0 2.7142e-05
10470.0 2.7337e-05
10490.0 2.7529e-05
10510.0 2.7719e-05
10530.0 2.7913e-05
10550.0 2.8103e-05
10570.0 2.829e-05
10590.0 2.8477e-05
10610.0 2.8664e-05
10630.0 2.8847e-05
10650.0 2.9028e-05
10670.0 2.9211e-05
10690.0 2.939e-05
10710.0 2.9566e-05
10730.0 2.9742e-05
10750.0 2.9918e-05
10770.0 3.0087e-05
10790.0 3.0255e-05
10810.0 3.0423e-05
10830.0 3.0585e-05
10850.0 3.0739e-05
10870.0 3.0888e-05
10890.0 3.102e-05
10910.0 3.1121e-05
10930.0 3.1178e-05
10950.0 3.1164e-05
10970.0 3.1059e-05
10990.0 3.0852e-05
11010.0 3.0505e-05
11030.0 3.002e-05
11050.0 2.9429e-05
11070.0 2.8721e-05
11090.0 2.7872e-05
11110.0 2.6993e-05
11130.0 2.6076e-05
11150.0 2.5089e-05
11170.0 2.4071e-05
11190.0 2.3084e-05
11210.0 2.2064e-05
11230.0 2.1019e-05
11250.0 2.002e-05
11270.0 1.9061e-05
11290.0 1.81e-05
11310.0 1.719e-05
11330.0 1.6388e-05
11350.0 1.5631e-05
11370.0 1.4931e-05
11390.0 1.4326e-05
11410.0 1.3796e-05
11430.0 1.3304e-05
11450.0 1.288e-05
11470.0 1.2513e-05
11490.0 1.2172e-05
11510.0 1.1843e-05
11530.0 1.1538e-05
11550.0 1.1235e-05
11570.0 1.0912e-05
11590.0 1.0577e-05
11610.0 1.0236e-05
11630.0 9.8652e-06
11650.0 9.4681e-06
11670.0 9.0767e-06
11690.0 8.6798e-06
11710.0 8.2703e-06
11730.0 7.8736e-06
11750.0 7.5064e-06
11770.0 7.1463e-06
11790.0 6.8088e-06
11810.0 6.5117e-06
11830.0 6.246e-06
11850.0 6.0013e-06
11870.0 5.7966e-06
11890.0 5.6264e-06
11910.0 5.4769e-06
11930.0 5.3484e-06
11950.0 5.2413e-06
11970.0 5.1457e-06
11990.0 5.0553e-06
12010.0 4.9717e-06
12030.0 4.8911e-06
12050.0 4.8078e-06
12070.0 4.7212e-06
12090.0 4.6376e-06
12110.0 4.5528e-06
12130.0 4.4679e-06
12150.0 4.3895e-06
12170.0 4.3211e-06
12190.0 4.262e-06
12210.0 4.2207e-06
12230.0 4.2008e-06
12250.0 4.204e-06
12270.0 4.2357e-06
12290.0 4.2956e-06
12310.0 4.3816e-06
12330.0 4.5018e-06
12350.0 4.6519e-06
12370.0 4.8228e-06
12390.0 5.0199e-06
12410.0 5.2507e-06
12430.0 5.4854e-06
12450.0 5.7284e-06
12470.0 5.9867e-06
12490.0 6.2462e-06
12510.0 6.4897e-06
12530.0 6.7319e-06
12550.0 6.9655e-06
12570.0 7.1718e-06
12590.0 7.3528e-06
12610.0 7.5142e-06
12630.0 7.6428e-06
12650.0 7.7316e-06
12670.0 7.7899e-06
12690.0 7.8133e-06
12710.0 7.8004e-06
12730.0 7.7552e-06
12750.0 7.6745e-06
12770.0 7.5638e-06
12790.0 7.4296e-06
12810.0 7.2693e-06
12830.0 7.0838e-06
12850.0 6.8898e-06
12870.0 6.6847e-06
12890.0 6.4628e-06
12910.0 6.2372e-06
12930.0 6.0149e-06
12950.0 5.7829e-06
12970.0 5.5467e-06
12990.0 5.3233e-06
13010.0 5.1026e-06
13030.0 4.8795e-06
13050.0 4.6652e-06
13070.0 4.4645e-06
13090.0 4.2631e-06
13110.0 4.0681e-06
13130.0 3.8885e-06
13150.0 3.7183e-06
13170.0 3.5517e-06
13190.0 3.4034e-06
13210.0 3.2729e-06
13230.0 3.1537e-06
13250.0 3.0509e-06
13270.0 2.9699e-06
13290.0 2.9069e-06
13310.0 2.8635e-06
13330.0 2.8437e-06
13350.0 2.846e-06
13370.0 2.8715e-06
13390.0 2.9217e-06
13410.0 2.9895e-06
13430.0 3.0776e-06
13450.0 3.1864e-06
13470.0 3.3072e-06
13490.0 3.4351e-06
13510.0 3.5794e-06
13530.0 3.7257e-06
13550.0 3.8657e-06
13570.0 4.0038e-06
13590.0 4.1383e-06
13610.0 4.258e-06
13630.0 4.3625e-06
13650.0 4.4579e-06
13670.0 4.5371e-06
13690.0 4.5983e-06
13710.0 4.6457e-06
13730.0 4.6795e-06
13750.0 4.6964e-06
13770.0 4.7003e-06
13790.0 4.6918e-06
13810.0 4.671e-06
13830.0 4.6404e-06
13850.0 4.599e-06
13870.0 4.5467e-06
13890.0 4.4869e-06
13910.0 4.4195e-06
13930.0 4.3415e-06
13950.0 4.2563e-06
13970.0 4.1692e-06
13990.0 4.0744e-06
14010.0 3.9735e-06
14030.0 3.8729e-06
14050.0 3.7715e-06
14070.0 3.6645e-06
14090.0 3.562e-06
14110.0 3.4656e-06
14130.0 3.3722e-06
14150.0 3.2842e-06
14170.0 3.2092e-06
14190.0 3.1443e-06
14210.0 3.0892e-06
14230.0 3.0485e-06
14250.0 3.0221e-06
14270.0 3.0094e-06
14290.0 3.0121e-06
14310.0 3.0289e-06
14330.0 3.059e-06
14350.0 3.1034e-06
14370.0 3.1586e-06
14390.0 3.2214e-06
14410.0 3.2954e-06
14430.0 3.3765e-06
14450.0 3.4595e-06
14470.0 3.5455e-06
14490.0 3.637e-06
14510.0 3.7244e-06
14530.0 3.8075e-06
14550.0 3.8906e-06
14570.0 3.9703e-06
14590.0 4.0429e-06
14610.0 4.1131e-06
14630.0 4.1826e-06
14650.0 4.2473e-06
14670.0 4.3098e-06
14690.0 4.3749e-06
14710.0 4.4434e-06
14730.0 4.5119e-06
14750.0 4.5878e-06
14770.0 4.6739e-06
14790.0 4.7672e-06
14810.0 4.8683e-06
14830.0 4.9881e-06
14850.0 5.1183e-06
14870.0 5.2541e-06
14890.0 5.4007e-06
14910.0 5.5563e-06
14930.0 5.706e-06
14950.0 5.8459e-06
14970.0 5.9783e-06
14990.0 6.0893e-06
15010.0 6.1742e-06
15030.0 6.2371e-06
15050.0 6.2787e-06
15070.0 6.299e-06
15090.0 6.3061e-06
15110.0 6.3041e-06
15130.0 6.2961e-06
15150.0 6.2855e-06
15170.0 6.2729e-06
15190.0 6.2594e-06
15210.0 6.2461e-06
15230.0 6.2328e-06
15250.0 6.219e-06
15270.0 6.2054e-06
15290.0 6.1925e-06
15310.0 6.1793e-06
15330.0 6.1659e-06
15350.0 6.1531e-06
15370.0 6.1403e-06
15390.0 6.1269e-06
15410.0 6.114e-06
15430.0 6.1014e-06
15450.0 6.0886e-06
15470.0 6.0755e-06
15490.0 6.0632e-06
15510.0 6.0508e-06
15530.0 6.038e-06
15550.0 6.0255e-06
15570.0 6.0135e-06
15590.0 6.0009e-06
15610.0 5.9881e-06
15630.0 5.9761e-06
15650.0 5.964e-06
15670.0 5.9515e-06
15690.0 5.9393e-06
15710.0 5.9276e-06
15730.0 5.9153e-06
15750.0 5.903e-06
15770.0 5.8912e-06
15790.0 5.8793e-06
15810.0 5.8669e-06
15830.0 5.8549e-06
15850.0 5.8433e-06
15870.0 5.8313e-06
15890.0 5.8193e-06
15910.0 5.8078e-06
15930.0 5.796e-06
15950.0 5.7838e-06
15970.0 5.772e-06
15990.0 5.7605e-06
16010.0 5.7485e-06
16030.0 5.7364e-06
16050.0 5.7251e-06
16070.0 5.7134e-06
16090.0 5.7014e-06
16110.0 5.6898e-06
16130.0 5.6785e-06
16150.0 5.6663e-06
16170.0 5.6544e-06
16190.0 5.643e-06
16210.0 5.6313e-06
16230.0 5.6193e-06
16250.0 5.6077e-06
16270.0 5.5963e-06
16290.0 5.5843e-06
16310.0 5.5725e-06
16330.0 5.5611e-06
16350.0 5.5494e-06
16370.0 5.537e-06
16390.0 5.5255e-06
16410.0 5.514e-06
16430.0 5.502e-06
16450.0 5.4901e-06
16470.0 5.4787e-06
16490.0 5.4668e-06
16510.0 5.4546e-06
16530.0 5.4429e-06
16550.0 5.4312e-06
16570.0 5.419e-06
16590.0 5.4069e-06
16610.0 5.3954e-06
16630.0 5.3834e-06
16650.0 5.3712e-06
16670.0 5.3595e-06
16690.0 5.3477e-06
16710.0 5.3351e-06
16730.0 5.323e-06
16750.0 5.3113e-06
16770.0 5.299e-06
16790.0 5.2865e-06
16810.0 5.2747e-06
16830.0 5.2627e-06
16850.0 5.2502e-06
16870.0 5.238e-06
16890.0 5.2261e-06
16910.0 5.2135e-06
16930.0 5.2008e-06
16950.0 5.1887e-06
16970.0 5.1764e-06
16990.0 5.1637e-06
17010.0 5.1513e-06
17030.0 5.1393e-06
17050.0 5.1265e-06
17070.0 5.1138e-06
17090.0 5.1014e-06
17110.0 5.0889e-06
17130.0 5.0758e-06
17150.0 5.0632e-06
17170.0 5.0508e-06
17190.0 5.0379e-06
17210.0 5.025e-06
17230.0 5.0126e-06
17250.0 4.9998e-06
17270.0 4.9865e-06
17290.0 4.9736e-06
17310.0 4.961e-06
17330.0 4.9478e-06
17350.0 4.9344e-06
17370.0 4.9219e-06
17390.0 4.9088e-06
17410.0 4.8955e-06
17430.0 4.8825e-06
17450.0 4.8697e-06
17470.0 4.856e-06
17490.0 4.8426e-06
17510.0 4.8296e-06
17530.0 4.8164e-06
17550.0 4.8027e-06
17570.0 4.7895e-06
17590.0 4.7765e-06
17610.0 4.7628e-06
17630.0 4.7492e-06
17650.0 4.7361e-06
17670.0 4.7225e-06
17690.0 4.7084e-06
17710.0 4.6951e-06
17730.0 4.6817e-06
17750.0 4.6678e-06
17770.0 4.6541e-06
17790.0 4.6409e-06
17810.0 4.627e-06
17830.0 4.6129e-06
17850.0 4.5993e-06
17870.0 4.5857e-06
17890.0 4.5715e-06
17910.0 4.5575e-06
17930.0 4.5441e-06
17950.0 4.5301e-06
17970.0 4.5159e-06
17990.0 4.5022e-06
18010.0 4.4885e-06
18030.0 4.4739e-06
18050.0 4.4599e-06
18070.0 4.4461e-06
18090.0 4.4319e-06
18110.0 4.4175e-06
18130.0 4.4037e-06
18150.0 4.3897e-06
18170.0 4.3753e-06
18190.0 4.3611e-06
18210.0 4.3473e-06
18230.0 4.3327e-06
18250.0 4.3181e-06
18270.0 4.3041e-06
18290.0 4.29e-06
18310.0 4.2754e-06
18330.0 4.2611e-06
18350.0 4.2472e-06
18370.0 4.2326e-06
18390.0 4.218e-06
18410.0 4.2039e-06
18430.0 4.1895e-06
18450.0 4.1746e-06
18470.0 4.1602e-06
18490.0 4.1461e-06
18510.0 4.1315e-06
18530.0 4.1169e-06
18550.0 4.1028e-06
18570.0 4.0883e-06
18590.0 4.0733e-06
18610.0 4.0589e-06
18630.0 4.0446e-06
18650.0 4.0298e-06
18670.0 4.0149e-06
18690.0 4.0008e-06
18710.0 3.9863e-06
18730.0 3.9714e-06
18750.0 3.957e-06
18770.0 3.9427e-06
18790.0 3.9276e-06
18810.0 3.9128e-06
18830.0 3.8985e-06
18850.0 3.8839e-06
18870.0 3.8689e-06
18890.0 3.8545e-06
18910.0 3.8401e-06
18930.0 3.8252e-06
18950.0 3.8104e-06
18970.0 3.7961e-06
18990.0 3.7814e-06
19010.0 3.7661e-06
19030.0 3.7517e-06
19050.0 3.7373e-06
19070.0 3.7224e-06
19090.0 3.7077e-06
19110.0 3.6935e-06
19130.0 3.6785e-06
19150.0 3.6635e-06
19170.0 3.6491e-06
19190.0 3.6345e-06
19210.0 3.6195e-06
19230.0 3.6047e-06
19250.0 3.5904e-06
19270.0 3.5757e-06
19290.0 3.5608e-06
19310.0 3.5464e-06
19330.0 3.5319e-06
19350.0 3.5167e-06
19370.0 3.5021e-06
19390.0 3.4877e-06
19410.0 3.4729e-06
19430.0 3.4579e-06
19450.0 3.4436e-06
19470.0 3.4291e-06
19490.0 3.4142e-06
19510.0 3.3996e-06
19530.0 3.3853e-06
19550.0 3.3704e-06
19570.0 3.3554e-06
19590.0 3.3411e-06
19610.0 3.3266e-06
19630.0 3.3117e-06
19650.0 3.2972e-06
19670.0 3.283e-06
19690.0 3.2681e-06
19710.0 3.2533e-06
19730.0 3.239e-06
19750.0 3.2245e-06
19770.0 3.2094e-06
19790.0 3.195e-06
19810.0 3.1808e-06
19830.0 3.166e-06
19850.0 3.1511e-06
19870.0 3.1365e-06
19890.0 3.1209e-06
19910.0 3.1037e-06
19930.0 3.0852e-06
19950.0 3.0642e-06
19970.0 3.0382e-06
19990.0 3.007e-06
20010.0 2.6753e-06
20030.0 2.6366e-06
20050.0 2.5913e-06
20070.0 2.5422e-06
20090.0 2.4894e-06
20110.0 2.4296e-06
20130.0 2.3691e-06
20150.0 2.3092e-06
20170.0 2.247e-06
20190.0 2.184e-06
20210.0 2.1245e-06
20230.0 2.0664e-06
20250.0 2.0082e-06
20270.0 1.9542e-06
20290.0 1.9049e-06
20310.0 1.858e-06
20330.0 1.8142e-06
20350.0 1.7779e-06
20370.0 1.7456e-06
20390.0 1.7173e-06
20410.0 1.6945e-06
20430.0 1.6768e-06
20450.0 1.6629e-06
20470.0 1.6535e-06
20490.0 1.6485e-06
20510.0 1.6471e-06
20530.0 1.6491e-06
20550.0 1.6542e-06
20570.0 1.6616e-06
20590.0 1.6716e-06
20610.0 1.6838e-06
20630.0 1.6972e-06
20650.0 1.7121e-06
20670.0 1.7292e-06
20690.0 1.7467e-06
20710.0 1.7647e-06
20730.0 1.7841e-06
20750.0 1.8044e-06
20770.0 1.8244e-06
20790.0 1.8454e-06
20810.0 1.8676e-06
20830.0 1.8896e-06
20850.0 1.9118e-06
20870.0 1.9355e-06
20890.0 1.9597e-06
20910.0 1.9831e-06
20930.0 2.0073e-06
20950.0 2.0324e-06
20970.0 2.0569e-06
20990.0 2.081e-06
21010.0 2.1064e-06
21030.0 2.1312e-06
21050.0 2.1549e-06
21070.0 2.1786e-06
21090.0 2.2023e-06
21110.0 2.2239e-06
21130.0 2.2443e-06
21150.0 2.264e-06
21170.0 2.2818e-06
21190.0 2.2971e-06
21210.0 2.3109e-06
21230.0 2.3224e-06
21250.0 2.3306e-06
21270.0 2.3358e-06
21290.0 2.3377e-06
21310.0 2.3358e-06
21330.0 2.3303e-06
21350.0 2.3207e-06
21370.0 2.3064e-06
21390.0 2.2884e-06
21410.0 2.2663e-06
21430.0 2.2383e-06
21450.0 2.2068e-06
21470.0 2.1726e-06
21490.0 2.1339e-06
21510.0 2.0914e-06
21530.0 2.0482e-06
21550.0 2.003e-06
21570.0 1.9548e-06
21590.0 1.9074e-06
21610.0 1.8615e-06
21630.0 1.8157e-06
21650.0 1.7708e-06
21670.0 1.732e-06
21690.0 1.6962e-06
21710.0 1.6639e-06
21730.0 1.6375e-06
21750.0 1.6171e-06
21770.0 1.6015e-06
21790.0 1.5926e-06
21810.0 1.5901e-06
21830.0 1.5937e-06
21850.0 1.6036e-06
21870.0 1.6192e-06
21890.0 1.6392e-06
21910.0 1.665e-06
21930.0 1.6952e-06
21950.0 1.7279e-06
21970.0 1.7641e-06
21990.0 1.8048e-06
22010.0 1.8454e-06
22030.0 1.8867e-06
22050.0 1.93e-06
22070.0 1.9736e-06
22090.0 2.0149e-06
22110.0 2.0565e-06
22130.0 2.098e-06
22150.0 2.1368e-06
22170.0 2.1734e-06
22190.0 2.2097e-06
22210.0 2.2434e-06
22230.0 2.2731e-06
22250.0 2.301e-06
22270.0 2.3268e-06
22290.0 2.3488e-06
22310.0 2.3676e-06
22330.0 2.3843e-06
22350.0 2.3971e-06
22370.0 2.4062e-06
22390.0 2.4119e-06
22410.0 2.4136e-06
22430.0 2.4113e-06
22450.0 2.4051e-06
22470.0 2.3944e-06
22490.0 2.3793e-06
22510.0 2.3605e-06
22530.0 2.3365e-06
22550.0 2.3072e-06
22570.0 2.2748e-06
22590.0 2.2382e-06
