#lamb flux
1010.0 1.5164e-05
1030.0 1.5805e-05
1050.0 1.6549e-05
1070.0 1.7388e-05
1090.0 1.8342e-05
1110.0 1.9326e-05
1130.0 2.0321e-05
1150.0 2.1369e-05
1170.0 2.2456e-05
1190.0 2.3496e-05
1210.0 2.4558e-05
1230.0 2.5662e-05
1250.0 2.6755e-05
1270.0 2.7828e-05
1290.0 2.8968e-05
1310.0 3.0119e-05
1330.0 3.1238e-05
1350.0 3.2381e-05
1370.0 3.3571e-05
1390.0 3.4747e-05
1410.0 3.5906e-05
1430.0 3.7125e-05
1450.0 3.836e-05
1470.0 3.9571e-05
1490.0 4.0808e-05
1510.0 4.2119e-05
1530.0 4.3383e-05
1550.0 4.4644e-05
1570.0 4.5952e-05
1590.0 4.727e-05
1610.0 4.8543e-05
1630.0 4.9856e-05
1650.0 5.12e-05
1670.0 5.2506e-05
1690.0 5.3794e-05
1710.0 5.5119e-05
1730.0 5.6441e-05
1750.0 5.768e-05
1770.0 5.8936e-05
1790.0 6.0196e-05
1810.0 6.1396e-05
1830.0 6.2551e-05
1850.0 6.3746e-05
1870.0 6.4879e-05
1890.0 6.5941e-05
1910.0 6.6989e-05
1930.0 6.803e-05
1950.0 6.898e-05
1970.0 6.9881e-05
1990.0 7.0788e-05
2010.0 7.164e-05
2030.0 7.2421e-05
2050.0 7.3206e-05
2070.0 7.3993e-05
2090.0 7.4694e-05
2110.0 7.5378e-05
2130.0 7.6084e-05
2150.0 7.6766e-05
2170.0 7.7408e-05
2190.0 7.81e-05
2210.0 7.882e-05
2230.0 7.9527e-05
2250.0 8.0268e-05
2270.0 8.1101e-05
2290.0 8.1958e-05
2310.0 8.284e-05
2330.0 8.3829e-05
2350.0 8.4911e-05
2370.0 8.6046e-05
2390.0 8.7296e-05
2410.0 8.8706e-05
2430.0 9.0205e-05
2450.0 9.1804e-05
2470.0 9.3553e-05
2490.0 9.5436e-05
2510.0 9.7412e-05
2530.0 9.9674e-05
2550.0 0.00010254
2570.0 0.00010645
2590.0 0.00011198
2610.0 0.00012051
2630.0 0.00013279
2650.0 0.0001487
2670.0 0.0001688
2690.0 0.00019298
2710.0 0.00021887
2730.0 0.00024514
2750.0 0.00027225
2770.0 0.0002984
2790.0 0.00032291
2810.0 0.00034702
2830.0 0.00037176
2850.0 0.00039598
2870.0 0.00042089
2890.0 0.00044747
2910.0 0.00047531
2930.0 0.00050372
2950.0 0.00053405
2970.0 0.00056614
2990.0 0.00059885
3010.0 0.0010967
3030.0 0.0011579
3050.0 0.0012194
3070.0 0.0012766
3090.0 0.0013273
3110.0 0.0013609
3130.0 0.0013639
3150.0 0.0013219
3170.0 0.001205
3190.0 0.0010087
3210.0 0.0007346
3230.0 0.00042299
3250.0 0.00074155
3270.0 0.00032053
3290.0 0.0010736
3310.0 0.00021366
3330.0 0.00021798
3350.0 0.00033422
3370.0 0.00046658
3390.0 0.00060696
3410.0 0.00074674
3430.0 0.00089276
3450.0 0.0010383
3470.0 0.0011717
3490.0 0.0012591
3510.0 0.0015673
3530.0 0.0021467
3550.0 0.002152
3570.0 0.0018273
3590.0 0.0026186
3610.0 0.001688
3630.0 0.0027213
3650.0 0.003089
3670.0 0.003971
3690.0 0.003797
3710.0 0.0027096
3730.0 0.0036196
3750.0 0.0037638
3770.0 0.0038775
3790.0 0.0035079
3810.0 0.003083
3830.0 0.0042627
3850.0 0.0045856
3870.0 0.0056949
3890.0 0.0053749
3910.0 0.0048798
3930.0 0.0052821
3950.0 0.0059449
3970.0 0.0077532
3990.0 0.0062434
4010.0 0.0041255
4030.0 0.0055562
4050.0 0.0060772
4070.0 0.0069057
4090.0 0.0060606
4110.0 0.0041446
4130.0 0.005464
4150.0 0.0050226
4170.0 0.0053225
4190.0 0.0052964
4210.0 0.006578
4230.0 0.0046008
4250.0 0.0054975
4270.0 0.0054915
4290.0 0.0055521
4310.0 0.0067627
4330.0 0.0069353
4350.0 0.0053781
4370.0 0.0046572
4390.0 0.0056504
4410.0 0.0057559
4430.0 0.004448
4450.0 0.0044752
4470.0 0.0051862
4490.0 0.0038703
4510.0 0.0047109
4530.0 0.0050873
4550.0 0.0068016
4570.0 0.0099596
4590.0 0.0096724
4610.0 0.0064722
4630.0 0.01029
4650.0 0.014724
4670.0 0.01362
4690.0 0.0080932
4710.0 0.0087446
4730.0 0.011298
4750.0 0.010099
4770.0 0.0076483
4790.0 0.0052886
4810.0 0.0076333
4830.0 0.0088047
4850.0 0.0078698
4870.0 0.0028536
4890.0 0.0084479
4910.0 0.011713
4930.0 0.01256
4950.0 0.012389
4970.0 0.0078225
4990.0 0.0089743
5010.0 0.010428
5030.0 0.01133
5050.0 0.011167
5070.0 0.0080789
5090.0 0.0066315
5110.0 0.0062027
5130.0 0.0055323
5150.0 0.0063234
5170.0 0.0055126
5190.0 0.0068268
5210.0 0.0068229
5230.0 0.0074742
5250.0 0.0094889
5270.0 0.0080709
5290.0 0.007936
5310.0 0.011595
5330.0 0.013445
5350.0 0.011392
5370.0 0.0099667
5390.0 0.011298
5410.0 0.014138
5430.0 0.015582
5450.0 0.01673
5470.0 0.016889
5490.0 0.016592
5510.0 0.019391
5530.0 0.020132
5550.0 0.02156
5570.0 0.022879
5590.0 0.022713
5610.0 0.021564
5630.0 0.020852
5650.0 0.021275
5670.0 0.02109
5690.0 0.018072
5710.0 0.017357
5730.0 0.017569
5750.0 0.019168
5770.0 0.016687
5790.0 0.01533
5810.0 0.015571
5830.0 0.016377
5850.0 0.015016
5870.0 0.015128
5890.0 0.017975
5910.0 0.017184
5930.0 0.014168
5950.0 0.012351
5970.0 0.013215
5990.0 0.012215
6010.0 0.011529
6030.0 0.011801
6050.0 0.011071
6070.0 0.0083795
6090.0 0.0075373
6110.0 0.009698
6130.0 0.011172
6150.0 0.011758
6170.0 0.01147
6190.0 0.010805
6210.0 0.010587
6230.0 0.012235
6250.0 0.011309
6270.0 0.010343
6290.0 0.0095034
6310.0 0.0089894
6330.0 0.0085539
6350.0 0.007498
6370.0 0.0074498
6390.0 0.0088287
6410.0 0.010965
6430.0 0.012591
6450.0 0.011874
6470.0 0.011651
6490.0 0.014507
6510.0 0.016597
6530.0 0.015724
6550.0 0.015135
6570.0 0.015368
6590.0 0.01489
6610.0 0.016174
6630.0 0.01523
6650.0 0.013497
6670.0 0.012166
6690.0 0.011781
6710.0 0.014386
6730.0 0.01323
6750.0 0.011391
6770.0 0.010273
6790.0 0.010766
6810.0 0.011907
6830.0 0.011622
6850.0 0.010579
6870.0 0.010926
6890.0 0.010727
6910.0 0.010128
6930.0 0.011602
6950.0 0.010765
6970.0 0.010097
6990.0 0.010086
7010.0 0.0096543
7030.0 0.0090924
7050.0 0.0087703
7070.0 0.0094748
7090.0 0.008978
7110.0 0.0077908
7130.0 0.0063097
7150.0 0.0057278
7170.0 0.0075843
7190.0 0.0082649
7210.0 0.0079948
7230.0 0.0083204
7250.0 0.0077559
7270.0 0.0073884
7290.0 0.0081659
7310.0 0.0090967
7330.0 0.0089277
7350.0 0.0083816
7370.0 0.0080138
7390.0 0.0083957
7410.0 0.0097856
7430.0 0.010702
7450.0 0.011396
7470.0 0.011206
7490.0 0.011507
7510.0 0.01104
7530.0 0.011037
7550.0 0.010883
7570.0 0.0095842
7590.0 0.009485
7610.0 0.0092105
7630.0 0.0085759
7650.0 0.0094062
7670.0 0.010262
7690.0 0.011136
7710.0 0.012405
7730.0 0.01321
7750.0 0.013798
7770.0 0.013792
7790.0 0.015039
7810.0 0.015515
7830.0 0.014348
7850.0 0.014442
7870.0 0.013749
7890.0 0.014346
7910.0 0.013596
7930.0 0.013688
7950.0 0.012151
7970.0 0.012457
7990.0 0.011943
8010.0 0.011934
8030.0 0.011881
8050.0 0.012448
8070.0 0.012004
8090.0 0.012031
8110.0 0.011724
8130.0 0.011714
8150.0 0.011213
8170.0 0.0109
8190.0 0.010763
8210.0 0.01084
8230.0 0.0096527
8250.0 0.0088382
8270.0 0.0077523
8290.0 0.0064418
8310.0 0.005494
8330.0 0.0043809
8350.0 0.0036877
8370.0 0.0038034
8390.0 0.0038968
8410.0 0.0041358
8430.0 0.0050353
8450.0 0.0053836
8470.0 0.0056858
8490.0 0.0065083
8510.0 0.0070946
8530.0 0.0081718
8550.0 0.0096572
8570.0 0.010763
8590.0 0.011548
8610.0 0.012596
8630.0 0.013833
8650.0 0.014053
8670.0 0.014194
8690.0 0.014736
8710.0 0.014583
8730.0 0.014439
8750.0 0.013669
8770.0 0.013674
8790.0 0.013482
8810.0 0.012443
8830.0 0.012416
8850.0 0.011657
8870.0 0.011198
8890.0 0.010256
8910.0 0.010968
8930.0 0.010046
8950.0 0.0098675
8970.0 0.0098842
8990.0 0.0095576
9010.0 0.009709
9030.0 0.0093223
9050.0 0.009271
9070.0 0.0092594
9090.0 0.009246
9110.0 0.0092359
9130.0 0.0092195
9150.0 0.0092002
9170.0 0.0091591
9190.0 0.0090837
9210.0 0.0091865
9230.0 0.0091375
9250.0 0.0091022
9270.0 0.009069
9290.0 0.0090369
9310.0 0.0090057
9330.0 0.0089745
9350.0 0.0089427
9370.0 0.0089104
9390.0 0.0088774
9410.0 0.0088434
9430.0 0.0088085
9450.0 0.0087724
9470.0 0.0087359
9490.0 0.0086995
9510.0 0.0086622
9530.0 0.0086245
9550.0 0.008586
9570.0 0.0085469
9590.0 0.0085076
9610.0 0.0084679
9630.0 0.0084278
9650.0 0.0083875
9670.0 0.0083471
9690.0 0.0083064
9710.0 0.0082656
9730.0 0.0082247
9750.0 0.0081838
9770.0 0.0081429
9790.0 0.0081021
9810.0 0.0080613
9830.0 0.0080206
9850.0 0.0079802
9870.0 0.0079398
9890.0 0.0078997
9910.0 0.0078598
9930.0 0.0078199
9950.0 0.0077571
9970.0 0.0077251
9990.0 0.0076922
10010.0 0.0076589
10030.0 0.007624
10050.0 0.0075865
10070.0 0.0075418
10090.0 0.0075094
10110.0 0.0074757
10130.0 0.0074422
10150.0 0.0074089
10170.0 0.007375
10190.0 0.0073403
10210.0 0.0073073
10230.0 0.0072752
10250.0 0.0072424
10270.0 0.0072104
10290.0 0.00718
10310.0 0.0071492
10330.0 0.0071182
10350.0 0.0070891
10370.0 0.0070606
10390.0 0.0070318
10410.0 0.0070038
10430.0 0.0069776
10450.0 0.006951
10470.0 0.0069246
10490.0 0.0068997
10510.0 0.0068755
10530.0 0.0068504
10550.0 0.0068266
10570.0 0.0068044
10590.0 0.0067819
10610.0 0.0067596
10630.0 0.006739
10650.0 0.0067188
10670.0 0.006698
10690.0 0.0066785
10710.0 0.0066601
10730.0 0.0066415
10750.0 0.0066227
10770.0 0.0066061
10790.0 0.0065896
10810.0 0.0065728
10830.0 0.0065568
10850.0 0.0065418
10870.0 0.0065248
10890.0 0.0065063
10910.0 0.006486
10930.0 0.0064603
10950.0 0.0064247
10970.0 0.0063786
10990.0 0.0063211
11010.0 0.006207
11030.0 0.0061196
11050.0 0.0060186
11070.0 0.0059028
11090.0 0.005769
11110.0 0.0056356
11130.0 0.0055016
11150.0 0.0053629
11170.0 0.005226
11190.0 0.005099
11210.0 0.0049731
11230.0 0.0048491
11250.0 0.0047354
11270.0 0.0046297
11290.0 0.0045263
11310.0 0.0044301
11330.0 0.0043465
11350.0 0.004267
11370.0 0.0041919
11390.0 0.004125
11410.0 0.0040636
11430.0 0.004002
11450.0 0.0039442
11470.0 0.0038899
11490.0 0.0038345
11510.0 0.0037763
11530.0 0.0037194
11550.0 0.0036609
11570.0 0.0035967
11590.0 0.0035299
11610.0 0.0034626
11630.0 0.003389
11650.0 0.00331
11670.0 0.0032327
11690.0 0.0031536
11710.0 0.0030703
11730.0 0.0029878
11750.0 0.0029098
11770.0 0.0028298
11790.0 0.0027511
11810.0 0.0026783
11830.0 0.0026091
11850.0 0.0025396
11870.0 0.0024768
11890.0 0.0024203
11910.0 0.0023656
11930.0 0.0023139
11950.0 0.002268
11970.0 0.0022245
11990.0 0.0021814
12010.0 0.0021421
12030.0 0.0021058
12050.0 0.0020699
12070.0 0.0020346
12090.0 0.0020037
12110.0 0.0019737
12130.0 0.0019445
12150.0 0.0019183
12170.0 0.0018956
12190.0 0.0018739
12210.0 0.0018564
12230.0 0.0018441
12250.0 0.0018363
12270.0 0.0018337
12290.0 0.0018376
12310.0 0.001848
12330.0 0.001865
12350.0 0.0018891
12370.0 0.001919
12390.0 0.0019552
12410.0 0.0019985
12430.0 0.0020448
12450.0 0.0020938
12470.0 0.0021465
12490.0 0.0022003
12510.0 0.0022523
12530.0 0.0023045
12550.0 0.0023557
12570.0 0.0024029
12590.0 0.0024465
12610.0 0.0024876
12630.0 0.0025245
12650.0 0.002556
12670.0 0.0025841
12690.0 0.0026083
12710.0 0.0026282
12730.0 0.0026444
12750.0 0.002657
12770.0 0.002666
12790.0 0.0026719
12810.0 0.0026746
12830.0 0.0026737
12850.0 0.0026705
12870.0 0.0026646
12890.0 0.0026551
12910.0 0.0026431
12930.0 0.0026291
12950.0 0.0026115
12970.0 0.0025903
12990.0 0.002568
13010.0 0.0025431
13030.0 0.0025145
13050.0 0.0024841
13070.0 0.0024533
13090.0 0.0024192
13110.0 0.0023833
13130.0 0.0023481
13150.0 0.0023128
13170.0 0.0022759
13190.0 0.0022419
13210.0 0.0022113
13230.0 0.0021823
13250.0 0.0021568
13270.0 0.0021367
13290.0 0.0021207
13310.0 0.0021088
13330.0 0.0021022
13350.0 0.0021
13370.0 0.0021014
13390.0 0.0021057
13410.0 0.002112
13430.0 0.002119
13450.0 0.0021256
13470.0 0.0021306
13490.0 0.0021332
13510.0 0.0021322
13530.0 0.0021271
13550.0 0.0021182
13570.0 0.002105
13590.0 0.0020871
13610.0 0.0020663
13630.0 0.0020435
13650.0 0.0020173
13670.0 0.00199
13690.0 0.001963
13710.0 0.0019357
13730.0 0.0019075
13750.0 0.0018822
13770.0 0.0018583
13790.0 0.001835
13810.0 0.0018133
13830.0 0.0017938
13850.0 0.0017748
13870.0 0.0017564
13890.0 0.0017393
13910.0 0.0017229
13930.0 0.0017062
13950.0 0.0016899
13970.0 0.0016747
13990.0 0.0016593
14010.0 0.001644
14030.0 0.0016298
14050.0 0.0016162
14070.0 0.0016029
14090.0 0.0015909
14110.0 0.0015803
14130.0 0.0015707
14150.0 0.0015623
14170.0 0.0015556
14190.0 0.0015502
14210.0 0.0015461
14230.0 0.0015435
14250.0 0.0015422
14270.0 0.0015424
14290.0 0.0015441
14310.0 0.0015467
14330.0 0.0015505
14350.0 0.0015557
14370.0 0.0015615
14390.0 0.0015676
14410.0 0.0015745
14430.0 0.0015817
14450.0 0.0015883
14470.0 0.0015946
14490.0 0.0016009
14510.0 0.001606
14530.0 0.0016102
14550.0 0.001614
14570.0 0.0016173
14590.0 0.0016198
14610.0 0.0016225
14630.0 0.0016258
14650.0 0.0016294
14670.0 0.0016339
14690.0 0.0016402
14710.0 0.0016486
14730.0 0.0016582
14750.0 0.0016703
14770.0 0.0016856
14790.0 0.0017029
14810.0 0.0017219
14830.0 0.0017452
14850.0 0.0017703
14870.0 0.0017958
14890.0 0.0018229
14910.0 0.001851
14930.0 0.0018767
14950.0 0.0018995
14970.0 0.0019199
14990.0 0.001935
15010.0 0.0019442
15030.0 0.0019485
15050.0 0.001948
15070.0 0.001943
15090.0 0.0019353
15110.0 0.0019256
15130.0 0.0019146
15150.0 0.0019031
15170.0 0.0018912
15190.0 0.001879
15210.0 0.0018669
15230.0 0.0018548
15250.0 0.0018425
15270.0 0.0018303
15290.0 0.0018182
15310.0 0.0018061
15330.0 0.0017939
15350.0 0.0017819
15370.0 0.0017698
15390.0 0.0017577
15410.0 0.0017456
15430.0 0.0017337
15450.0 0.0017217
15470.0 0.0017097
15490.0 0.0016979
15510.0 0.0016861
15530.0 0.0016742
15550.0 0.0016624
15570.0 0.0016508
15590.0 0.0016391
15610.0 0.0016274
15630.0 0.0016158
15650.0 0.0016043
15670.0 0.0015928
15690.0 0.0015814
15710.0 0.0015702
15730.0 0.0015588
15750.0 0.0015476
15770.0 0.0015364
15790.0 0.0015254
15810.0 0.0015142
15830.0 0.0015033
15850.0 0.0014924
15870.0 0.0014816
15890.0 0.0014708
15910.0 0.0014602
15930.0 0.0014496
15950.0 0.001439
15970.0 0.0014285
15990.0 0.0014182
16010.0 0.0014078
16030.0 0.0013975
16050.0 0.0013874
16070.0 0.0013773
16090.0 0.0013673
16110.0 0.0013574
16130.0 0.0013476
16150.0 0.0013377
16170.0 0.001328
16190.0 0.0013185
16210.0 0.0013089
16230.0 0.0012994
16250.0 0.0012901
16270.0 0.0012808
16290.0 0.0012716
16310.0 0.0012625
16330.0 0.0012535
16350.0 0.0012445
16370.0 0.0012355
16390.0 0.0012268
16410.0 0.0012181
16430.0 0.0012094
16450.0 0.0012009
16470.0 0.0011925
16490.0 0.001184
16510.0 0.0011757
16530.0 0.0011675
16550.0 0.0011594
16570.0 0.0011512
16590.0 0.0011432
16610.0 0.0011354
16630.0 0.0011275
16650.0 0.0011198
16670.0 0.0011121
16690.0 0.0011046
16710.0 0.001097
16730.0 0.0010896
16750.0 0.0010822
16770.0 0.0010749
16790.0 0.0010677
16810.0 0.0010606
16830.0 0.0010536
16850.0 0.0010466
16870.0 0.0010397
16890.0 0.0010329
16910.0 0.0010261
16930.0 0.0010194
16950.0 0.0010128
16970.0 0.0010063
16990.0 0.00099978
17010.0 0.00099339
17030.0 0.00098713
17050.0 0.00098085
17070.0 0.00097463
17090.0 0.00096856
17110.0 0.00096252
17130.0 0.00095647
17150.0 0.00095057
17170.0 0.00094477
17190.0 0.00093897
17210.0 0.00093323
17230.0 0.00092764
17250.0 0.00092206
17270.0 0.00091648
17290.0 0.00091103
17310.0 0.00090567
17330.0 0.0009003
17350.0 0.00089499
17370.0 0.00088984
17390.0 0.00088469
17410.0 0.00087956
17430.0 0.00087455
17450.0 0.00086962
17470.0 0.00086463
17490.0 0.00085974
17510.0 0.00085498
17530.0 0.00085023
17550.0 0.00084549
17570.0 0.00084088
17590.0 0.00083634
17610.0 0.00083176
17630.0 0.00082727
17650.0 0.00082288
17670.0 0.0008185
17690.0 0.00081409
17710.0 0.00080985
17730.0 0.00080566
17750.0 0.00080145
17770.0 0.00079731
17790.0 0.00079329
17810.0 0.00078923
17830.0 0.00078521
17850.0 0.00078129
17870.0 0.00077742
17890.0 0.00077352
17910.0 0.00076969
17930.0 0.000766
17950.0 0.00076227
17970.0 0.00075857
17990.0 0.00075497
18010.0 0.00075141
18030.0 0.00074779
18050.0 0.00074429
18070.0 0.00074086
18090.0 0.00073742
18110.0 0.00073399
18130.0 0.00073069
18150.0 0.0007274
18170.0 0.00072409
18190.0 0.00072086
18210.0 0.00071771
18230.0 0.00071451
18250.0 0.00071134
18270.0 0.00070829
18290.0 0.00070525
18310.0 0.00070219
18330.0 0.00069922
18350.0 0.00069632
18370.0 0.00069337
18390.0 0.00069046
18410.0 0.00068764
18430.0 0.00068483
18450.0 0.00068197
18470.0 0.00067923
18490.0 0.00067655
18510.0 0.00067383
18530.0 0.00067114
18550.0 0.00066855
18570.0 0.00066594
18590.0 0.00066331
18610.0 0.00066077
18630.0 0.00065827
18650.0 0.00065574
18670.0 0.00065324
18690.0 0.00065085
18710.0 0.00064844
18730.0 0.00064601
18750.0 0.00064367
18770.0 0.00064137
18790.0 0.00063898
18810.0 0.00063667
18830.0 0.00063445
18850.0 0.0006322
18870.0 0.00062994
18890.0 0.00062777
18910.0 0.00062563
18930.0 0.00062343
18950.0 0.00062129
18970.0 0.00061922
18990.0 0.00061713
19010.0 0.00061498
19030.0 0.00061297
19050.0 0.00061097
19070.0 0.00060893
19090.0 0.00060694
19110.0 0.00060503
19130.0 0.00060305
19150.0 0.00060108
19170.0 0.0005992
19190.0 0.00059732
19210.0 0.00059539
19230.0 0.00059352
19250.0 0.00059173
19270.0 0.00058989
19290.0 0.00058806
19310.0 0.0005863
19330.0 0.00058455
19350.0 0.00058272
19370.0 0.00058097
19390.0 0.00057928
19410.0 0.00057754
19430.0 0.0005758
19450.0 0.00057416
19470.0 0.00057251
19490.0 0.00057081
19510.0 0.00056917
19530.0 0.00056758
19550.0 0.00056592
19570.0 0.00056427
19590.0 0.00056272
19610.0 0.00056115
19630.0 0.00055954
19650.0 0.000558
19670.0 0.0005565
19690.0 0.00055493
19710.0 0.00055338
19730.0 0.0005519
19750.0 0.00055041
19770.0 0.00054885
19790.0 0.00054739
19810.0 0.00054595
19830.0 0.00054445
19850.0 0.00054295
19870.0 0.00054148
19890.0 0.00053986
19910.0 0.00053801
19930.0 0.00053595
19950.0 0.00053347
19970.0 0.00053023
19990.0 0.00052616
20010.0 0.00052141
20030.0 0.00051552
20050.0 0.00050855
20070.0 0.00050098
20090.0 0.00049285
20110.0 0.00048367
20130.0 0.00047446
20150.0 0.00046542
20170.0 0.0004561
20190.0 0.00044672
20210.0 0.00043793
20230.0 0.00042941
20250.0 0.00042089
20270.0 0.00041304
20290.0 0.00040592
20310.0 0.0003992
20330.0 0.00039299
20350.0 0.00038796
20370.0 0.00038362
20390.0 0.00038
20410.0 0.00037734
20430.0 0.0003756
20450.0 0.00037465
20470.0 0.00037463
20490.0 0.00037545
20510.0 0.00037707
20530.0 0.00037953
20550.0 0.00038264
20570.0 0.00038623
20590.0 0.00039048
20610.0 0.00039519
20630.0 0.00040005
20650.0 0.00040518
20670.0 0.00041067
20690.0 0.00041593
20710.0 0.00042099
20730.0 0.00042601
20750.0 0.00043074
20770.0 0.00043489
20790.0 0.00043871
20810.0 0.00044212
20830.0 0.00044491
20850.0 0.00044715
20870.0 0.00044892
20890.0 0.00045012
20910.0 0.00045077
20930.0 0.00045097
20950.0 0.00045069
20970.0 0.00045002
20990.0 0.00044902
21010.0 0.0004476
21030.0 0.00044589
21050.0 0.00044398
21070.0 0.0004418
21090.0 0.00043934
21110.0 0.00043684
21130.0 0.00043425
21150.0 0.00043149
21170.0 0.00042871
21190.0 0.00042604
21210.0 0.00042332
21230.0 0.00042063
21250.0 0.00041821
21270.0 0.00041599
21290.0 0.00041391
21310.0 0.00041214
21330.0 0.00041075
21350.0 0.00040963
21370.0 0.00040886
21390.0 0.00040849
21410.0 0.00040849
21430.0 0.00040887
21450.0 0.00040965
21470.0 0.00041075
21490.0 0.00041223
21510.0 0.00041406
21530.0 0.00041611
21550.0 0.00041843
21570.0 0.00042109
21590.0 0.00042392
21610.0 0.00042686
21630.0 0.00043006
21650.0 0.0004335
21670.0 0.00043685
21690.0 0.00044037
21710.0 0.00044408
21730.0 0.00044783
21750.0 0.00045154
21770.0 0.00045555
21790.0 0.00045962
21810.0 0.00046364
21830.0 0.00046776
21850.0 0.00047211
21870.0 0.00047641
21890.0 0.00048063
21910.0 0.00048507
21930.0 0.00048954
21950.0 0.00049386
21970.0 0.00049822
21990.0 0.00050272
22010.0 0.00050692
22030.0 0.00051094
22050.0 0.0005149
22070.0 0.00051862
22090.0 0.00052192
22110.0 0.00052497
22130.0 0.0005277
22150.0 0.00052991
22170.0 0.00053163
22190.0 0.00053288
22210.0 0.00053352
22230.0 0.00053355
22250.0 0.00053296
22270.0 0.00053169
22290.0 0.00052982
22310.0 0.00052735
22330.0 0.00052408
22350.0 0.00052021
22370.0 0.00051588
22390.0 0.00051088
22410.0 0.00050516
22430.0 0.00049925
22450.0 0.00049297
22470.0 0.00048609
22490.0 0.00047899
22510.0 0.00047193
22530.0 0.0004644
22550.0 0.00045663
22570.0 0.00044917
22590.0 0.00044175
22610.0 0.00043417
22630.0 0.00042684
22650.0 0.00042
22670.0 0.00041313
22690.0 0.00040646
22710.0 0.00040032
22730.0 0.00039448
22750.0 0.00038865
22770.0 0.00038338
22790.0 0.00037859
22810.0 0.00037397
22830.0 0.00036963
22850.0 0.00036578
22870.0 0.00036218
22890.0 0.00035873
22910.0 0.00035567
22930.0 0.00035293
22950.0 0.00035037
22970.0 0.00034801
22990.0 0.00034607
23010.0 0.00034432
23030.0 0.00034276
23050.0 0.00034149
23070.0 0.00034048
23090.0 0.00033964
23110.0 0.00033904
23130.0 0.00033866
23150.0 0.00033846
23170.0 0.00033844
23190.0 0.00033857
23210.0 0.00033883
23230.0 0.00033922
23250.0 0.00033971
23270.0 0.00034027
23290.0 0.00034091
23310.0 0.00034165
23330.0 0.00034241
23350.0 0.00034321
23370.0 0.00034407
23390.0 0.00034495
23410.0 0.00034582
23430.0 0.00034672
23450.0 0.00034763
23470.0 0.00034849
23490.0 0.0003493
23510.0 0.00035009
