#lamb flux
1010.0 6.1567e-05
1030.0 6.6667e-05
1050.0 7.3866e-05
1070.0 8.197e-05
1090.0 9.0808e-05
1110.0 9.995e-05
1130.0 0.0001092
1150.0 0.00011893
1170.0 0.00012894
1190.0 0.00013837
1210.0 0.00014781
1230.0 0.00015739
1250.0 0.00016663
1270.0 0.00017534
1290.0 0.00018427
1310.0 0.00019288
1330.0 0.00020079
1350.0 0.00020854
1370.0 0.00021636
1390.0 0.00022377
1410.0 0.00023082
1430.0 0.00023826
1450.0 0.00024576
1470.0 0.00025311
1490.0 0.00026077
1510.0 0.0002692
1530.0 0.00027751
1550.0 0.00028611
1570.0 0.00029545
1590.0 0.00030529
1610.0 0.00031528
1630.0 0.00032621
1650.0 0.00033792
1670.0 0.0003499
1690.0 0.00036229
1710.0 0.00037553
1730.0 0.00038927
1750.0 0.00040282
1770.0 0.00041692
1790.0 0.0004314
1810.0 0.00044563
1830.0 0.0004596
1850.0 0.00047395
1870.0 0.00048765
1890.0 0.00050047
1910.0 0.00051279
1930.0 0.00052451
1950.0 0.00053479
1970.0 0.00054387
1990.0 0.00055216
2010.0 0.00055905
2030.0 0.00056435
2050.0 0.00056872
2070.0 0.00057215
2090.0 0.00057391
2110.0 0.00057466
2130.0 0.0005748
2150.0 0.00057404
2170.0 0.00057233
2190.0 0.00057054
2210.0 0.00056854
2230.0 0.00056611
2250.0 0.00056372
2270.0 0.00056186
2290.0 0.00056005
2310.0 0.00055834
2330.0 0.00055738
2350.0 0.00055706
2370.0 0.00055711
2390.0 0.00055798
2410.0 0.00056006
2430.0 0.0005629
2450.0 0.00056667
2470.0 0.00057195
2490.0 0.00057891
2510.0 0.0005872
2530.0 0.00059849
2550.0 0.0006152
2570.0 0.00063964
2590.0 0.00067508
2610.0 0.00073049
2630.0 0.00080862
2650.0 0.00090658
2670.0 0.0010265
2690.0 0.001165
2710.0 0.0013039
2730.0 0.0014328
2750.0 0.0015502
2770.0 0.0016421
2790.0 0.001705
2810.0 0.0017439
2830.0 0.0017616
2850.0 0.0017639
2870.0 0.0017579
2890.0 0.0017469
2910.0 0.0017351
2930.0 0.0017262
2950.0 0.0017185
2970.0 0.0017133
2990.0 0.0017126
3010.0 0.0022965
3030.0 0.0023036
3050.0 0.0023149
3070.0 0.002332
3090.0 0.0023501
3110.0 0.0023678
3130.0 0.0023848
3150.0 0.0024075
3170.0 0.0024173
3190.0 0.0027928
3210.0 0.0044321
3230.0 0.0070684
3250.0 0.0083781
3270.0 0.0075277
3290.0 0.00605
3310.0 0.0052565
3330.0 0.0049771
3350.0 0.0050195
3370.0 0.0051548
3390.0 0.005312
3410.0 0.0054559
3430.0 0.0054674
3450.0 0.0055544
3470.0 0.0056752
3490.0 0.006064
3510.0 0.0067959
3530.0 0.0076567
3550.0 0.0091974
3570.0 0.011073
3590.0 0.012063
3610.0 0.012271
3630.0 0.012305
3650.0 0.012454
3670.0 0.01354
3690.0 0.0161
3710.0 0.018886
3730.0 0.020827
3750.0 0.022336
3770.0 0.022416
3790.0 0.021264
3810.0 0.019632
3830.0 0.017424
3850.0 0.015646
3870.0 0.014941
3890.0 0.016604
3910.0 0.019824
3930.0 0.023105
3950.0 0.025727
3970.0 0.027092
3990.0 0.027368
4010.0 0.026987
4030.0 0.024156
4050.0 0.020112
4070.0 0.017964
4090.0 0.01819
4110.0 0.019529
4130.0 0.020173
4150.0 0.020296
4170.0 0.020242
4190.0 0.020519
4210.0 0.020678
4230.0 0.021385
4250.0 0.022022
4270.0 0.022583
4290.0 0.02284
4310.0 0.02329
4330.0 0.023852
4350.0 0.024176
4370.0 0.023367
4390.0 0.021438
4410.0 0.018866
4430.0 0.016454
4450.0 0.015034
4470.0 0.015144
4490.0 0.016343
4510.0 0.018355
4530.0 0.021417
4550.0 0.026147
4570.0 0.031709
4590.0 0.038153
4610.0 0.044547
4630.0 0.048464
4650.0 0.049644
4670.0 0.048931
4690.0 0.04558
4710.0 0.039839
4730.0 0.033322
4750.0 0.027911
4770.0 0.024475
4790.0 0.02378
4810.0 0.024534
4830.0 0.025844
4850.0 0.027679
4870.0 0.029866
4890.0 0.031153
4910.0 0.032372
4930.0 0.034792
4950.0 0.037404
4970.0 0.038107
4990.0 0.03622
5010.0 0.032356
5030.0 0.027683
5050.0 0.023989
5070.0 0.021723
5090.0 0.020629
5110.0 0.020536
5130.0 0.020647
5150.0 0.020604
5170.0 0.020838
5190.0 0.021883
5210.0 0.023995
5230.0 0.026668
5250.0 0.030071
5270.0 0.033616
5290.0 0.036251
5310.0 0.038164
5330.0 0.039917
5350.0 0.04075
5370.0 0.040062
5390.0 0.038895
5410.0 0.038612
5430.0 0.040227
5450.0 0.043791
5470.0 0.04764
5490.0 0.049843
5510.0 0.050067
5530.0 0.049105
5550.0 0.047486
5570.0 0.045477
5590.0 0.043569
5610.0 0.041945
5630.0 0.0406
5650.0 0.038765
5670.0 0.035852
5690.0 0.032699
5710.0 0.030145
5730.0 0.028047
5750.0 0.02703
5770.0 0.027128
5790.0 0.027371
5810.0 0.027152
5830.0 0.026788
5850.0 0.026141
5870.0 0.025093
5890.0 0.024425
5910.0 0.024034
5930.0 0.022855
5950.0 0.0208
5970.0 0.018309
5990.0 0.015889
6010.0 0.014271
6030.0 0.013728
6050.0 0.014129
6070.0 0.014769
6090.0 0.014706
6110.0 0.01432
6130.0 0.014468
6150.0 0.015134
6170.0 0.015773
6190.0 0.016104
6210.0 0.016079
6230.0 0.015433
6250.0 0.014123
6270.0 0.012533
6290.0 0.011257
6310.0 0.010941
6330.0 0.011507
6350.0 0.012323
6370.0 0.013146
6390.0 0.014454
6410.0 0.016292
6430.0 0.017754
6450.0 0.018516
6470.0 0.019032
6490.0 0.019469
6510.0 0.019668
6530.0 0.019763
6550.0 0.02002
6570.0 0.020151
6590.0 0.020062
6610.0 0.019631
6630.0 0.018781
6650.0 0.017589
6670.0 0.016415
6690.0 0.01564
6710.0 0.015065
6730.0 0.014427
6750.0 0.014073
6770.0 0.014302
6790.0 0.01463
6810.0 0.014639
6830.0 0.014386
6850.0 0.014024
6870.0 0.013662
6890.0 0.013353
6910.0 0.013369
6930.0 0.01349
6950.0 0.0135
6970.0 0.01349
6990.0 0.013336
7010.0 0.012936
7030.0 0.012198
7050.0 0.011179
7070.0 0.010392
7090.0 0.010304
7110.0 0.010557
7130.0 0.010427
7150.0 0.010029
7170.0 0.010083
7190.0 0.010757
7210.0 0.011545
7230.0 0.012165
7250.0 0.012496
7270.0 0.012269
7290.0 0.011769
7310.0 0.011454
7330.0 0.011599
7350.0 0.011966
7370.0 0.012227
7390.0 0.012659
7410.0 0.013438
7430.0 0.014209
7450.0 0.014724
7470.0 0.014813
7490.0 0.014115
7510.0 0.013278
7530.0 0.013015
7550.0 0.01262
7570.0 0.012196
7590.0 0.012067
7610.0 0.01216
7630.0 0.012548
7650.0 0.013392
7670.0 0.014483
7690.0 0.015517
7710.0 0.016279
7730.0 0.016946
7750.0 0.017543
7770.0 0.017989
7790.0 0.018431
7810.0 0.018593
7830.0 0.01814
7850.0 0.017587
7870.0 0.017243
7890.0 0.017149
7910.0 0.017226
7930.0 0.016957
7950.0 0.016565
7970.0 0.016094
7990.0 0.015748
8010.0 0.014961
8030.0 0.01503
8050.0 0.015056
8070.0 0.014931
8090.0 0.014849
8110.0 0.014757
8130.0 0.01484
8150.0 0.014808
8170.0 0.014648
8190.0 0.014288
8210.0 0.013768
8230.0 0.013299
8250.0 0.013154
8270.0 0.01254
8290.0 0.011151
8310.0 0.0096173
8330.0 0.0085827
8350.0 0.008299
8370.0 0.0089981
8390.0 0.010112
8410.0 0.010834
8430.0 0.01138
8450.0 0.012246
8470.0 0.013218
8490.0 0.014443
8510.0 0.01581
8530.0 0.017208
8550.0 0.018324
8570.0 0.019166
8590.0 0.019819
8610.0 0.020272
8630.0 0.020316
8650.0 0.020022
8670.0 0.020118
8690.0 0.021127
8710.0 0.022471
8730.0 0.023093
8750.0 0.022941
8770.0 0.023176
8790.0 0.023246
8810.0 0.022416
8830.0 0.020836
8850.0 0.018845
8870.0 0.017358
8890.0 0.016907
8910.0 0.016554
8930.0 0.015508
8950.0 0.014427
8970.0 0.014026
8990.0 0.014147
9010.0 0.014006
9030.0 0.013789
9050.0 0.013664
9070.0 0.013594
9090.0 0.01353
9110.0 0.013469
9130.0 0.013408
9150.0 0.013348
9170.0 0.013287
9190.0 0.013233
9210.0 0.013193
9230.0 0.013127
9250.0 0.013065
9270.0 0.013006
9290.0 0.012949
9310.0 0.012894
9330.0 0.012839
9350.0 0.012786
9370.0 0.012734
9390.0 0.012682
9410.0 0.012631
9430.0 0.012578
9450.0 0.01251
9470.0 0.012448
9490.0 0.012415
9510.0 0.012375
9530.0 0.012334
9550.0 0.012289
9570.0 0.012244
9590.0 0.0122
9610.0 0.012155
9630.0 0.01211
9650.0 0.012065
9670.0 0.012022
9690.0 0.011978
9710.0 0.011934
9730.0 0.011892
9750.0 0.01185
9770.0 0.011806
9790.0 0.011764
9810.0 0.011722
9830.0 0.01168
9850.0 0.011637
9870.0 0.011597
9890.0 0.011556
9910.0 0.011513
9930.0 0.011472
9950.0 0.011401
9970.0 0.011368
9990.0 0.011332
10010.0 0.011297
10030.0 0.011259
10050.0 0.011218
10070.0 0.011178
10090.0 0.011138
10110.0 0.011091
10130.0 0.011031
10150.0 0.010991
10170.0 0.010954
10190.0 0.01091
10210.0 0.010869
10230.0 0.010827
10250.0 0.010781
10270.0 0.010734
10290.0 0.01069
10310.0 0.010642
10330.0 0.01059
10350.0 0.010542
10370.0 0.010493
10390.0 0.010441
10410.0 0.010388
10430.0 0.010338
10450.0 0.010285
10470.0 0.010229
10490.0 0.010175
10510.0 0.010121
10530.0 0.01006
10550.0 0.010001
10570.0 0.0099441
10590.0 0.0098835
10610.0 0.0098201
10630.0 0.0097597
10650.0 0.0096978
10670.0 0.0096303
10690.0 0.009564
10710.0 0.009499
10730.0 0.0094297
10750.0 0.0093562
10770.0 0.0092881
10790.0 0.0092174
10810.0 0.009142
10830.0 0.0090675
10850.0 0.0089951
10870.0 0.0089152
10890.0 0.0088342
10910.0 0.0087561
10930.0 0.0086755
10950.0 0.0085898
10970.0 0.0085053
10990.0 0.0084236
11010.0 0.0088189
11030.0 0.008728
11050.0 0.0086414
11070.0 0.0085541
11090.0 0.0084616
11110.0 0.0083759
11130.0 0.0082927
11150.0 0.0082072
11170.0 0.0081227
11190.0 0.008044
11210.0 0.0079644
11230.0 0.007884
11250.0 0.0078084
11270.0 0.0077361
11290.0 0.0076626
11310.0 0.0075912
11330.0 0.0075262
11350.0 0.0074609
11370.0 0.0073951
11390.0 0.007332
11410.0 0.0072695
11430.0 0.007202
11450.0 0.0071335
11470.0 0.0070642
11490.0 0.0069895
11510.0 0.0069077
11530.0 0.0068246
11550.0 0.0067372
11570.0 0.0066414
11590.0 0.0065416
11610.0 0.0064408
11630.0 0.0063324
11650.0 0.006218
11670.0 0.0061059
11690.0 0.0059918
11710.0 0.0058724
11730.0 0.0057529
11750.0 0.0056371
11770.0 0.0055164
11790.0 0.0053938
11810.0 0.0052746
11830.0 0.0051554
11850.0 0.0050303
11870.0 0.004909
11890.0 0.0047919
11910.0 0.0046725
11930.0 0.0045534
11950.0 0.0044408
11970.0 0.0043298
11990.0 0.0042181
12010.0 0.004113
12030.0 0.0040142
12050.0 0.0039177
12070.0 0.0038249
12090.0 0.0037427
12110.0 0.0036652
12130.0 0.0035924
12150.0 0.0035277
12170.0 0.0034711
12190.0 0.0034193
12210.0 0.0033759
12230.0 0.0033411
12250.0 0.0033136
12270.0 0.0032937
12290.0 0.0032816
12310.0 0.0032762
12330.0 0.0032777
12350.0 0.0032854
12370.0 0.0032973
12390.0 0.0033139
12410.0 0.0033358
12430.0 0.0033584
12450.0 0.0033822
12470.0 0.0034082
12490.0 0.0034344
12510.0 0.0034581
12530.0 0.0034819
12550.0 0.0035049
12570.0 0.0035242
12590.0 0.0035402
12610.0 0.003554
12630.0 0.0035633
12650.0 0.0035666
12670.0 0.0035656
12690.0 0.0035591
12710.0 0.0035464
12730.0 0.0035281
12750.0 0.0035034
12770.0 0.0034728
12790.0 0.0034372
12810.0 0.0033962
12830.0 0.0033499
12850.0 0.0033014
12870.0 0.0032503
12890.0 0.0031958
12910.0 0.0031407
12930.0 0.0030863
12950.0 0.0030307
12970.0 0.002975
12990.0 0.0029224
13010.0 0.0028712
13030.0 0.0028205
13050.0 0.0027721
13070.0 0.0027266
13090.0 0.0026817
13110.0 0.0026382
13130.0 0.0025974
13150.0 0.0025581
13170.0 0.0025191
13190.0 0.0024826
13210.0 0.0024483
13230.0 0.0024148
13250.0 0.0023825
13270.0 0.0023525
13290.0 0.0023234
13310.0 0.0022949
13330.0 0.0022681
13350.0 0.0022425
13370.0 0.0022175
13390.0 0.0021929
13410.0 0.00217
13430.0 0.0021474
13450.0 0.002125
13470.0 0.0021033
13490.0 0.0020824
13510.0 0.002061
13530.0 0.0020399
13550.0 0.0020196
13570.0 0.0019992
13590.0 0.0019785
13610.0 0.0019583
13630.0 0.0019385
13650.0 0.0019183
13670.0 0.0018982
13690.0 0.0018788
13710.0 0.0018593
13730.0 0.0018393
13750.0 0.0018204
13770.0 0.0018019
13790.0 0.0017832
13810.0 0.0017649
13830.0 0.0017476
13850.0 0.0017303
13870.0 0.0017131
13890.0 0.0016969
13910.0 0.0016813
13930.0 0.0016658
13950.0 0.0016509
13970.0 0.001637
13990.0 0.0016233
14010.0 0.0016098
14030.0 0.0015969
14050.0 0.0015844
14070.0 0.0015716
14090.0 0.0015591
14110.0 0.0015471
14130.0 0.0015349
14150.0 0.0015225
14170.0 0.0015108
14190.0 0.0014993
14210.0 0.0014877
14230.0 0.0014767
14250.0 0.0014664
14270.0 0.0014564
14290.0 0.0014469
14310.0 0.0014386
14330.0 0.0014311
14350.0 0.0014241
14370.0 0.001418
14390.0 0.0014127
14410.0 0.0014079
14430.0 0.0014037
14450.0 0.0014
14470.0 0.0013967
14490.0 0.0013935
14510.0 0.0013905
14530.0 0.0013878
14550.0 0.0013851
14570.0 0.0013824
14590.0 0.00138
14610.0 0.0013778
14630.0 0.0013758
14650.0 0.0013744
14670.0 0.0013739
14690.0 0.0013744
14710.0 0.0013765
14730.0 0.0013803
14750.0 0.0013863
14770.0 0.0013951
14790.0 0.0014067
14810.0 0.0014213
14830.0 0.0014404
14850.0 0.0014633
14870.0 0.0014892
14890.0 0.0015189
14910.0 0.0015522
14930.0 0.0015862
14950.0 0.0016198
14970.0 0.0016534
14990.0 0.0016837
15010.0 0.0017092
15030.0 0.0017307
15050.0 0.0017481
15070.0 0.0017609
15090.0 0.001771
15110.0 0.0017792
15130.0 0.0017862
15150.0 0.0017925
15170.0 0.0017986
15190.0 0.0018047
15210.0 0.0018109
15230.0 0.0018171
15250.0 0.0018234
15270.0 0.0018299
15290.0 0.0018365
15310.0 0.0018433
15330.0 0.0018501
15350.0 0.0018571
15370.0 0.0018643
15390.0 0.0018715
15410.0 0.0018788
15430.0 0.0018863
15450.0 0.0018939
15470.0 0.0019016
15490.0 0.0019094
15510.0 0.0019173
15530.0 0.0019253
15550.0 0.0019335
15570.0 0.0019417
15590.0 0.00195
15610.0 0.0019585
15630.0 0.001967
15650.0 0.0019756
15670.0 0.0019844
15690.0 0.0019932
15710.0 0.0020021
15730.0 0.0020111
15750.0 0.0020201
15770.0 0.0020293
15790.0 0.0020385
15810.0 0.0020479
15830.0 0.0020572
15850.0 0.0020667
15870.0 0.0020762
15890.0 0.0020858
15910.0 0.0020955
15930.0 0.0021052
15950.0 0.002115
15970.0 0.0021248
15990.0 0.0021347
16010.0 0.0021446
16030.0 0.0021545
16050.0 0.0021646
16070.0 0.0021746
16090.0 0.0021847
16110.0 0.0021948
16130.0 0.002205
16150.0 0.0022151
16170.0 0.0022253
16190.0 0.0022355
16210.0 0.0022457
16230.0 0.002256
16250.0 0.0022662
16270.0 0.0022765
16290.0 0.0022867
16310.0 0.0022969
16330.0 0.0023072
16350.0 0.0023174
16370.0 0.0023276
16390.0 0.0023378
16410.0 0.002348
16430.0 0.0023581
16450.0 0.0023682
16470.0 0.0023783
16490.0 0.0023883
16510.0 0.0023983
16530.0 0.0024083
16550.0 0.0024182
16570.0 0.002428
16590.0 0.0024378
16610.0 0.0024475
16630.0 0.0024572
16650.0 0.0024668
16670.0 0.0024763
16690.0 0.0024857
16710.0 0.0024951
16730.0 0.0025043
16750.0 0.0025135
16770.0 0.0025226
16790.0 0.0025316
16810.0 0.0025405
16830.0 0.0025493
16850.0 0.0025579
16870.0 0.0025665
16890.0 0.0025749
16910.0 0.0025832
16930.0 0.0025914
16950.0 0.0025995
16970.0 0.0026074
16990.0 0.0026152
17010.0 0.0026229
17030.0 0.0026304
17050.0 0.0026378
17070.0 0.002645
17090.0 0.0026521
17110.0 0.002659
17130.0 0.0026658
17150.0 0.0026724
17170.0 0.0026788
17190.0 0.0026851
17210.0 0.0026912
17230.0 0.0026971
17250.0 0.0027029
17270.0 0.0027084
17290.0 0.0027138
17310.0 0.002719
17330.0 0.002724
17350.0 0.0027288
17370.0 0.0027335
17390.0 0.0027379
17410.0 0.0027421
17430.0 0.0027462
17450.0 0.00275
17470.0 0.0027537
17490.0 0.0027571
17510.0 0.0027603
17530.0 0.0027633
17550.0 0.0027661
17570.0 0.0027687
17590.0 0.0027711
17610.0 0.0027733
17630.0 0.0027753
17650.0 0.002777
17670.0 0.0027786
17690.0 0.0027798
17710.0 0.0027809
17730.0 0.0027818
17750.0 0.0027825
17770.0 0.0027829
17790.0 0.0027831
17810.0 0.0027831
17830.0 0.0027829
17850.0 0.0027825
17870.0 0.0027818
17890.0 0.0027809
17910.0 0.0027798
17930.0 0.0027785
17950.0 0.0027769
17970.0 0.0027752
17990.0 0.0027732
18010.0 0.002771
18030.0 0.0027685
18050.0 0.0027659
18070.0 0.0027631
18090.0 0.00276
18110.0 0.0027567
18130.0 0.0027532
18150.0 0.0027495
18170.0 0.0027456
18190.0 0.0027415
18210.0 0.0027372
18230.0 0.0027327
18250.0 0.0027279
18270.0 0.002723
18290.0 0.0027179
18310.0 0.0027126
18330.0 0.002707
18350.0 0.0027013
18370.0 0.0026954
18390.0 0.0026893
18410.0 0.0026831
18430.0 0.0026766
18450.0 0.0026699
18470.0 0.0026631
18490.0 0.0026561
18510.0 0.002649
18530.0 0.0026416
18550.0 0.0026341
18570.0 0.0026264
18590.0 0.0026186
18610.0 0.0026106
18630.0 0.0026024
18650.0 0.0025941
18670.0 0.0025856
18690.0 0.002577
18710.0 0.0025682
18730.0 0.0025593
18750.0 0.0025502
18770.0 0.002541
18790.0 0.0025317
18810.0 0.0025223
18830.0 0.0025127
18850.0 0.002503
18870.0 0.0024931
18890.0 0.0024832
18910.0 0.0024731
18930.0 0.0024629
18950.0 0.0024526
18970.0 0.0024422
18990.0 0.0024317
19010.0 0.0024211
19030.0 0.0024104
19050.0 0.0023996
19070.0 0.0023887
19090.0 0.0023777
19110.0 0.0023667
19130.0 0.0023555
19150.0 0.0023443
19170.0 0.002333
19190.0 0.0023216
19210.0 0.0023102
19230.0 0.0022986
19250.0 0.0022871
19270.0 0.0022754
19290.0 0.0022637
19310.0 0.002252
19330.0 0.0022402
19350.0 0.0022283
19370.0 0.0022164
19390.0 0.0022045
19410.0 0.0021925
19430.0 0.0021805
19450.0 0.0021684
19470.0 0.0021564
19490.0 0.0021442
19510.0 0.0021321
19530.0 0.0021199
19550.0 0.0021077
19570.0 0.0020955
19590.0 0.0020833
19610.0 0.0020711
19630.0 0.0020588
19650.0 0.0020465
19670.0 0.0020343
19690.0 0.002022
19710.0 0.0020097
19730.0 0.0019975
19750.0 0.0019852
19770.0 0.0019729
19790.0 0.0019607
19810.0 0.0019484
19830.0 0.0019361
19850.0 0.0019237
19870.0 0.0019112
19890.0 0.0018983
19910.0 0.0018848
19930.0 0.0018702
19950.0 0.0018541
19970.0 0.0018355
19990.0 0.0018141
20010.0 0.0017902
20030.0 0.0017628
20050.0 0.0017322
20070.0 0.0016998
20090.0 0.0016661
20110.0 0.0016298
20130.0 0.0015939
20150.0 0.0015589
20170.0 0.0015236
20190.0 0.0014887
20210.0 0.0014557
20230.0 0.0014236
20250.0 0.0013917
20270.0 0.0013616
20290.0 0.0013333
20310.0 0.0013058
20330.0 0.0012792
20350.0 0.0012552
20370.0 0.0012325
20390.0 0.0012109
20410.0 0.001191
20430.0 0.0011729
20450.0 0.0011556
20470.0 0.0011398
20490.0 0.0011255
20510.0 0.0011124
20530.0 0.0011002
20550.0 0.0010891
20570.0 0.001079
20590.0 0.0010696
20610.0 0.0010609
20630.0 0.0010528
20650.0 0.001045
20670.0 0.0010377
20690.0 0.0010305
20710.0 0.0010235
20730.0 0.0010165
20750.0 0.0010094
20770.0 0.0010022
20790.0 0.00099472
20810.0 0.00098696
20830.0 0.00097889
20850.0 0.0009705
20870.0 0.00096165
20890.0 0.00095237
20910.0 0.00094285
20930.0 0.00093292
20950.0 0.00092255
20970.0 0.000912
20990.0 0.00090128
21010.0 0.00089011
21030.0 0.00087883
21050.0 0.00086761
21070.0 0.00085622
21090.0 0.00084463
21110.0 0.00083333
21130.0 0.00082216
21150.0 0.0008109
21170.0 0.00079983
21190.0 0.00078913
21210.0 0.00077842
21230.0 0.00076782
21250.0 0.00075768
21270.0 0.00074779
21290.0 0.00073802
21310.0 0.00072857
21330.0 0.0007196
21350.0 0.00071078
21370.0 0.00070223
21390.0 0.00069411
21410.0 0.00068633
21430.0 0.00067871
21450.0 0.00067154
21470.0 0.00066477
21490.0 0.00065826
21510.0 0.00065204
21530.0 0.0006462
21550.0 0.00064063
21570.0 0.00063528
21590.0 0.00063022
21610.0 0.00062538
21630.0 0.00062073
21650.0 0.00061623
21670.0 0.00061191
21690.0 0.0006077
21710.0 0.00060359
21730.0 0.00059956
21750.0 0.0005956
21770.0 0.0005917
21790.0 0.00058784
21810.0 0.00058402
21830.0 0.00058024
21850.0 0.00057649
21870.0 0.00057277
21890.0 0.00056909
21910.0 0.00056543
21930.0 0.0005618
21950.0 0.00055819
21970.0 0.00055458
21990.0 0.00055098
22010.0 0.00054737
22030.0 0.00054375
22050.0 0.00054009
22070.0 0.00053638
22090.0 0.00053264
22110.0 0.00052884
22130.0 0.00052494
22150.0 0.00052098
22170.0 0.00051696
22190.0 0.0005128
22210.0 0.00050854
22230.0 0.00050427
22250.0 0.00049986
22270.0 0.00049533
22290.0 0.00049075
22310.0 0.00048611
22330.0 0.00048125
22350.0 0.00047632
22370.0 0.00047136
22390.0 0.00046622
22410.0 0.00046086
22430.0 0.00045552
22450.0 0.00045006
22470.0 0.00044436
22490.0 0.00043857
22510.0 0.00043277
22530.0 0.00042671
22550.0 0.00042047
22570.0 0.00041431
22590.0 0.00040809
22610.0 0.00040169
22630.0 0.00039532
22650.0 0.00038916
22670.0 0.00038287
22690.0 0.00037662
22710.0 0.00037061
22730.0 0.00036475
22750.0 0.00035881
22770.0 0.00035322
22790.0 0.00034793
22810.0 0.00034275
22830.0 0.00033776
22850.0 0.00033315
22870.0 0.00032872
22890.0 0.00032442
22910.0 0.00032043
22930.0 0.0003167
22950.0 0.00031311
22970.0 0.00030965
22990.0 0.00030651
23010.0 0.00030348
23030.0 0.00030054
23050.0 0.00029777
23070.0 0.00029514
23090.0 0.00029251
23110.0 0.00028998
23130.0 0.00028756
23150.0 0.00028519
23170.0 0.00028284
23190.0 0.00028057
23210.0 0.00027838
23230.0 0.00027618
23250.0 0.00027404
23270.0 0.00027198
23290.0 0.00026995
23310.0 0.00026792
23330.0 0.00026601
23350.0 0.00026416
23370.0 0.00026234
23390.0 0.00026059
23410.0 0.00025894
23430.0 0.00025733
23450.0 0.00025578
23470.0 0.00025433
23490.0 0.00025296
23510.0 0.00025163
23530.0 0.0002504
23550.0 0.00024927
23570.0 0.00024821
23590.0 0.00024725
23610.0 0.0002464
23630.0 0.00024567
23650.0 0.00024506
23670.0 0.00024461
23690.0 0.0002443
23710.0 0.00024419
23730.0 0.00024431
23750.0 0.00024462
23770.0 0.00024517
23790.0 0.00024603
23810.0 0.00024718
23830.0 0.00024856
23850.0 0.00025034
23870.0 0.00025249
23890.0 0.00025483
23910.0 0.00025746
23930.0 0.00026044
23950.0 0.00026359
