#lamb flux
1010.0 1.4332e-08
1030.0 1.61e-08
1050.0 1.8134e-08
1070.0 2.0424e-08
1090.0 2.3024e-08
1110.0 2.5692e-08
1130.0 2.8376e-08
1150.0 3.1189e-08
1170.0 3.4089e-08
1190.0 3.684e-08
1210.0 3.9628e-08
1230.0 4.2509e-08
1250.0 4.5332e-08
1270.0 4.8073e-08
1290.0 5.097e-08
1310.0 5.3864e-08
1330.0 5.664e-08
1350.0 5.9447e-08
1370.0 6.2346e-08
1390.0 6.5171e-08
1410.0 6.7913e-08
1430.0 7.0778e-08
1450.0 7.3644e-08
1470.0 7.6413e-08
1490.0 7.9211e-08
1510.0 8.2167e-08
1530.0 8.4966e-08
1550.0 8.7727e-08
1570.0 9.0583e-08
1590.0 9.344e-08
1610.0 9.6168e-08
1630.0 9.8979e-08
1650.0 1.0186e-07
1670.0 1.0465e-07
1690.0 1.0739e-07
1710.0 1.1024e-07
1730.0 1.1311e-07
1750.0 1.1579e-07
1770.0 1.1855e-07
1790.0 1.2135e-07
1810.0 1.2406e-07
1830.0 1.2671e-07
1850.0 1.2952e-07
1870.0 1.3223e-07
1890.0 1.3484e-07
1910.0 1.3749e-07
1930.0 1.4018e-07
1950.0 1.4272e-07
1970.0 1.452e-07
1990.0 1.4776e-07
2010.0 1.5024e-07
2030.0 1.5259e-07
2050.0 1.5498e-07
2070.0 1.574e-07
2090.0 1.5961e-07
2110.0 1.6176e-07
2130.0 1.6393e-07
2150.0 1.66e-07
2170.0 1.6788e-07
2190.0 1.6979e-07
2210.0 1.7164e-07
2230.0 1.7331e-07
2250.0 1.7488e-07
2270.0 1.7648e-07
2290.0 1.779e-07
2310.0 1.7912e-07
2330.0 1.8032e-07
2350.0 1.8143e-07
2370.0 1.8235e-07
2390.0 1.832e-07
2410.0 1.8411e-07
2430.0 1.8491e-07
2450.0 1.8569e-07
2470.0 1.8667e-07
2490.0 1.8796e-07
2510.0 1.8952e-07
2530.0 1.9204e-07
2550.0 1.9654e-07
2570.0 2.0395e-07
2590.0 2.1545e-07
2610.0 2.3437e-07
2630.0 2.613e-07
2650.0 2.9452e-07
2670.0 3.3419e-07
2690.0 3.7842e-07
2710.0 4.2045e-07
2730.0 4.5707e-07
2750.0 4.8882e-07
2770.0 5.1226e-07
2790.0 5.2734e-07
2810.0 5.3677e-07
2830.0 5.4238e-07
2850.0 5.4424e-07
2870.0 5.4439e-07
2890.0 5.4398e-07
2910.0 5.4308e-07
2930.0 5.4162e-07
2950.0 5.4038e-07
2970.0 5.3931e-07
2990.0 5.38e-07
3010.0 9.7012e-06
3030.0 9.67e-06
3050.0 9.6384e-06
3070.0 9.597e-06
3090.0 9.5517e-06
3110.0 9.4918e-06
3130.0 9.4046e-06
3150.0 9.285e-06
3170.0 9.1232e-06
3190.0 8.9232e-06
3210.0 8.7039e-06
3230.0 8.4852e-06
3250.0 8.3179e-06
3270.0 8.2066e-06
3290.0 8.2119e-06
3310.0 8.2866e-06
3330.0 8.4859e-06
3350.0 8.7709e-06
3370.0 9.1474e-06
3390.0 9.6039e-06
3410.0 1.0091e-05
3430.0 1.0632e-05
3450.0 1.1247e-05
3470.0 1.1907e-05
3490.0 1.2594e-05
3510.0 1.3359e-05
3530.0 1.4167e-05
3550.0 1.4959e-05
3570.0 1.577e-05
3590.0 1.6679e-05
3610.0 1.7579e-05
3630.0 1.8549e-05
3650.0 1.9539e-05
3670.0 2.0473e-05
3690.0 2.1192e-05
3710.0 2.1641e-05
3730.0 2.1794e-05
3750.0 2.1636e-05
3770.0 1.9724e-05
3790.0 1.7695e-05
3810.0 1.6519e-05
3830.0 1.4255e-05
3850.0 1.0273e-05
3870.0 7.8846e-06
3890.0 1.3254e-05
3910.0 2.1092e-05
3930.0 2.5536e-05
3950.0 2.5517e-05
3970.0 2.5506e-05
3990.0 2.9917e-05
4010.0 3.7133e-05
4030.0 3.8208e-05
4050.0 3.4395e-05
4070.0 2.9914e-05
4090.0 2.8035e-05
4110.0 3.3637e-05
4130.0 3.4836e-05
4150.0 3.3182e-05
4170.0 3.4259e-05
4190.0 3.5164e-05
4210.0 3.4656e-05
4230.0 3.7621e-05
4250.0 4.0979e-05
4270.0 4.1404e-05
4290.0 4.2048e-05
4310.0 4.3708e-05
4330.0 4.8325e-05
4350.0 5.5118e-05
4370.0 6.2315e-05
4390.0 6.0026e-05
4410.0 5.0325e-05
4430.0 4.2411e-05
4450.0 3.6082e-05
4470.0 3.5313e-05
4490.0 3.8335e-05
4510.0 4.1952e-05
4530.0 4.5899e-05
4550.0 5.3464e-05
4570.0 6.4302e-05
4590.0 7.8714e-05
4610.0 9.892e-05
4630.0 0.00011851
4650.0 0.00012264
4670.0 0.00012027
4690.0 0.00012808
4710.0 0.00013385
4730.0 0.00011378
4750.0 8.2739e-05
4770.0 6.7902e-05
4790.0 6.4797e-05
4810.0 6.0184e-05
4830.0 5.7069e-05
4850.0 6.5729e-05
4870.0 8.3905e-05
4890.0 9.5195e-05
4910.0 8.1875e-05
4930.0 7.31e-05
4950.0 8.2247e-05
4970.0 0.00010955
4990.0 0.00014018
5010.0 0.00014692
5030.0 0.00012166
5050.0 8.0099e-05
5070.0 5.542e-05
5090.0 4.9289e-05
5110.0 5.1507e-05
5130.0 5.5238e-05
5150.0 5.8149e-05
5170.0 5.8147e-05
5190.0 5.7153e-05
5210.0 5.5307e-05
5230.0 5.6209e-05
5250.0 5.9848e-05
5270.0 6.9897e-05
5290.0 8.0738e-05
5310.0 8.7744e-05
5330.0 9.0015e-05
5350.0 9.1425e-05
5370.0 9.9287e-05
5390.0 0.00010549
5410.0 0.0001026
5430.0 8.9833e-05
5450.0 8.3209e-05
5470.0 9.3807e-05
5490.0 0.0001201
5510.0 0.00015225
5530.0 0.00016783
5550.0 0.00016387
5570.0 0.00014946
5590.0 0.00013451
5610.0 0.00012406
5630.0 0.00011759
5650.0 0.00012073
5670.0 0.00011826
5690.0 0.00011105
5710.0 0.00010465
5730.0 9.3886e-05
5750.0 6.9904e-05
5770.0 6.13e-05
5790.0 6.8386e-05
5810.0 8.2459e-05
5830.0 9.2319e-05
5850.0 9.953e-05
5870.0 0.00010179
5890.0 9.8037e-05
5910.0 9.3874e-05
5930.0 9.448e-05
5950.0 9.9178e-05
5970.0 0.00010382
5990.0 9.8604e-05
6010.0 8.3423e-05
6030.0 6.9338e-05
6050.0 6.0484e-05
6070.0 5.994e-05
6090.0 6.7245e-05
6110.0 7.3318e-05
6130.0 7.062e-05
6150.0 6.6343e-05
6170.0 7.3446e-05
6190.0 8.8301e-05
6210.0 0.00010596
6230.0 0.00011944
6250.0 0.00011893
6270.0 0.0001073
6290.0 8.8818e-05
6310.0 7.0867e-05
6330.0 5.6891e-05
6350.0 5.1601e-05
6370.0 5.6264e-05
6390.0 6.6039e-05
6410.0 7.5683e-05
6430.0 8.7546e-05
6450.0 0.00010175
6470.0 0.00012572
6490.0 0.00015417
6510.0 0.00016925
6530.0 0.00015735
6550.0 0.00014524
6570.0 0.00014289
6590.0 0.00013731
6610.0 0.00012412
6630.0 0.00011144
6650.0 0.00010302
6670.0 0.00010698
6690.0 0.00010639
6710.0 9.4322e-05
6730.0 8.7415e-05
6750.0 7.7733e-05
6770.0 7.4835e-05
6790.0 8.0716e-05
6810.0 8.506e-05
6830.0 8.7139e-05
6850.0 8.5646e-05
6870.0 8.2104e-05
6890.0 8.044e-05
6910.0 7.6474e-05
6930.0 7.2246e-05
6950.0 7.2665e-05
6970.0 7.4175e-05
6990.0 8.258e-05
7010.0 8.7869e-05
7030.0 8.0021e-05
7050.0 7.4958e-05
7070.0 7.2101e-05
7090.0 6.4871e-05
7110.0 6.0436e-05
7130.0 6.1516e-05
7150.0 6.3886e-05
7170.0 6.7296e-05
7190.0 6.7401e-05
7210.0 6.7735e-05
7230.0 7.1345e-05
7250.0 8.2165e-05
7270.0 9.5979e-05
7290.0 0.00010286
7310.0 9.9661e-05
7330.0 8.8642e-05
7350.0 7.9682e-05
7370.0 7.8357e-05
7390.0 7.9101e-05
7410.0 8.1996e-05
7430.0 8.9777e-05
7450.0 9.7315e-05
7470.0 0.00010784
7490.0 0.00011916
7510.0 0.00010955
7530.0 0.00010487
7550.0 8.8076e-05
7570.0 7.4019e-05
7590.0 6.1001e-05
7610.0 5.5993e-05
7630.0 5.8587e-05
7650.0 6.7002e-05
7670.0 7.2991e-05
7690.0 8.2328e-05
7710.0 9.1774e-05
7730.0 9.5972e-05
7750.0 9.6205e-05
7770.0 9.5848e-05
7790.0 9.4444e-05
7810.0 9.8106e-05
7830.0 9.4838e-05
7850.0 8.4617e-05
7870.0 7.6419e-05
7890.0 7.12e-05
7910.0 6.4221e-05
7930.0 5.4955e-05
7950.0 5.0308e-05
7970.0 5.0016e-05
7990.0 5.2349e-05
8010.0 5.5577e-05
8030.0 5.6389e-05
8050.0 5.6159e-05
8070.0 5.4566e-05
8090.0 5.4314e-05
8110.0 5.1615e-05
8130.0 4.8106e-05
8150.0 4.5226e-05
8170.0 4.4124e-05
8190.0 4.5065e-05
8210.0 4.5185e-05
8230.0 4.6986e-05
8250.0 4.6702e-05
8270.0 4.1743e-05
8290.0 3.2065e-05
8310.0 2.1834e-05
8330.0 1.4401e-05
8350.0 1.0222e-05
8370.0 1.2136e-05
8390.0 1.343e-05
8410.0 1.72e-05
8430.0 2.0841e-05
8450.0 2.2835e-05
8470.0 2.3684e-05
8490.0 2.4322e-05
8510.0 2.5407e-05
8530.0 2.8412e-05
8550.0 3.1392e-05
8570.0 3.6883e-05
8590.0 4.5237e-05
8610.0 5.2971e-05
8630.0 6.192e-05
8650.0 6.9645e-05
8670.0 6.8615e-05
8690.0 6.4301e-05
8710.0 6.077e-05
8730.0 5.7436e-05
8750.0 5.4937e-05
8770.0 5.3315e-05
8790.0 5.1657e-05
8810.0 4.8126e-05
8830.0 4.3397e-05
8850.0 3.7577e-05
8870.0 3.2105e-05
8890.0 2.9e-05
8910.0 2.9329e-05
8930.0 2.9291e-05
8950.0 3.1805e-05
8970.0 3.2543e-05
8990.0 3.3806e-05
9010.0 3.506e-05
9030.0 3.5339e-05
9050.0 3.5471e-05
9070.0 3.557e-05
9090.0 3.5643e-05
9110.0 3.568e-05
9130.0 3.5738e-05
9150.0 3.5818e-05
9170.0 3.5899e-05
9190.0 3.5978e-05
9210.0 3.6102e-05
9230.0 3.6194e-05
9250.0 3.6299e-05
9270.0 3.6411e-05
9290.0 3.653e-05
9310.0 3.6659e-05
9330.0 3.6796e-05
9350.0 3.6937e-05
9370.0 3.7087e-05
9390.0 3.7246e-05
9410.0 3.741e-05
9430.0 3.7577e-05
9450.0 3.7756e-05
9470.0 3.7941e-05
9490.0 3.813e-05
9510.0 3.8326e-05
9530.0 3.8532e-05
9550.0 3.8738e-05
9570.0 3.895e-05
9590.0 3.9171e-05
9610.0 3.9397e-05
9630.0 3.9625e-05
9650.0 3.986e-05
9670.0 4.0104e-05
9690.0 4.0348e-05
9710.0 4.0596e-05
9730.0 4.0852e-05
9750.0 4.1111e-05
9770.0 4.1369e-05
9790.0 4.1635e-05
9810.0 4.1907e-05
9830.0 4.2178e-05
9850.0 4.2452e-05
9870.0 4.2733e-05
9890.0 4.3015e-05
9910.0 4.3296e-05
9930.0 4.3582e-05
9950.0 4.3869e-05
9970.0 4.4156e-05
9990.0 4.4443e-05
10010.0 4.3717e-05
10030.0 4.3998e-05
10050.0 4.4275e-05
10070.0 4.4545e-05
10090.0 4.4834e-05
10110.0 4.5115e-05
10130.0 4.5396e-05
10150.0 4.568e-05
10170.0 4.5958e-05
10190.0 4.6231e-05
10210.0 4.6506e-05
10230.0 4.6782e-05
10250.0 4.705e-05
10270.0 4.7315e-05
10290.0 4.7583e-05
10310.0 4.7843e-05
10330.0 4.8095e-05
10350.0 4.835e-05
10370.0 4.86e-05
10390.0 4.8842e-05
10410.0 4.908e-05
10430.0 4.9319e-05
10450.0 4.9547e-05
10470.0 4.9768e-05
10490.0 4.9988e-05
10510.0 5.0202e-05
10530.0 5.0401e-05
10550.0 5.0598e-05
10570.0 5.0794e-05
10590.0 5.0978e-05
10610.0 5.1152e-05
10630.0 5.1325e-05
10650.0 5.149e-05
10670.0 5.164e-05
10690.0 5.1785e-05
10710.0 5.1926e-05
10730.0 5.2054e-05
10750.0 5.2168e-05
10770.0 5.2284e-05
10790.0 5.2389e-05
10810.0 5.2478e-05
10830.0 5.256e-05
10850.0 5.2634e-05
10870.0 5.2679e-05
10890.0 5.2694e-05
10910.0 5.2673e-05
10930.0 5.2581e-05
10950.0 5.2375e-05
10970.0 5.204e-05
10990.0 5.1564e-05
11010.0 4.9823e-05
11030.0 4.8946e-05
11050.0 4.7926e-05
11070.0 4.6733e-05
11090.0 4.5318e-05
11110.0 4.3873e-05
11130.0 4.238e-05
11150.0 4.079e-05
11170.0 3.918e-05
11190.0 3.7653e-05
11210.0 3.6118e-05
11230.0 3.4594e-05
11250.0 3.3192e-05
11270.0 3.1899e-05
11290.0 3.0655e-05
11310.0 2.9527e-05
11330.0 2.8574e-05
11350.0 2.7702e-05
11370.0 2.6917e-05
11390.0 2.6246e-05
11410.0 2.5655e-05
11430.0 2.5086e-05
11450.0 2.4565e-05
11470.0 2.4072e-05
11490.0 2.3566e-05
11510.0 2.3024e-05
11530.0 2.2474e-05
11550.0 2.1893e-05
11570.0 2.125e-05
11590.0 2.0574e-05
11610.0 1.9889e-05
11630.0 1.9157e-05
11650.0 1.8394e-05
11670.0 1.7665e-05
11690.0 1.695e-05
11710.0 1.6238e-05
11730.0 1.5572e-05
11750.0 1.4973e-05
11770.0 1.4403e-05
11790.0 1.3882e-05
11810.0 1.3431e-05
11830.0 1.3032e-05
11850.0 1.2663e-05
11870.0 1.2346e-05
11890.0 1.2071e-05
11910.0 1.1812e-05
11930.0 1.1566e-05
11950.0 1.1337e-05
11970.0 1.1106e-05
11990.0 1.0861e-05
12010.0 1.0614e-05
12030.0 1.036e-05
12050.0 1.009e-05
12070.0 9.8059e-06
12090.0 9.5335e-06
12110.0 9.2598e-06
12130.0 8.9884e-06
12150.0 8.7389e-06
12170.0 8.5184e-06
12190.0 8.3188e-06
12210.0 8.1608e-06
12230.0 8.0507e-06
12250.0 7.9862e-06
12270.0 7.9735e-06
12290.0 8.0124e-06
12310.0 8.0963e-06
12330.0 8.233e-06
12350.0 8.4141e-06
12370.0 8.624e-06
12390.0 8.8669e-06
12410.0 9.1497e-06
12430.0 9.4298e-06
12450.0 9.7114e-06
12470.0 1.0001e-05
12490.0 1.028e-05
12510.0 1.0526e-05
12530.0 1.0757e-05
12550.0 1.0964e-05
12570.0 1.1127e-05
12590.0 1.1251e-05
12610.0 1.1342e-05
12630.0 1.1389e-05
12650.0 1.1391e-05
12670.0 1.1358e-05
12690.0 1.1288e-05
12710.0 1.1185e-05
12730.0 1.1056e-05
12750.0 1.0895e-05
12770.0 1.0713e-05
12790.0 1.0518e-05
12810.0 1.0305e-05
12830.0 1.0075e-05
12850.0 9.8429e-06
12870.0 9.6043e-06
12890.0 9.3514e-06
12910.0 9.0951e-06
12930.0 8.8406e-06
12950.0 8.573e-06
12970.0 8.2958e-06
12990.0 8.0266e-06
13010.0 7.7547e-06
13030.0 7.4738e-06
13050.0 7.1976e-06
13070.0 6.9335e-06
13090.0 6.6655e-06
13110.0 6.404e-06
13130.0 6.1618e-06
13150.0 5.9334e-06
13170.0 5.7134e-06
13190.0 5.5214e-06
13210.0 5.357e-06
13230.0 5.2135e-06
13250.0 5.0975e-06
13270.0 5.0131e-06
13290.0 4.9561e-06
13310.0 4.9281e-06
13330.0 4.9296e-06
13350.0 4.9565e-06
13370.0 5.0098e-06
13390.0 5.0879e-06
13410.0 5.1781e-06
13430.0 5.2845e-06
13450.0 5.4056e-06
13470.0 5.5302e-06
13490.0 5.6535e-06
13510.0 5.7852e-06
13530.0 5.9104e-06
13550.0 6.0231e-06
13570.0 6.1283e-06
13590.0 6.2252e-06
13610.0 6.3054e-06
13630.0 6.37e-06
13650.0 6.4244e-06
13670.0 6.4636e-06
13690.0 6.4876e-06
13710.0 6.4993e-06
13730.0 6.4991e-06
13750.0 6.486e-06
13770.0 6.4627e-06
13790.0 6.4293e-06
13810.0 6.3868e-06
13830.0 6.3376e-06
13850.0 6.2801e-06
13870.0 6.2145e-06
13890.0 6.1444e-06
13910.0 6.0694e-06
13930.0 5.9867e-06
13950.0 5.8999e-06
13970.0 5.8137e-06
13990.0 5.7228e-06
14010.0 5.6292e-06
14030.0 5.5382e-06
14050.0 5.4491e-06
14070.0 5.3582e-06
14090.0 5.2736e-06
14110.0 5.1966e-06
14130.0 5.1247e-06
14150.0 5.06e-06
14170.0 5.0072e-06
14190.0 4.9643e-06
14210.0 4.9313e-06
14230.0 4.9107e-06
14250.0 4.9017e-06
14270.0 4.9047e-06
14290.0 4.9203e-06
14310.0 4.946e-06
14330.0 4.9817e-06
14350.0 5.0283e-06
14370.0 5.0821e-06
14390.0 5.1403e-06
14410.0 5.2066e-06
14430.0 5.2776e-06
14450.0 5.3491e-06
14470.0 5.4231e-06
14490.0 5.5029e-06
14510.0 5.5815e-06
14530.0 5.6599e-06
14550.0 5.7441e-06
14570.0 5.8333e-06
14590.0 5.9243e-06
14610.0 6.0241e-06
14630.0 6.1376e-06
14650.0 6.2584e-06
14670.0 6.3888e-06
14690.0 6.5371e-06
14710.0 6.7021e-06
14730.0 6.8705e-06
14750.0 7.0546e-06
14770.0 7.2551e-06
14790.0 7.4592e-06
14810.0 7.664e-06
14830.0 7.8851e-06
14850.0 8.1017e-06
14870.0 8.3054e-06
14890.0 8.5035e-06
14910.0 8.6928e-06
14930.0 8.8574e-06
14950.0 8.9977e-06
14970.0 9.1188e-06
14990.0 9.2112e-06
15010.0 9.275e-06
15030.0 9.3163e-06
15050.0 9.3373e-06
15070.0 9.3414e-06
15090.0 9.335e-06
15110.0 9.3211e-06
15130.0 9.303e-06
15150.0 9.2838e-06
15170.0 9.2626e-06
15190.0 9.2406e-06
15210.0 9.2194e-06
15230.0 9.1984e-06
15250.0 9.1765e-06
15270.0 9.1548e-06
15290.0 9.1346e-06
15310.0 9.1137e-06
15330.0 9.0924e-06
15350.0 9.0721e-06
15370.0 9.052e-06
15390.0 9.0305e-06
15410.0 9.0099e-06
15430.0 8.9901e-06
15450.0 8.9696e-06
15470.0 8.9485e-06
15490.0 8.9288e-06
15510.0 8.9091e-06
15530.0 8.8884e-06
15550.0 8.8682e-06
15570.0 8.8488e-06
15590.0 8.8282e-06
15610.0 8.8073e-06
15630.0 8.7876e-06
15650.0 8.7678e-06
15670.0 8.7471e-06
15690.0 8.7269e-06
15710.0 8.7075e-06
15730.0 8.6869e-06
15750.0 8.6662e-06
15770.0 8.6463e-06
15790.0 8.6262e-06
15810.0 8.6048e-06
15830.0 8.5843e-06
15850.0 8.5645e-06
15870.0 8.5436e-06
15890.0 8.5226e-06
15910.0 8.5025e-06
15930.0 8.4818e-06
15950.0 8.46e-06
15970.0 8.4391e-06
15990.0 8.4185e-06
16010.0 8.3968e-06
16030.0 8.3748e-06
16050.0 8.3542e-06
16070.0 8.3328e-06
16090.0 8.3106e-06
16110.0 8.2891e-06
16130.0 8.2679e-06
16150.0 8.245e-06
16170.0 8.2224e-06
16190.0 8.2007e-06
16210.0 8.1783e-06
16230.0 8.1551e-06
16250.0 8.1327e-06
16270.0 8.1106e-06
16290.0 8.0871e-06
16310.0 8.0638e-06
16330.0 8.0411e-06
16350.0 8.0177e-06
16370.0 7.993e-06
16390.0 7.9697e-06
16410.0 7.9463e-06
16430.0 7.9219e-06
16450.0 7.8975e-06
16470.0 7.8741e-06
16490.0 7.8494e-06
16510.0 7.8241e-06
16530.0 7.7996e-06
16550.0 7.775e-06
16570.0 7.7492e-06
16590.0 7.7235e-06
16610.0 7.6989e-06
16630.0 7.6732e-06
16650.0 7.647e-06
16670.0 7.6216e-06
16690.0 7.596e-06
16710.0 7.5688e-06
16730.0 7.5423e-06
16750.0 7.5163e-06
16770.0 7.4893e-06
16790.0 7.4618e-06
16810.0 7.4353e-06
16830.0 7.4085e-06
16850.0 7.3806e-06
16870.0 7.3531e-06
16890.0 7.3262e-06
16910.0 7.2978e-06
16930.0 7.2691e-06
16950.0 7.2415e-06
16970.0 7.2135e-06
16990.0 7.1845e-06
17010.0 7.156e-06
17030.0 7.1281e-06
17050.0 7.0988e-06
17070.0 7.0694e-06
17090.0 7.0408e-06
17110.0 7.0117e-06
17130.0 6.9813e-06
17150.0 6.9518e-06
17170.0 6.9228e-06
17190.0 6.8927e-06
17210.0 6.8625e-06
17230.0 6.8332e-06
17250.0 6.803e-06
17270.0 6.7719e-06
17290.0 6.7416e-06
17310.0 6.7116e-06
17330.0 6.6804e-06
17350.0 6.6491e-06
17370.0 6.619e-06
17390.0 6.5882e-06
17410.0 6.5566e-06
17430.0 6.5257e-06
17450.0 6.4951e-06
17470.0 6.4627e-06
17490.0 6.4309e-06
17510.0 6.4e-06
17530.0 6.3683e-06
17550.0 6.3359e-06
17570.0 6.3045e-06
17590.0 6.2732e-06
17610.0 6.2407e-06
17630.0 6.2085e-06
17650.0 6.177e-06
17670.0 6.1447e-06
17690.0 6.1113e-06
17710.0 6.0796e-06
17730.0 6.0476e-06
17750.0 6.0147e-06
17770.0 5.9821e-06
17790.0 5.9505e-06
17810.0 5.9175e-06
17830.0 5.8843e-06
17850.0 5.852e-06
17870.0 5.8196e-06
17890.0 5.7862e-06
17910.0 5.7531e-06
17930.0 5.7211e-06
17950.0 5.6882e-06
17970.0 5.6549e-06
17990.0 5.6225e-06
18010.0 5.59e-06
18030.0 5.5561e-06
18050.0 5.5232e-06
18070.0 5.4908e-06
18090.0 5.4576e-06
18110.0 5.424e-06
18130.0 5.3917e-06
18150.0 5.3591e-06
18170.0 5.3256e-06
18190.0 5.2927e-06
18210.0 5.2604e-06
18230.0 5.2269e-06
18250.0 5.1933e-06
18270.0 5.161e-06
18290.0 5.1283e-06
18310.0 5.0948e-06
18330.0 5.0622e-06
18350.0 5.0301e-06
18370.0 4.9968e-06
18390.0 4.9636e-06
18410.0 4.9314e-06
18430.0 4.8988e-06
18450.0 4.8652e-06
18470.0 4.8328e-06
18490.0 4.8008e-06
18510.0 4.7679e-06
18530.0 4.7352e-06
18550.0 4.7034e-06
18570.0 4.671e-06
18590.0 4.6379e-06
18610.0 4.6057e-06
18630.0 4.5739e-06
18650.0 4.5413e-06
18670.0 4.5086e-06
18690.0 4.4774e-06
18710.0 4.4454e-06
18730.0 4.413e-06
18750.0 4.3814e-06
18770.0 4.3501e-06
18790.0 4.3175e-06
18810.0 4.2855e-06
18830.0 4.2545e-06
18850.0 4.2229e-06
18870.0 4.1909e-06
18890.0 4.1599e-06
18910.0 4.1291e-06
18930.0 4.0973e-06
18950.0 4.066e-06
18970.0 4.0355e-06
18990.0 4.0044e-06
19010.0 3.9724e-06
19030.0 3.9422e-06
19050.0 3.9118e-06
19070.0 3.8807e-06
19090.0 3.8501e-06
19110.0 3.8204e-06
19130.0 3.7896e-06
19150.0 3.7588e-06
19170.0 3.7289e-06
19190.0 3.6991e-06
19210.0 3.6684e-06
19230.0 3.6383e-06
19250.0 3.6091e-06
19270.0 3.5792e-06
19290.0 3.5492e-06
19310.0 3.5202e-06
19330.0 3.491e-06
19350.0 3.4607e-06
19370.0 3.4315e-06
19390.0 3.4028e-06
19410.0 3.3735e-06
19430.0 3.344e-06
19450.0 3.3158e-06
19470.0 3.2872e-06
19490.0 3.258e-06
19510.0 3.2296e-06
19530.0 3.2016e-06
19550.0 3.1727e-06
19570.0 3.1439e-06
19590.0 3.1163e-06
19610.0 3.0883e-06
19630.0 3.0599e-06
19650.0 3.0322e-06
19670.0 3.0051e-06
19690.0 2.9769e-06
19710.0 2.9491e-06
19730.0 2.922e-06
19750.0 2.8947e-06
19770.0 2.8666e-06
19790.0 2.8397e-06
19810.0 2.8131e-06
19830.0 2.7858e-06
19850.0 2.7586e-06
19870.0 2.732e-06
19890.0 2.7044e-06
19910.0 2.6752e-06
19930.0 2.6455e-06
19950.0 2.6139e-06
19970.0 2.5781e-06
19990.0 2.5384e-06
20010.0 2.5343e-06
20030.0 2.4859e-06
20050.0 2.4325e-06
20070.0 2.3776e-06
20090.0 2.3212e-06
20110.0 2.2605e-06
20130.0 2.2015e-06
20150.0 2.1454e-06
20170.0 2.0893e-06
20190.0 2.0346e-06
20210.0 1.9845e-06
20230.0 1.9372e-06
20250.0 1.8912e-06
20270.0 1.8497e-06
20290.0 1.8127e-06
20310.0 1.7786e-06
20330.0 1.7477e-06
20350.0 1.7229e-06
20370.0 1.7018e-06
20390.0 1.6845e-06
20410.0 1.6717e-06
20430.0 1.6632e-06
20450.0 1.6584e-06
20470.0 1.6577e-06
20490.0 1.6606e-06
20510.0 1.6668e-06
20530.0 1.6766e-06
20550.0 1.689e-06
20570.0 1.7032e-06
20590.0 1.7202e-06
20610.0 1.7391e-06
20630.0 1.7587e-06
20650.0 1.7796e-06
20670.0 1.8026e-06
20690.0 1.8251e-06
20710.0 1.8475e-06
20730.0 1.871e-06
20750.0 1.8946e-06
20770.0 1.917e-06
20790.0 1.9398e-06
20810.0 1.9634e-06
20830.0 1.9863e-06
20850.0 2.0089e-06
20870.0 2.033e-06
20890.0 2.0574e-06
20910.0 2.0808e-06
20930.0 2.1053e-06
20950.0 2.1309e-06
20970.0 2.1561e-06
20990.0 2.1812e-06
21010.0 2.2079e-06
21030.0 2.2342e-06
21050.0 2.2595e-06
21070.0 2.2847e-06
21090.0 2.3102e-06
21110.0 2.3332e-06
21130.0 2.3548e-06
21150.0 2.3756e-06
21170.0 2.3944e-06
21190.0 2.4104e-06
21210.0 2.425e-06
21230.0 2.4374e-06
21250.0 2.4465e-06
21270.0 2.4531e-06
21290.0 2.457e-06
21310.0 2.4578e-06
21330.0 2.4556e-06
21350.0 2.4502e-06
21370.0 2.4415e-06
21390.0 2.4298e-06
21410.0 2.4149e-06
21430.0 2.3957e-06
21450.0 2.3737e-06
21470.0 2.3492e-06
21490.0 2.3212e-06
21510.0 2.2899e-06
21530.0 2.2575e-06
21550.0 2.2229e-06
21570.0 2.1854e-06
21590.0 2.1476e-06
21610.0 2.1102e-06
21630.0 2.0717e-06
21650.0 2.033e-06
21670.0 1.9981e-06
21690.0 1.9646e-06
21710.0 1.9327e-06
21730.0 1.9045e-06
21750.0 1.8806e-06
21770.0 1.8593e-06
21790.0 1.8426e-06
21810.0 1.8309e-06
21830.0 1.8236e-06
21850.0 1.821e-06
21870.0 1.8232e-06
21890.0 1.8297e-06
21910.0 1.8409e-06
21930.0 1.8564e-06
21950.0 1.8752e-06
21970.0 1.8979e-06
21990.0 1.9253e-06
22010.0 1.9545e-06
22030.0 1.9857e-06
22050.0 2.0203e-06
22070.0 2.0568e-06
22090.0 2.0929e-06
22110.0 2.1308e-06
22130.0 2.1701e-06
22150.0 2.2083e-06
22170.0 2.2454e-06
22190.0 2.2833e-06
22210.0 2.3195e-06
22230.0 2.3519e-06
22250.0 2.3827e-06
22270.0 2.4113e-06
22290.0 2.4357e-06
22310.0 2.4562e-06
22330.0 2.4737e-06
22350.0 2.4864e-06
22370.0 2.4942e-06
22390.0 2.4975e-06
22410.0 2.4956e-06
22430.0 2.4887e-06
22450.0 2.4771e-06
22470.0 2.46e-06
22490.0 2.438e-06
22510.0 2.4123e-06
22530.0 2.3808e-06
22550.0 2.344e-06
22570.0 2.3046e-06
22590.0 2.2614e-06
22610.0 2.2129e-06
22630.0 2.1617e-06
