#lamb flux
1010.0 5.6299e-06
1030.0 5.9938e-06
1050.0 6.4142e-06
1070.0 6.888e-06
1090.0 7.4265e-06
1110.0 7.9802e-06
1130.0 8.5389e-06
1150.0 9.1257e-06
1170.0 9.7328e-06
1190.0 1.0311e-05
1210.0 1.0899e-05
1230.0 1.1509e-05
1250.0 1.2109e-05
1270.0 1.2696e-05
1290.0 1.3317e-05
1310.0 1.3942e-05
1330.0 1.4544e-05
1350.0 1.5157e-05
1370.0 1.5793e-05
1390.0 1.6417e-05
1410.0 1.7027e-05
1430.0 1.7668e-05
1450.0 1.8312e-05
1470.0 1.894e-05
1490.0 1.9579e-05
1510.0 2.0254e-05
1530.0 2.09e-05
1550.0 2.1541e-05
1570.0 2.2205e-05
1590.0 2.2871e-05
1610.0 2.3512e-05
1630.0 2.4172e-05
1650.0 2.4848e-05
1670.0 2.5504e-05
1690.0 2.615e-05
1710.0 2.6816e-05
1730.0 2.7483e-05
1750.0 2.8108e-05
1770.0 2.8744e-05
1790.0 2.9387e-05
1810.0 3.0001e-05
1830.0 3.0596e-05
1850.0 3.1218e-05
1870.0 3.1812e-05
1890.0 3.2374e-05
1910.0 3.2935e-05
1930.0 3.3498e-05
1950.0 3.4018e-05
1970.0 3.4516e-05
1990.0 3.5022e-05
2010.0 3.5503e-05
2030.0 3.5948e-05
2050.0 3.6396e-05
2070.0 3.6844e-05
2090.0 3.7245e-05
2110.0 3.7631e-05
2130.0 3.8023e-05
2150.0 3.8393e-05
2170.0 3.873e-05
2190.0 3.9079e-05
2210.0 3.9425e-05
2230.0 3.9744e-05
2250.0 4.0058e-05
2270.0 4.0395e-05
2290.0 4.0714e-05
2310.0 4.1015e-05
2330.0 4.1336e-05
2350.0 4.1668e-05
2370.0 4.1985e-05
2390.0 4.2317e-05
2410.0 4.2686e-05
2430.0 4.3051e-05
2450.0 4.3421e-05
2470.0 4.3831e-05
2490.0 4.4297e-05
2510.0 4.4828e-05
2530.0 4.5576e-05
2550.0 4.679e-05
2570.0 4.8746e-05
2590.0 5.1777e-05
2610.0 5.6713e-05
2630.0 6.3823e-05
2650.0 7.2802e-05
2670.0 8.3795e-05
2690.0 9.6487e-05
2710.0 0.00010927
2730.0 0.00012133
2750.0 0.00013287
2770.0 0.00014295
2790.0 0.0001514
2810.0 0.00015895
2830.0 0.00016617
2850.0 0.00017276
2870.0 0.00017932
2890.0 0.00018627
2910.0 0.00019347
2930.0 0.00020072
2950.0 0.00020848
2970.0 0.00021669
2990.0 0.00022498
3010.0 0.00079609
3030.0 0.00082649
3050.0 0.00085674
3070.0 0.00088402
3090.0 0.00090714
3110.0 0.00091973
3130.0 0.00091428
3150.0 0.00088269
3170.0 0.00080865
3190.0 0.00069075
3210.0 0.00053121
3230.0 0.00035217
3250.0 0.0005399
3270.0 0.00033764
3290.0 0.00077721
3310.0 0.00030638
3330.0 0.0003033
3350.0 0.00036325
3370.0 0.00043495
3390.0 0.00051335
3410.0 0.00059191
3430.0 0.0006747
3450.0 0.00075827
3470.0 0.00083537
3490.0 0.00088935
3510.0 0.0010679
3530.0 0.0013829
3550.0 0.0013471
3570.0 0.0011108
3590.0 0.0015036
3610.0 0.00097315
3630.0 0.0015847
3650.0 0.0018459
3670.0 0.0023471
3690.0 0.0021793
3710.0 0.0014593
3730.0 0.0018834
3750.0 0.0019285
3770.0 0.0020698
3790.0 0.0020084
3810.0 0.0020676
3830.0 0.0032496
3850.0 0.0039888
3870.0 0.0049189
3890.0 0.0047803
3910.0 0.0042725
3930.0 0.0043275
3950.0 0.0046744
3970.0 0.0051541
3990.0 0.0033048
4010.0 0.0017889
4030.0 0.0031812
4050.0 0.0042078
4070.0 0.0045015
4090.0 0.0031486
4110.0 0.001993
4130.0 0.0032778
4150.0 0.0033465
4170.0 0.003115
4190.0 0.0028265
4210.0 0.0040007
4230.0 0.0029474
4250.0 0.0031933
4270.0 0.0031725
4290.0 0.0030057
4310.0 0.003853
4330.0 0.0041635
4350.0 0.003469
4370.0 0.0029284
4390.0 0.0035691
4410.0 0.0036554
4430.0 0.0026876
4450.0 0.0024386
4470.0 0.0030138
4490.0 0.0023058
4510.0 0.0032186
4530.0 0.0033451
4550.0 0.0039697
4570.0 0.0055964
4590.0 0.0055345
4610.0 0.0043882
4630.0 0.0070033
4650.0 0.0093328
4670.0 0.0089002
4690.0 0.0062937
4710.0 0.006674
4730.0 0.0075598
4750.0 0.0062278
4770.0 0.004761
4790.0 0.0032132
4810.0 0.0043859
4830.0 0.0051655
4850.0 0.0045404
4870.0 0.0019087
4890.0 0.0051523
4910.0 0.0067549
4930.0 0.0073416
4950.0 0.007565
4970.0 0.0053139
4990.0 0.006184
5010.0 0.0071826
5030.0 0.0076989
5050.0 0.0071873
5070.0 0.0050824
5090.0 0.0041236
5110.0 0.0039864
5130.0 0.0037876
5150.0 0.0039452
5170.0 0.0035204
5190.0 0.0041972
5210.0 0.0042599
5230.0 0.0047143
5250.0 0.0055926
5270.0 0.0046325
5290.0 0.0048131
5310.0 0.0070677
5330.0 0.0081171
5350.0 0.0068059
5370.0 0.0061133
5390.0 0.007086
5410.0 0.0084476
5430.0 0.0089902
5450.0 0.0094473
5470.0 0.0095012
5490.0 0.0097745
5510.0 0.011688
5530.0 0.012128
5550.0 0.012792
5570.0 0.013417
5590.0 0.013173
5610.0 0.012319
5630.0 0.012014
5650.0 0.012411
5670.0 0.012113
5690.0 0.010359
5710.0 0.010235
5730.0 0.010239
5750.0 0.010635
5770.0 0.0091489
5790.0 0.0087175
5810.0 0.0089205
5830.0 0.0096159
5850.0 0.0089421
5870.0 0.0089743
5890.0 0.010453
5910.0 0.0097405
5930.0 0.0080339
5950.0 0.0072484
5970.0 0.0078897
5990.0 0.007155
6010.0 0.0065364
6030.0 0.0064099
6050.0 0.0058708
6070.0 0.004549
6090.0 0.0043261
6110.0 0.00555
6130.0 0.0062282
6150.0 0.006433
6170.0 0.0062564
6190.0 0.0059671
6210.0 0.0062218
6230.0 0.0075503
6250.0 0.0069765
6270.0 0.0062726
6290.0 0.0057018
6310.0 0.0051645
6330.0 0.0047908
6350.0 0.0042819
6370.0 0.0043399
6390.0 0.00505
6410.0 0.0062704
6430.0 0.0074118
6450.0 0.0074403
6470.0 0.0075233
6490.0 0.0091882
6510.0 0.010549
6530.0 0.010024
6550.0 0.0095111
6570.0 0.0096483
6590.0 0.0095093
6610.0 0.010065
6630.0 0.0093858
6650.0 0.0081548
6670.0 0.0075226
6690.0 0.0074574
6710.0 0.0088272
6730.0 0.0078598
6750.0 0.0064648
6770.0 0.0058358
6790.0 0.0062
6810.0 0.00712
6830.0 0.0070868
6850.0 0.006356
6870.0 0.0065831
6890.0 0.0065426
6910.0 0.0061487
6930.0 0.0068266
6950.0 0.0063503
6970.0 0.0059157
6990.0 0.0058971
7010.0 0.0059404
7030.0 0.0057701
7050.0 0.005525
7070.0 0.0059259
7090.0 0.0055194
7110.0 0.0046797
7130.0 0.0040196
7150.0 0.0039473
7170.0 0.0049839
7190.0 0.0052838
7210.0 0.0050101
7230.0 0.005269
7250.0 0.0051176
7270.0 0.004992
7290.0 0.0054078
7310.0 0.005928
7330.0 0.0057757
7350.0 0.0053585
7370.0 0.004957
7390.0 0.0049719
7410.0 0.0057126
7430.0 0.0064321
7450.0 0.0068482
7470.0 0.0069462
7490.0 0.007727
7510.0 0.007639
7530.0 0.0069234
7550.0 0.0065603
7570.0 0.0056747
7590.0 0.0054077
7610.0 0.0052282
7630.0 0.0048206
7650.0 0.0051834
7670.0 0.0057477
7690.0 0.0062632
7710.0 0.0071531
7730.0 0.0075095
7750.0 0.0078094
7770.0 0.0081248
7790.0 0.0088212
7810.0 0.0088941
7830.0 0.0079891
7850.0 0.0080286
7870.0 0.0077374
7890.0 0.0079291
7910.0 0.0074744
7930.0 0.0074264
7950.0 0.0062414
7970.0 0.006267
7990.0 0.0060616
8010.0 0.0065909
8030.0 0.0065681
8050.0 0.0069819
8070.0 0.0067029
8090.0 0.0067349
8110.0 0.0066346
8130.0 0.0065626
8150.0 0.0061651
8170.0 0.0060509
8190.0 0.0060376
8210.0 0.0060987
8230.0 0.0053365
8250.0 0.0048809
8270.0 0.0043152
8290.0 0.0036702
8310.0 0.0032341
8330.0 0.0025626
8350.0 0.0020755
8370.0 0.0020045
8390.0 0.001944
8410.0 0.0020351
8430.0 0.0026185
8450.0 0.0028526
8470.0 0.0030711
8490.0 0.0035949
8510.0 0.0039132
8530.0 0.0044511
8550.0 0.0052667
8570.0 0.0057868
8590.0 0.0060877
8610.0 0.0067632
8630.0 0.007696
8650.0 0.0078969
8670.0 0.0080636
8690.0 0.0083695
8710.0 0.0082089
8730.0 0.0079516
8750.0 0.0073287
8770.0 0.0073324
8790.0 0.00723
8810.0 0.0066502
8830.0 0.0066595
8850.0 0.0061002
8870.0 0.0058177
8890.0 0.005213
8910.0 0.005812
8930.0 0.0052581
8950.0 0.0052726
8970.0 0.0053851
8990.0 0.0052306
9010.0 0.0053725
9030.0 0.0051
9050.0 0.0050753
9070.0 0.0050775
9090.0 0.0050786
9110.0 0.0050832
9130.0 0.0050829
9150.0 0.0050801
9170.0 0.0050634
9190.0 0.0050263
9210.0 0.0051058
9230.0 0.0050833
9250.0 0.0050703
9270.0 0.0050594
9290.0 0.0050496
9310.0 0.0050405
9330.0 0.0050317
9350.0 0.0050228
9370.0 0.0050137
9390.0 0.0050041
9410.0 0.0049942
9430.0 0.0049841
9450.0 0.0049733
9470.0 0.0049622
9490.0 0.004951
9510.0 0.0049393
9530.0 0.0049273
9550.0 0.0049153
9570.0 0.0049031
9590.0 0.0048906
9610.0 0.004878
9630.0 0.0048655
9650.0 0.0048528
9670.0 0.0048398
9690.0 0.0048271
9710.0 0.0048144
9730.0 0.0048015
9750.0 0.0047887
9770.0 0.0047764
9790.0 0.0047639
9810.0 0.0047513
9830.0 0.0047391
9850.0 0.0047272
9870.0 0.004715
9890.0 0.0047032
9910.0 0.0046918
9930.0 0.0046804
9950.0 0.0046618
9970.0 0.0046533
9990.0 0.0046448
10010.0 0.0046357
10030.0 0.0046265
10050.0 0.0046157
10070.0 0.004596
10090.0 0.0045905
10110.0 0.0045849
10130.0 0.0045786
10150.0 0.004572
10170.0 0.004565
10190.0 0.0045576
10210.0 0.0045507
10230.0 0.0045442
10250.0 0.0045375
10270.0 0.0045312
10290.0 0.0045256
10310.0 0.00452
10330.0 0.0045145
10350.0 0.0045097
10370.0 0.0045052
10390.0 0.0045008
10410.0 0.0044968
10430.0 0.0044935
10450.0 0.0044902
10470.0 0.004487
10490.0 0.0044845
10510.0 0.0044823
10530.0 0.00448
10550.0 0.0044781
10570.0 0.0044769
10590.0 0.0044757
10610.0 0.0044747
10630.0 0.0044742
10650.0 0.0044739
10670.0 0.0044737
10690.0 0.0044739
10710.0 0.0044744
10730.0 0.0044751
10750.0 0.0044759
10770.0 0.0044772
10790.0 0.0044787
10810.0 0.0044802
10830.0 0.0044818
10850.0 0.0044835
10870.0 0.0044841
10890.0 0.0044831
10910.0 0.0044794
10930.0 0.0044704
10950.0 0.0044525
10970.0 0.0044237
10990.0 0.0043832
11010.0 0.0044591
11030.0 0.0043813
11050.0 0.00429
11070.0 0.0041841
11090.0 0.0040614
11110.0 0.003939
11130.0 0.0038166
11150.0 0.0036912
11170.0 0.0035693
11190.0 0.0034584
11210.0 0.0033514
11230.0 0.0032496
11250.0 0.0031595
11270.0 0.0030791
11290.0 0.0030038
11310.0 0.0029368
11330.0 0.0028804
11350.0 0.0028282
11370.0 0.0027797
11390.0 0.0027361
11410.0 0.002695
11430.0 0.0026524
11450.0 0.0026101
11470.0 0.0025679
11490.0 0.0025229
11510.0 0.002474
11530.0 0.0024248
11550.0 0.0023737
11570.0 0.0023183
11590.0 0.0022616
11610.0 0.0022056
11630.0 0.0021465
11650.0 0.0020856
11670.0 0.0020277
11690.0 0.0019705
11710.0 0.0019124
11730.0 0.0018564
11750.0 0.0018043
11770.0 0.0017521
11790.0 0.0017014
11810.0 0.0016544
11830.0 0.0016097
11850.0 0.0015646
11870.0 0.0015229
11890.0 0.0014844
11910.0 0.0014461
11930.0 0.0014088
11950.0 0.0013742
11970.0 0.0013402
11990.0 0.0013057
12010.0 0.001273
12030.0 0.0012418
12050.0 0.0012106
12070.0 0.0011797
12090.0 0.0011521
12110.0 0.0011255
12130.0 0.0011
12150.0 0.0010774
12170.0 0.0010581
12190.0 0.0010408
12210.0 0.0010274
12230.0 0.0010185
12250.0 0.0010138
12270.0 0.0010139
12290.0 0.0010189
12310.0 0.0010286
12330.0 0.0010435
12350.0 0.001063
12370.0 0.001086
12390.0 0.0011126
12410.0 0.0011435
12430.0 0.0011748
12450.0 0.0012067
12470.0 0.0012398
12490.0 0.0012722
12510.0 0.001302
12530.0 0.0013307
12550.0 0.0013575
12570.0 0.0013807
12590.0 0.0014008
12610.0 0.0014185
12630.0 0.0014329
12650.0 0.0014438
12670.0 0.0014522
12690.0 0.001458
12710.0 0.0014613
12730.0 0.0014625
12750.0 0.0014615
12770.0 0.0014587
12790.0 0.0014544
12810.0 0.0014484
12830.0 0.0014405
12850.0 0.0014316
12870.0 0.0014214
12890.0 0.0014089
12910.0 0.001395
12930.0 0.00138
12950.0 0.0013626
12970.0 0.0013427
12990.0 0.0013222
13010.0 0.0013001
13030.0 0.0012755
13050.0 0.0012501
13070.0 0.0012249
13090.0 0.0011979
13110.0 0.0011705
13130.0 0.0011444
13150.0 0.0011191
13170.0 0.0010938
13190.0 0.0010712
13210.0 0.0010516
13230.0 0.0010339
13250.0 0.0010189
13270.0 0.0010075
13290.0 0.00099887
13310.0 0.0009928
13330.0 0.00098968
13350.0 0.00098884
13370.0 0.00098972
13390.0 0.00099188
13410.0 0.00099464
13430.0 0.00099743
13450.0 0.00099971
13470.0 0.001001
13490.0 0.0010009
13510.0 0.00099912
13530.0 0.0009955
13550.0 0.00099037
13570.0 0.00098361
13590.0 0.00097524
13610.0 0.00096614
13630.0 0.00095667
13650.0 0.00094644
13670.0 0.00093629
13690.0 0.00092679
13710.0 0.0009176
13730.0 0.00090863
13750.0 0.00090087
13770.0 0.0008938
13790.0 0.00088704
13810.0 0.00088076
13830.0 0.00087498
13850.0 0.00086909
13870.0 0.00086299
13890.0 0.00085684
13910.0 0.00085042
13930.0 0.00084335
13950.0 0.0008359
13970.0 0.00082849
13990.0 0.00082066
14010.0 0.00081263
14030.0 0.00080495
14050.0 0.00079758
14070.0 0.00079029
14090.0 0.00078379
14110.0 0.00077813
14130.0 0.00077312
14150.0 0.00076889
14170.0 0.00076563
14190.0 0.00076317
14210.0 0.0007615
14230.0 0.00076067
14250.0 0.00076057
14270.0 0.00076132
14290.0 0.00076294
14310.0 0.00076518
14330.0 0.00076815
14350.0 0.00077199
14370.0 0.00077637
14390.0 0.00078104
14410.0 0.00078641
14430.0 0.00079213
14450.0 0.00079776
14470.0 0.00080349
14490.0 0.00080957
14510.0 0.00081529
14530.0 0.00082071
14550.0 0.00082637
14570.0 0.00083217
14590.0 0.00083785
14610.0 0.00084406
14630.0 0.00085124
14650.0 0.00085894
14670.0 0.00086744
14690.0 0.0008775
14710.0 0.00088916
14730.0 0.00090134
14750.0 0.0009152
14770.0 0.0009309
14790.0 0.00094738
14810.0 0.00096439
14830.0 0.00098353
14850.0 0.0010028
14870.0 0.0010214
14890.0 0.00104
14910.0 0.0010582
14930.0 0.0010741
14950.0 0.0010876
14970.0 0.0010993
14990.0 0.0011077
15010.0 0.0011127
15030.0 0.001115
15050.0 0.0011148
15070.0 0.0011123
15090.0 0.0011085
15110.0 0.0011037
15130.0 0.0010984
15150.0 0.0010928
15170.0 0.001087
15190.0 0.0010811
15210.0 0.0010752
15230.0 0.0010694
15250.0 0.0010635
15270.0 0.0010576
15290.0 0.0010518
15310.0 0.001046
15330.0 0.0010402
15350.0 0.0010344
15370.0 0.0010287
15390.0 0.0010228
15410.0 0.0010171
15430.0 0.0010114
15450.0 0.0010057
15470.0 0.00099999
15490.0 0.00099438
15510.0 0.00098879
15530.0 0.00098314
15550.0 0.00097756
15570.0 0.00097206
15590.0 0.00096649
15610.0 0.00096092
15630.0 0.00095548
15650.0 0.00095005
15670.0 0.00094458
15690.0 0.00093918
15710.0 0.00093388
15730.0 0.0009285
15750.0 0.00092315
15770.0 0.00091791
15790.0 0.00091267
15810.0 0.00090736
15830.0 0.00090217
15850.0 0.00089706
15870.0 0.0008919
15890.0 0.00088677
15910.0 0.00088175
15930.0 0.00087672
15950.0 0.00087164
15970.0 0.00086667
15990.0 0.00086176
16010.0 0.0008568
16030.0 0.00085186
16050.0 0.00084707
16070.0 0.00084226
16090.0 0.00083742
16110.0 0.00083268
16130.0 0.00082801
16150.0 0.00082324
16170.0 0.00081854
16190.0 0.00081395
16210.0 0.00080935
16230.0 0.00080472
16250.0 0.0008002
16270.0 0.00079574
16290.0 0.00079122
16310.0 0.00078675
16330.0 0.00078238
16350.0 0.00077799
16370.0 0.00077354
16390.0 0.00076925
16410.0 0.00076499
16430.0 0.00076068
16450.0 0.00075643
16470.0 0.00075229
16490.0 0.00074808
16510.0 0.00074388
16530.0 0.00073978
16550.0 0.00073572
16570.0 0.00073159
16590.0 0.00072752
16610.0 0.00072358
16630.0 0.00071959
16650.0 0.00071559
16670.0 0.0007117
16690.0 0.00070784
16710.0 0.00070388
16730.0 0.00070002
16750.0 0.00069625
16770.0 0.00069243
16790.0 0.0006886
16810.0 0.0006849
16830.0 0.00068121
16850.0 0.00067747
16870.0 0.00067379
16890.0 0.0006702
16910.0 0.00066653
16930.0 0.00066287
16950.0 0.00065933
16970.0 0.0006558
16990.0 0.00065222
17010.0 0.00064871
17030.0 0.00064529
17050.0 0.00064179
17070.0 0.00063831
17090.0 0.00063492
17110.0 0.00063154
17130.0 0.00062807
17150.0 0.00062472
17170.0 0.00062143
17190.0 0.00061809
17210.0 0.00061477
17230.0 0.00061155
17250.0 0.00060829
17270.0 0.00060498
17290.0 0.00060177
17310.0 0.00059861
17330.0 0.00059539
17350.0 0.00059217
17370.0 0.00058909
17390.0 0.00058597
17410.0 0.00058281
17430.0 0.00057974
17450.0 0.00057672
17470.0 0.00057358
17490.0 0.00057051
17510.0 0.00056753
17530.0 0.00056452
17550.0 0.00056148
17570.0 0.00055853
17590.0 0.00055562
17610.0 0.00055263
17630.0 0.00054969
17650.0 0.00054682
17670.0 0.00054392
17690.0 0.00054094
17710.0 0.00053811
17730.0 0.00053529
17750.0 0.00053242
17770.0 0.00052958
17790.0 0.00052684
17810.0 0.00052402
17830.0 0.00052119
17850.0 0.00051845
17870.0 0.00051572
17890.0 0.00051292
17910.0 0.00051017
17930.0 0.00050752
17950.0 0.00050481
17970.0 0.00050209
17990.0 0.00049946
18010.0 0.00049683
18030.0 0.0004941
18050.0 0.00049146
18070.0 0.00048888
18090.0 0.00048625
18110.0 0.0004836
18130.0 0.00048107
18150.0 0.00047852
18170.0 0.00047591
18190.0 0.00047337
18210.0 0.00047088
18230.0 0.00046831
18250.0 0.00046573
18270.0 0.00046328
18290.0 0.0004608
18310.0 0.00045828
18330.0 0.00045582
18350.0 0.00045342
18370.0 0.00045093
18390.0 0.00044847
18410.0 0.00044608
18430.0 0.00044368
18450.0 0.0004412
18470.0 0.00043882
18490.0 0.00043648
18510.0 0.00043409
18530.0 0.00043171
18550.0 0.00042941
18570.0 0.00042707
18590.0 0.00042468
18610.0 0.00042237
18630.0 0.0004201
18650.0 0.00041776
18670.0 0.00041543
18690.0 0.00041322
18710.0 0.00041095
18730.0 0.00040865
18750.0 0.00040642
18770.0 0.00040423
18790.0 0.00040193
18810.0 0.00039968
18830.0 0.00039752
18850.0 0.00039531
18870.0 0.00039307
18890.0 0.00039092
18910.0 0.00038879
18930.0 0.00038658
18950.0 0.00038441
18970.0 0.00038231
18990.0 0.00038017
19010.0 0.00037795
19030.0 0.00037588
19050.0 0.0003738
19070.0 0.00037166
19090.0 0.00036956
19110.0 0.00036754
19130.0 0.00036543
19150.0 0.00036332
19170.0 0.00036129
19190.0 0.00035926
19210.0 0.00035716
19230.0 0.00035511
19250.0 0.00035315
19270.0 0.00035112
19290.0 0.00034908
19310.0 0.00034712
19330.0 0.00034515
19350.0 0.00034309
19370.0 0.00034111
19390.0 0.00033918
19410.0 0.0003372
19430.0 0.00033521
19450.0 0.00033331
19470.0 0.00033139
19490.0 0.00032942
19510.0 0.0003275
19530.0 0.00032563
19550.0 0.00032368
19570.0 0.00032172
19590.0 0.00031988
19610.0 0.000318
19630.0 0.00031608
19650.0 0.00031422
19670.0 0.00031241
19690.0 0.00031051
19710.0 0.00030863
19730.0 0.00030682
19750.0 0.00030499
19770.0 0.00030308
19790.0 0.00030128
19810.0 0.0002995
19830.0 0.00029765
19850.0 0.0002958
19870.0 0.00029399
19890.0 0.00029206
19910.0 0.00028993
19930.0 0.00028769
19950.0 0.00028514
19970.0 0.00028204
19990.0 0.00027839
20010.0 0.00027433
20030.0 0.00026954
20050.0 0.00026411
20070.0 0.00025845
20090.0 0.0002526
20110.0 0.00024628
20130.0 0.00024021
20150.0 0.00023451
20170.0 0.0002289
20190.0 0.00022351
20210.0 0.0002187
20230.0 0.00021425
20250.0 0.00021002
20270.0 0.00020631
20290.0 0.00020312
20310.0 0.00020028
20330.0 0.00019784
20350.0 0.00019603
20370.0 0.00019464
20390.0 0.00019371
20410.0 0.00019329
20430.0 0.00019335
20450.0 0.00019391
20470.0 0.00019498
20490.0 0.0001965
20510.0 0.00019848
20530.0 0.000201
20550.0 0.0002039
20570.0 0.00020704
20590.0 0.00021064
20610.0 0.00021452
20630.0 0.00021846
20650.0 0.00022257
20670.0 0.00022694
20690.0 0.00023109
20710.0 0.00023508
20730.0 0.00023903
20750.0 0.00024277
20770.0 0.00024608
20790.0 0.00024918
20810.0 0.00025205
20830.0 0.00025454
20850.0 0.00025672
20870.0 0.00025873
20890.0 0.00026049
20910.0 0.00026199
20930.0 0.00026337
20950.0 0.00026465
20970.0 0.00026578
20990.0 0.0002668
21010.0 0.00026776
21030.0 0.00026859
21050.0 0.00026926
21070.0 0.0002698
21090.0 0.00027016
21110.0 0.00027031
21130.0 0.00027027
21150.0 0.00027
21170.0 0.00026952
21190.0 0.00026886
21210.0 0.000268
21230.0 0.00026693
21250.0 0.00026578
21270.0 0.00026452
21290.0 0.00026314
21310.0 0.00026173
21330.0 0.00026038
21350.0 0.00025898
21370.0 0.00025762
21390.0 0.00025636
21410.0 0.0002552
21430.0 0.00025408
21450.0 0.00025313
21470.0 0.00025233
21490.0 0.00025166
21510.0 0.00025113
21530.0 0.00025077
21550.0 0.00025057
21570.0 0.00025052
21590.0 0.00025064
21610.0 0.00025092
21630.0 0.00025138
21650.0 0.00025204
21670.0 0.00025283
21690.0 0.00025381
21710.0 0.000255
21730.0 0.00025636
21750.0 0.00025786
21770.0 0.00025965
21790.0 0.00026163
21810.0 0.00026373
21830.0 0.00026604
21850.0 0.00026862
21870.0 0.00027131
21890.0 0.00027408
21910.0 0.00027711
21930.0 0.00028027
21950.0 0.00028343
21970.0 0.00028671
21990.0 0.00029021
22010.0 0.00029357
22030.0 0.00029687
22050.0 0.00030023
22070.0 0.0003035
22090.0 0.0003065
22110.0 0.0003094
22130.0 0.00031216
22150.0 0.00031457
22170.0 0.00031666
22190.0 0.0003185
22210.0 0.00031993
22230.0 0.00032089
22250.0 0.00032145
22270.0 0.00032153
22290.0 0.00032114
22310.0 0.00032028
22330.0 0.00031885
22350.0 0.00031693
22370.0 0.00031459
22390.0 0.00031172
22410.0 0.00030828
22430.0 0.00030457
22450.0 0.00030052
22470.0 0.00029595
22490.0 0.00029113
22510.0 0.00028622
22530.0 0.00028089
22550.0 0.00027529
22570.0 0.00026982
22590.0 0.00026428
22610.0 0.00025854
22630.0 0.0002529
22650.0 0.00024756
22670.0 0.00024212
22690.0 0.00023676
22710.0 0.00023175
22730.0 0.00022694
22750.0 0.00022206
22770.0 0.00021761
22790.0 0.00021352
22810.0 0.00020956
22830.0 0.00020584
22850.0 0.00020254
22870.0 0.00019949
22890.0 0.00019662
22910.0 0.00019414
22930.0 0.00019202
22950.0 0.00019015
22970.0 0.00018859
22990.0 0.00018746
23010.0 0.00018663
23030.0 0.00018613
23050.0 0.00018598
23070.0 0.00018614
23090.0 0.00018665
23110.0 0.00018747
23130.0 0.00018855
23150.0 0.00018989
23170.0 0.0001915
23190.0 0.00019327
23210.0 0.00019512
