#lamb flux
1010.0 2.0154e-06
1030.0 2.1457e-06
1050.0 2.2962e-06
1070.0 2.4658e-06
1090.0 2.6585e-06
1110.0 2.8567e-06
1130.0 3.0567e-06
1150.0 3.2668e-06
1170.0 3.4841e-06
1190.0 3.6911e-06
1210.0 3.9016e-06
1230.0 4.1199e-06
1250.0 4.3349e-06
1270.0 4.5448e-06
1290.0 4.7673e-06
1310.0 4.9908e-06
1330.0 5.2066e-06
1350.0 5.426e-06
1370.0 5.6535e-06
1390.0 5.8769e-06
1410.0 6.0954e-06
1430.0 6.3247e-06
1450.0 6.5554e-06
1470.0 6.7803e-06
1490.0 7.0087e-06
1510.0 7.2505e-06
1530.0 7.4817e-06
1550.0 7.7111e-06
1570.0 7.9488e-06
1590.0 8.1874e-06
1610.0 8.4168e-06
1630.0 8.6531e-06
1650.0 8.8952e-06
1670.0 9.1298e-06
1690.0 9.361e-06
1710.0 9.5997e-06
1730.0 9.8384e-06
1750.0 1.0062e-05
1770.0 1.029e-05
1790.0 1.052e-05
1810.0 1.074e-05
1830.0 1.0953e-05
1850.0 1.1175e-05
1870.0 1.1388e-05
1890.0 1.1589e-05
1910.0 1.179e-05
1930.0 1.1991e-05
1950.0 1.2178e-05
1970.0 1.2356e-05
1990.0 1.2537e-05
2010.0 1.2709e-05
2030.0 1.2869e-05
2050.0 1.3029e-05
2070.0 1.319e-05
2090.0 1.3333e-05
2110.0 1.3471e-05
2130.0 1.3611e-05
2150.0 1.3744e-05
2170.0 1.3864e-05
2190.0 1.3989e-05
2210.0 1.4113e-05
2230.0 1.4228e-05
2250.0 1.434e-05
2270.0 1.446e-05
2290.0 1.4575e-05
2310.0 1.4682e-05
2330.0 1.4797e-05
2350.0 1.4916e-05
2370.0 1.503e-05
2390.0 1.5149e-05
2410.0 1.5281e-05
2430.0 1.5411e-05
2450.0 1.5544e-05
2470.0 1.5691e-05
2490.0 1.5857e-05
2510.0 1.6047e-05
2530.0 1.6315e-05
2550.0 1.675e-05
2570.0 1.745e-05
2590.0 1.8535e-05
2610.0 2.0302e-05
2630.0 2.2847e-05
2650.0 2.6061e-05
2670.0 2.9997e-05
2690.0 3.454e-05
2710.0 3.9115e-05
2730.0 4.3432e-05
2750.0 4.7566e-05
2770.0 5.1173e-05
2790.0 5.4197e-05
2810.0 5.69e-05
2830.0 5.9486e-05
2850.0 6.1845e-05
2870.0 6.4192e-05
2890.0 6.668e-05
2910.0 6.926e-05
2930.0 7.1852e-05
2950.0 7.463e-05
2970.0 7.7572e-05
2990.0 8.054e-05
3010.0 0.00028498
3030.0 0.00029587
3050.0 0.00030669
3070.0 0.00031646
3090.0 0.00032474
3110.0 0.00032924
3130.0 0.00032729
3150.0 0.00031598
3170.0 0.00028948
3190.0 0.00024727
3210.0 0.00019016
3230.0 0.00012607
3250.0 0.00019327
3270.0 0.00012087
3290.0 0.00027822
3310.0 0.00010968
3330.0 0.00010858
3350.0 0.00013003
3370.0 0.0001557
3390.0 0.00018377
3410.0 0.00021189
3430.0 0.00024153
3450.0 0.00027144
3470.0 0.00029904
3490.0 0.00031837
3510.0 0.00038229
3530.0 0.00049504
3550.0 0.00048223
3570.0 0.00039765
3590.0 0.00053827
3610.0 0.00034837
3630.0 0.0005673
3650.0 0.00066079
3670.0 0.00084023
3690.0 0.00078014
3710.0 0.00052239
3730.0 0.00067421
3750.0 0.00069035
3770.0 0.00074093
3790.0 0.00071897
3810.0 0.00074015
3830.0 0.0011633
3850.0 0.0014279
3870.0 0.0017609
3890.0 0.0017113
3910.0 0.0015295
3930.0 0.0015492
3950.0 0.0016733
3970.0 0.001845
3990.0 0.001183
4010.0 0.00064039
4030.0 0.0011388
4050.0 0.0015063
4070.0 0.0016115
4090.0 0.0011271
4110.0 0.00071345
4130.0 0.0011734
4150.0 0.001198
4170.0 0.0011151
4190.0 0.0010118
4210.0 0.0014322
4230.0 0.0010551
4250.0 0.0011431
4270.0 0.0011357
4290.0 0.001076
4310.0 0.0013793
4330.0 0.0014904
4350.0 0.0012418
4370.0 0.0010483
4390.0 0.0012777
4410.0 0.0013085
4430.0 0.00096212
4450.0 0.00087298
4470.0 0.0010789
4490.0 0.00082543
4510.0 0.0011522
4530.0 0.0011975
4550.0 0.0014211
4570.0 0.0020034
4590.0 0.0019812
4610.0 0.0015709
4630.0 0.002507
4650.0 0.0033409
4670.0 0.0031861
4690.0 0.002253
4710.0 0.0023892
4730.0 0.0027063
4750.0 0.0022294
4770.0 0.0017044
4790.0 0.0011503
4810.0 0.0015701
4830.0 0.0018491
4850.0 0.0016254
4870.0 0.00068328
4890.0 0.0018444
4910.0 0.0024181
4930.0 0.0026281
4950.0 0.0027081
4970.0 0.0019023
4990.0 0.0022137
5010.0 0.0025712
5030.0 0.002756
5050.0 0.0025729
5070.0 0.0018194
5090.0 0.0014762
5110.0 0.001427
5130.0 0.0013559
5150.0 0.0014123
5170.0 0.0012602
5190.0 0.0015025
5210.0 0.0015253
5230.0 0.0016887
5250.0 0.0020042
5270.0 0.0016608
5290.0 0.0017263
5310.0 0.002536
5330.0 0.0029138
5350.0 0.0024442
5370.0 0.0021965
5390.0 0.0025471
5410.0 0.0030379
5430.0 0.0032345
5450.0 0.0034005
5470.0 0.0034215
5490.0 0.0035215
5510.0 0.0042128
5530.0 0.0043735
5550.0 0.0046152
5570.0 0.004843
5590.0 0.0047571
5610.0 0.0044511
5630.0 0.0043429
5650.0 0.0044888
5670.0 0.0043832
5690.0 0.0037502
5710.0 0.0037073
5730.0 0.0037107
5750.0 0.0038561
5770.0 0.003319
5790.0 0.0031642
5810.0 0.0032396
5830.0 0.003494
5850.0 0.0032509
5870.0 0.0032644
5890.0 0.0038043
5910.0 0.0035469
5930.0 0.0029271
5950.0 0.0026424
5970.0 0.0028778
5990.0 0.0026113
6010.0 0.0023862
6030.0 0.0023401
6050.0 0.0021432
6070.0 0.0016607
6090.0 0.0015793
6110.0 0.0020261
6130.0 0.0022737
6150.0 0.0023485
6170.0 0.002284
6190.0 0.0021784
6210.0 0.0022714
6230.0 0.0027564
6250.0 0.0025469
6270.0 0.0022899
6290.0 0.0020816
6310.0 0.0018854
6330.0 0.001749
6350.0 0.0015632
6370.0 0.0015844
6390.0 0.0018436
6410.0 0.0022891
6430.0 0.0027058
6450.0 0.0027162
6470.0 0.0027465
6490.0 0.0033543
6510.0 0.003851
6530.0 0.0036595
6550.0 0.0034722
6570.0 0.0035223
6590.0 0.0034716
6610.0 0.0036744
6630.0 0.0034265
6650.0 0.0029771
6670.0 0.0027463
6690.0 0.0027225
6710.0 0.0032225
6730.0 0.0028694
6750.0 0.0023601
6770.0 0.0021305
6790.0 0.0022634
6810.0 0.0025993
6830.0 0.0025872
6850.0 0.0023204
6870.0 0.0024033
6890.0 0.0023885
6910.0 0.0022447
6930.0 0.0024922
6950.0 0.0023183
6970.0 0.0021596
6990.0 0.0021529
7010.0 0.0021687
7030.0 0.0021065
7050.0 0.002017
7070.0 0.0021634
7090.0 0.002015
7110.0 0.0017084
7130.0 0.0014674
7150.0 0.001441
7170.0 0.0018195
7190.0 0.001929
7210.0 0.001829
7230.0 0.0019236
7250.0 0.0018683
7270.0 0.0018224
7290.0 0.0019742
7310.0 0.0021641
7330.0 0.0021085
7350.0 0.0019562
7370.0 0.0018097
7390.0 0.0018151
7410.0 0.0020855
7430.0 0.0023482
7450.0 0.0025001
7470.0 0.0025359
7490.0 0.0028209
7510.0 0.0027883
7530.0 0.0025264
7550.0 0.0023931
7570.0 0.0020695
7590.0 0.0019715
7610.0 0.0019055
7630.0 0.0017564
7650.0 0.001888
7670.0 0.002093
7690.0 0.00228
7710.0 0.0026032
7730.0 0.0027321
7750.0 0.0028404
7770.0 0.0029542
7790.0 0.0032065
7810.0 0.0032321
7830.0 0.0029024
7850.0 0.0029159
7870.0 0.0028093
7890.0 0.0028781
7910.0 0.0027123
7930.0 0.0026942
7950.0 0.0022636
7970.0 0.0022723
7990.0 0.0021972
8010.0 0.0023884
8030.0 0.0023795
8050.0 0.0025288
8070.0 0.002427
8090.0 0.002438
8110.0 0.002401
8130.0 0.0023743
8150.0 0.0022299
8170.0 0.002188
8190.0 0.0021826
8210.0 0.0022041
8230.0 0.0019282
8250.0 0.0017631
8270.0 0.0015583
8290.0 0.0013251
8310.0 0.0011673
8330.0 0.00092474
8350.0 0.00074875
8370.0 0.00072297
8390.0 0.00070095
8410.0 0.00073363
8430.0 0.00094369
8450.0 0.0010278
8470.0 0.0011063
8490.0 0.0012946
8510.0 0.0014089
8530.0 0.0016022
8550.0 0.0018953
8570.0 0.0020819
8590.0 0.0021897
8610.0 0.002432
8630.0 0.0027668
8650.0 0.0028384
8670.0 0.0028976
8690.0 0.0030068
8710.0 0.0029484
8730.0 0.0028553
8750.0 0.002631
8770.0 0.0026317
8790.0 0.0025944
8810.0 0.0023858
8830.0 0.0023886
8850.0 0.0021875
8870.0 0.0020857
8890.0 0.0018685
8910.0 0.0020827
8930.0 0.0018838
8950.0 0.0018886
8970.0 0.0019284
8990.0 0.0018727
9010.0 0.0019232
9030.0 0.0018257
9050.0 0.0018168
9070.0 0.0018176
9090.0 0.001818
9110.0 0.0018197
9130.0 0.0018196
9150.0 0.0018186
9170.0 0.0018126
9190.0 0.0017993
9210.0 0.0018278
9230.0 0.0018197
9250.0 0.0018151
9270.0 0.0018111
9290.0 0.0018077
9310.0 0.0018044
9330.0 0.0018012
9350.0 0.0017981
9370.0 0.0017948
9390.0 0.0017914
9410.0 0.0017878
9430.0 0.0017842
9450.0 0.0017803
9470.0 0.0017764
9490.0 0.0017723
9510.0 0.0017682
9530.0 0.0017639
9550.0 0.0017596
9570.0 0.0017552
9590.0 0.0017507
9610.0 0.0017462
9630.0 0.0017417
9650.0 0.0017372
9670.0 0.0017326
9690.0 0.001728
9710.0 0.0017235
9730.0 0.0017188
9750.0 0.0017143
9770.0 0.0017099
9790.0 0.0017054
9810.0 0.0017009
9830.0 0.0016965
9850.0 0.0016922
9870.0 0.0016879
9890.0 0.0016836
9910.0 0.0016796
9930.0 0.0016755
9950.0 0.0016688
9970.0 0.0016658
9990.0 0.0016627
10010.0 0.0016595
10030.0 0.0016562
10050.0 0.0016523
10070.0 0.0016453
10090.0 0.0016433
10110.0 0.0016413
10130.0 0.001639
10150.0 0.0016367
10170.0 0.0016342
10190.0 0.0016315
10210.0 0.0016291
10230.0 0.0016267
10250.0 0.0016243
10270.0 0.0016221
10290.0 0.0016201
10310.0 0.0016181
10330.0 0.0016161
10350.0 0.0016144
10370.0 0.0016128
10390.0 0.0016112
10410.0 0.0016098
10430.0 0.0016086
10450.0 0.0016074
10470.0 0.0016063
10490.0 0.0016053
10510.0 0.0016046
10530.0 0.0016037
10550.0 0.0016031
10570.0 0.0016026
10590.0 0.0016022
10610.0 0.0016018
10630.0 0.0016017
10650.0 0.0016016
10670.0 0.0016015
10690.0 0.0016016
10710.0 0.0016018
10730.0 0.001602
10750.0 0.0016023
10770.0 0.0016027
10790.0 0.0016033
10810.0 0.0016038
10830.0 0.0016044
10850.0 0.001605
10870.0 0.0016052
10890.0 0.0016049
10910.0 0.0016035
10930.0 0.0016003
10950.0 0.0015939
10970.0 0.0015836
10990.0 0.0015691
11010.0 0.0015963
11030.0 0.0015684
11050.0 0.0015357
11070.0 0.0014978
11090.0 0.0014539
11110.0 0.0014101
11130.0 0.0013663
11150.0 0.0013214
11170.0 0.0012777
11190.0 0.001238
11210.0 0.0011997
11230.0 0.0011633
11250.0 0.001131
11270.0 0.0011022
11290.0 0.0010753
11310.0 0.0010513
11330.0 0.0010311
11350.0 0.0010124
11370.0 0.00099508
11390.0 0.00097946
11410.0 0.00096477
11430.0 0.00094949
11450.0 0.00093436
11470.0 0.00091927
11490.0 0.00090316
11510.0 0.00088564
11530.0 0.00086802
11550.0 0.00084973
11570.0 0.0008299
11590.0 0.00080961
11610.0 0.00078955
11630.0 0.00076842
11650.0 0.0007466
11670.0 0.00072588
11690.0 0.0007054
11710.0 0.00068458
11730.0 0.00066454
11750.0 0.00064591
11770.0 0.00062722
11790.0 0.00060905
11810.0 0.00059226
11830.0 0.00057623
11850.0 0.00056009
11870.0 0.00054517
11890.0 0.00053138
11910.0 0.00051768
11930.0 0.00050432
11950.0 0.00049193
11970.0 0.00047978
11990.0 0.00046741
12010.0 0.0004557
12030.0 0.00044455
12050.0 0.00043337
12070.0 0.00042231
12090.0 0.00041242
12110.0 0.0004029
12130.0 0.00039377
12150.0 0.0003857
12170.0 0.00037879
12190.0 0.00037257
12210.0 0.00036777
12230.0 0.00036461
12250.0 0.00036293
12270.0 0.00036294
12290.0 0.00036476
12310.0 0.00036823
12330.0 0.00037354
12350.0 0.00038054
12370.0 0.00038875
12390.0 0.00039828
12410.0 0.00040933
12430.0 0.00042054
12450.0 0.00043197
12470.0 0.00044383
12490.0 0.00045543
12510.0 0.00046609
12530.0 0.00047636
12550.0 0.00048596
12570.0 0.00049427
12590.0 0.00050147
12610.0 0.00050781
12630.0 0.00051296
12650.0 0.00051686
12670.0 0.00051987
12690.0 0.00052194
12710.0 0.00052312
12730.0 0.00052355
12750.0 0.00052319
12770.0 0.00052218
12790.0 0.00052065
12810.0 0.0005185
12830.0 0.00051568
12850.0 0.0005125
12870.0 0.00050881
12890.0 0.00050437
12910.0 0.00049939
12930.0 0.00049402
12950.0 0.00048777
12970.0 0.00048066
12990.0 0.00047333
13010.0 0.0004654
13030.0 0.00045661
13050.0 0.00044751
13070.0 0.00043847
13090.0 0.00042882
13110.0 0.000419
13130.0 0.00040967
13150.0 0.00040062
13170.0 0.00039154
13190.0 0.00038348
13210.0 0.00037647
13230.0 0.00037011
13250.0 0.00036475
13270.0 0.00036068
13290.0 0.00035758
13310.0 0.0003554
13330.0 0.00035428
13350.0 0.00035399
13370.0 0.0003543
13390.0 0.00035507
13410.0 0.00035606
13430.0 0.00035706
13450.0 0.00035787
13470.0 0.00035832
13490.0 0.00035831
13510.0 0.00035766
13530.0 0.00035637
13550.0 0.00035453
13570.0 0.00035211
13590.0 0.00034911
13610.0 0.00034586
13630.0 0.00034247
13650.0 0.00033881
13670.0 0.00033517
13690.0 0.00033177
13710.0 0.00032848
13730.0 0.00032527
13750.0 0.00032249
13770.0 0.00031996
13790.0 0.00031754
13810.0 0.00031529
13830.0 0.00031322
13850.0 0.00031111
13870.0 0.00030893
13890.0 0.00030673
13910.0 0.00030443
13930.0 0.0003019
13950.0 0.00029923
13970.0 0.00029658
13990.0 0.00029378
14010.0 0.00029091
14030.0 0.00028816
14050.0 0.00028552
14070.0 0.00028291
14090.0 0.00028058
14110.0 0.00027855
14130.0 0.00027676
14150.0 0.00027525
14170.0 0.00027408
14190.0 0.0002732
14210.0 0.0002726
14230.0 0.0002723
14250.0 0.00027227
14270.0 0.00027254
14290.0 0.00027312
14310.0 0.00027392
14330.0 0.00027498
14350.0 0.00027636
14370.0 0.00027792
14390.0 0.00027959
14410.0 0.00028152
14430.0 0.00028357
14450.0 0.00028558
14470.0 0.00028763
14490.0 0.00028981
14510.0 0.00029186
14530.0 0.0002938
14550.0 0.00029582
14570.0 0.0002979
14590.0 0.00029993
14610.0 0.00030216
14630.0 0.00030473
14650.0 0.00030748
14670.0 0.00031052
14690.0 0.00031413
14710.0 0.0003183
14730.0 0.00032266
14750.0 0.00032762
14770.0 0.00033324
14790.0 0.00033914
14810.0 0.00034523
14830.0 0.00035208
14850.0 0.00035899
14870.0 0.00036564
14890.0 0.00037229
14910.0 0.0003788
14930.0 0.00038451
14950.0 0.00038935
14970.0 0.00039352
14990.0 0.00039653
15010.0 0.00039832
15030.0 0.00039914
15050.0 0.00039906
15070.0 0.00039819
15090.0 0.00039682
15110.0 0.00039511
15130.0 0.00039319
15150.0 0.0003912
15170.0 0.00038912
15190.0 0.00038701
15210.0 0.00038491
15230.0 0.00038282
15250.0 0.0003807
15270.0 0.0003786
15290.0 0.00037653
15310.0 0.00037445
15330.0 0.00037235
15350.0 0.0003703
15370.0 0.00036825
15390.0 0.00036616
15410.0 0.0003641
15430.0 0.00036207
15450.0 0.00036003
15470.0 0.00035797
15490.0 0.00035597
15510.0 0.00035397
15530.0 0.00035194
15550.0 0.00034995
15570.0 0.00034798
15590.0 0.00034598
15610.0 0.00034399
15630.0 0.00034204
15650.0 0.0003401
15670.0 0.00033814
15690.0 0.00033621
15710.0 0.00033431
15730.0 0.00033238
15750.0 0.00033047
15770.0 0.00032859
15790.0 0.00032672
15810.0 0.00032482
15830.0 0.00032296
15850.0 0.00032113
15870.0 0.00031928
15890.0 0.00031744
15910.0 0.00031565
15930.0 0.00031385
15950.0 0.00031203
15970.0 0.00031025
15990.0 0.00030849
16010.0 0.00030672
16030.0 0.00030495
16050.0 0.00030323
16070.0 0.00030151
16090.0 0.00029978
16110.0 0.00029808
16130.0 0.00029641
16150.0 0.0002947
16170.0 0.00029302
16190.0 0.00029138
16210.0 0.00028973
16230.0 0.00028807
16250.0 0.00028645
16270.0 0.00028486
16290.0 0.00028324
16310.0 0.00028164
16330.0 0.00028008
16350.0 0.00027851
16370.0 0.00027691
16390.0 0.00027537
16410.0 0.00027385
16430.0 0.00027231
16450.0 0.00027078
16470.0 0.0002693
16490.0 0.0002678
16510.0 0.00026629
16530.0 0.00026483
16550.0 0.00026337
16570.0 0.00026189
16590.0 0.00026044
16610.0 0.00025903
16630.0 0.0002576
16650.0 0.00025617
16670.0 0.00025477
16690.0 0.00025339
16710.0 0.00025197
16730.0 0.00025059
16750.0 0.00024924
16770.0 0.00024787
16790.0 0.0002465
16810.0 0.00024518
16830.0 0.00024386
16850.0 0.00024252
16870.0 0.0002412
16890.0 0.00023992
16910.0 0.0002386
16930.0 0.00023729
16950.0 0.00023603
16970.0 0.00023476
16990.0 0.00023348
17010.0 0.00023223
17030.0 0.000231
17050.0 0.00022975
17070.0 0.0002285
17090.0 0.00022729
17110.0 0.00022608
17130.0 0.00022484
17150.0 0.00022364
17170.0 0.00022246
17190.0 0.00022126
17210.0 0.00022007
17230.0 0.00021892
17250.0 0.00021775
17270.0 0.00021657
17290.0 0.00021542
17310.0 0.00021429
17330.0 0.00021314
17350.0 0.00021198
17370.0 0.00021088
17390.0 0.00020976
17410.0 0.00020864
17430.0 0.00020754
17450.0 0.00020645
17470.0 0.00020533
17490.0 0.00020423
17510.0 0.00020317
17530.0 0.00020209
17550.0 0.000201
17570.0 0.00019994
17590.0 0.0001989
17610.0 0.00019783
17630.0 0.00019678
17650.0 0.00019575
17670.0 0.00019471
17690.0 0.00019364
17710.0 0.00019263
17730.0 0.00019162
17750.0 0.00019059
17770.0 0.00018958
17790.0 0.0001886
17810.0 0.00018759
17830.0 0.00018657
17850.0 0.00018559
17870.0 0.00018462
17890.0 0.00018361
17910.0 0.00018263
17930.0 0.00018168
17950.0 0.00018071
17970.0 0.00017974
17990.0 0.0001788
18010.0 0.00017785
18030.0 0.00017688
18050.0 0.00017593
18070.0 0.00017501
18090.0 0.00017407
18110.0 0.00017312
18130.0 0.00017221
18150.0 0.0001713
18170.0 0.00017037
18190.0 0.00016945
18210.0 0.00016856
18230.0 0.00016764
18250.0 0.00016672
18270.0 0.00016584
18290.0 0.00016496
18310.0 0.00016405
18330.0 0.00016317
18350.0 0.00016231
18370.0 0.00016142
18390.0 0.00016054
18410.0 0.00015969
18430.0 0.00015883
18450.0 0.00015794
18470.0 0.00015709
18490.0 0.00015625
18510.0 0.00015539
18530.0 0.00015454
18550.0 0.00015372
18570.0 0.00015288
18590.0 0.00015203
18610.0 0.0001512
18630.0 0.00015039
18650.0 0.00014955
18670.0 0.00014872
18690.0 0.00014792
18710.0 0.00014711
18730.0 0.00014629
18750.0 0.00014549
18770.0 0.00014471
18790.0 0.00014388
18810.0 0.00014308
18830.0 0.0001423
18850.0 0.00014151
18870.0 0.00014071
18890.0 0.00013994
18910.0 0.00013918
18930.0 0.00013839
18950.0 0.00013761
18970.0 0.00013686
18990.0 0.00013609
19010.0 0.0001353
19030.0 0.00013456
19050.0 0.00013381
19070.0 0.00013305
19090.0 0.00013229
19110.0 0.00013157
19130.0 0.00013082
19150.0 0.00013006
19170.0 0.00012933
19190.0 0.00012861
19210.0 0.00012786
19230.0 0.00012712
19250.0 0.00012642
19270.0 0.00012569
19290.0 0.00012496
19310.0 0.00012426
19330.0 0.00012356
19350.0 0.00012282
19370.0 0.00012211
19390.0 0.00012142
19410.0 0.00012071
19430.0 0.00012
19450.0 0.00011932
19470.0 0.00011863
19490.0 0.00011792
19510.0 0.00011724
19530.0 0.00011657
19550.0 0.00011587
19570.0 0.00011517
19590.0 0.00011451
19610.0 0.00011384
19630.0 0.00011315
19650.0 0.00011249
19670.0 0.00011184
19690.0 0.00011115
19710.0 0.00011048
19730.0 0.00010984
19750.0 0.00010918
19770.0 0.0001085
19790.0 0.00010785
19810.0 0.00010721
19830.0 0.00010655
19850.0 0.00010589
19870.0 0.00010524
19890.0 0.00010455
19910.0 0.00010379
19930.0 0.00010299
19950.0 0.00010207
19970.0 0.00010097
19990.0 9.9657e-05
20010.0 9.8205e-05
20030.0 9.649e-05
20050.0 9.4545e-05
20070.0 9.2519e-05
20090.0 9.0425e-05
20110.0 8.8162e-05
20130.0 8.5991e-05
20150.0 8.395e-05
20170.0 8.1941e-05
20190.0 8.0014e-05
20210.0 7.8291e-05
20230.0 7.6697e-05
20250.0 7.5181e-05
20270.0 7.3854e-05
20290.0 7.2712e-05
20310.0 7.1696e-05
20330.0 7.0821e-05
20350.0 7.0173e-05
20370.0 6.9678e-05
20390.0 6.9344e-05
20410.0 6.9194e-05
20430.0 6.9215e-05
20450.0 6.9414e-05
20470.0 6.9799e-05
20490.0 7.0343e-05
20510.0 7.1053e-05
20530.0 7.1955e-05
20550.0 7.2991e-05
20570.0 7.4118e-05
20590.0 7.5405e-05
20610.0 7.6794e-05
20630.0 7.8205e-05
20650.0 7.9676e-05
20670.0 8.1239e-05
20690.0 8.2726e-05
20710.0 8.4153e-05
20730.0 8.5567e-05
20750.0 8.6905e-05
20770.0 8.8091e-05
20790.0 8.92e-05
20810.0 9.0229e-05
20830.0 9.112e-05
20850.0 9.1899e-05
20870.0 9.2618e-05
20890.0 9.3251e-05
20910.0 9.3788e-05
20930.0 9.4282e-05
20950.0 9.4739e-05
20970.0 9.5144e-05
20990.0 9.5508e-05
21010.0 9.5852e-05
21030.0 9.6149e-05
21050.0 9.639e-05
21070.0 9.6581e-05
21090.0 9.6712e-05
21110.0 9.6766e-05
21130.0 9.6749e-05
21150.0 9.6654e-05
21170.0 9.6482e-05
21190.0 9.6247e-05
21210.0 9.5937e-05
21230.0 9.5556e-05
21250.0 9.5143e-05
21270.0 9.4693e-05
21290.0 9.42e-05
21310.0 9.3695e-05
21330.0 9.3209e-05
21350.0 9.271e-05
21370.0 9.2221e-05
21390.0 9.1772e-05
21410.0 9.1356e-05
21430.0 9.0955e-05
21450.0 9.0614e-05
21470.0 9.033e-05
21490.0 9.0088e-05
21510.0 8.9899e-05
21530.0 8.9772e-05
21550.0 8.9698e-05
21570.0 8.9681e-05
21590.0 8.9724e-05
21610.0 8.9825e-05
21630.0 8.9988e-05
21650.0 9.0224e-05
21670.0 9.0507e-05
21690.0 9.0857e-05
21710.0 9.1284e-05
21730.0 9.1772e-05
21750.0 9.2309e-05
21770.0 9.2948e-05
21790.0 9.3657e-05
21810.0 9.4409e-05
21830.0 9.5236e-05
21850.0 9.616e-05
21870.0 9.7124e-05
21890.0 9.8114e-05
21910.0 9.9198e-05
21930.0 0.00010033
21950.0 0.00010146
21970.0 0.00010264
21990.0 0.00010389
22010.0 0.00010509
22030.0 0.00010627
22050.0 0.00010748
22070.0 0.00010865
22090.0 0.00010972
22110.0 0.00011076
22130.0 0.00011175
22150.0 0.00011261
22170.0 0.00011336
22190.0 0.00011402
22210.0 0.00011453
22230.0 0.00011487
22250.0 0.00011507
22270.0 0.0001151
22290.0 0.00011496
22310.0 0.00011465
22330.0 0.00011414
22350.0 0.00011345
22370.0 0.00011262
22390.0 0.00011159
22410.0 0.00011036
22430.0 0.00010903
22450.0 0.00010758
22470.0 0.00010595
22490.0 0.00010422
22510.0 0.00010246
22530.0 0.00010055
22550.0 9.8548e-05
22570.0 9.6589e-05
22590.0 9.4608e-05
22610.0 9.2552e-05
22630.0 9.0533e-05
22650.0 8.8623e-05
22670.0 8.6675e-05
22690.0 8.4757e-05
22710.0 8.2963e-05
22730.0 8.1238e-05
22750.0 7.9493e-05
22770.0 7.7899e-05
22790.0 7.6436e-05
22810.0 7.5018e-05
22830.0 7.3685e-05
22850.0 7.2507e-05
22870.0 7.1413e-05
22890.0 7.0386e-05
22910.0 6.9499e-05
22930.0 6.874e-05
22950.0 6.807e-05
22970.0 6.7511e-05
22990.0 6.7106e-05
23010.0 6.6809e-05
