#lamb flux
1010.0 2.3543e-09
1030.0 2.6038e-09
1050.0 2.8909e-09
1070.0 3.214e-09
1090.0 3.5811e-09
1110.0 3.9575e-09
1130.0 4.3364e-09
1150.0 4.7333e-09
1170.0 5.1427e-09
1190.0 5.5309e-09
1210.0 5.9244e-09
1230.0 6.3309e-09
1250.0 6.7293e-09
1270.0 7.1161e-09
1290.0 7.5249e-09
1310.0 7.9334e-09
1330.0 8.3251e-09
1350.0 8.7213e-09
1370.0 9.1302e-09
1390.0 9.529e-09
1410.0 9.9159e-09
1430.0 1.032e-08
1450.0 1.0725e-08
1470.0 1.1116e-08
1490.0 1.1511e-08
1510.0 1.1929e-08
1530.0 1.2324e-08
1550.0 1.2715e-08
1570.0 1.3118e-08
1590.0 1.3523e-08
1610.0 1.3909e-08
1630.0 1.4308e-08
1650.0 1.4717e-08
1670.0 1.5113e-08
1690.0 1.5505e-08
1710.0 1.5911e-08
1730.0 1.632e-08
1750.0 1.6706e-08
1770.0 1.7102e-08
1790.0 1.7508e-08
1810.0 1.7901e-08
1830.0 1.8287e-08
1850.0 1.8698e-08
1870.0 1.9099e-08
1890.0 1.9487e-08
1910.0 1.9884e-08
1930.0 2.0291e-08
1950.0 2.0681e-08
1970.0 2.1066e-08
1990.0 2.1467e-08
2010.0 2.1862e-08
2030.0 2.2245e-08
2050.0 2.2639e-08
2070.0 2.3045e-08
2090.0 2.3428e-08
2110.0 2.3811e-08
2130.0 2.4207e-08
2150.0 2.4595e-08
2170.0 2.4968e-08
2190.0 2.5355e-08
2210.0 2.5746e-08
2230.0 2.6121e-08
2250.0 2.6495e-08
2270.0 2.6887e-08
2290.0 2.7266e-08
2310.0 2.7631e-08
2330.0 2.8011e-08
2350.0 2.8401e-08
2370.0 2.879e-08
2390.0 2.9211e-08
2410.0 2.9709e-08
2430.0 3.0282e-08
2450.0 3.0968e-08
2470.0 3.1846e-08
2490.0 3.2952e-08
2510.0 3.421e-08
2530.0 3.5724e-08
2550.0 3.762e-08
2570.0 3.9978e-08
2590.0 4.3045e-08
2610.0 4.7637e-08
2630.0 5.4194e-08
2650.0 6.2766e-08
2670.0 7.385e-08
2690.0 8.7471e-08
2710.0 1.0201e-07
2730.0 1.1638e-07
2750.0 1.3053e-07
2770.0 1.4284e-07
2790.0 1.5261e-07
2810.0 1.6037e-07
2830.0 1.6643e-07
2850.0 1.7056e-07
2870.0 1.736e-07
2890.0 1.76e-07
2910.0 1.7792e-07
2930.0 1.7949e-07
2950.0 1.8099e-07
2970.0 1.8245e-07
2990.0 1.8382e-07
3010.0 5.1958e-06
3030.0 5.2347e-06
3050.0 5.2722e-06
3070.0 5.3044e-06
3090.0 5.332e-06
3110.0 5.3492e-06
3130.0 5.3485e-06
3150.0 5.3247e-06
3170.0 5.2677e-06
3190.0 5.1781e-06
3210.0 5.0646e-06
3230.0 4.9345e-06
3250.0 4.8062e-06
3270.0 4.7125e-06
3290.0 4.6604e-06
3310.0 4.6688e-06
3330.0 4.7364e-06
3350.0 4.8541e-06
3370.0 5.0221e-06
3390.0 5.2338e-06
3410.0 5.4642e-06
3430.0 5.7229e-06
3450.0 6.0207e-06
3470.0 6.346e-06
3490.0 6.6906e-06
3510.0 7.0802e-06
3530.0 7.4974e-06
3550.0 7.9198e-06
3570.0 8.3604e-06
3590.0 8.8395e-06
3610.0 9.3333e-06
3630.0 9.8255e-06
3650.0 1.0336e-05
3670.0 1.0802e-05
3690.0 1.1151e-05
3710.0 1.1351e-05
3730.0 1.1357e-05
3750.0 1.1199e-05
3770.0 1.1137e-05
3790.0 1.1071e-05
3810.0 1.0799e-05
3830.0 1.1133e-05
3850.0 1.2448e-05
3870.0 1.317e-05
3890.0 1.311e-05
3910.0 1.3166e-05
3930.0 1.3512e-05
3950.0 1.3726e-05
3970.0 1.2505e-05
3990.0 1.076e-05
4010.0 3.225e-05
4030.0 3.9076e-05
4050.0 4.4798e-05
4070.0 3.887e-05
4090.0 3.5204e-05
4110.0 3.1064e-05
4130.0 2.8591e-05
4150.0 3.0413e-05
4170.0 2.9958e-05
4190.0 3.1933e-05
4210.0 3.1641e-05
4230.0 3.3467e-05
4250.0 3.9593e-05
4270.0 4.0058e-05
4290.0 3.6913e-05
4310.0 3.8355e-05
4330.0 4.0799e-05
4350.0 4.5745e-05
4370.0 5.2059e-05
4390.0 4.8852e-05
4410.0 3.6093e-05
4430.0 3.0555e-05
4450.0 2.8077e-05
4470.0 2.155e-05
4490.0 2.3255e-05
4510.0 3.5127e-05
4530.0 4.0512e-05
4550.0 4.0863e-05
4570.0 4.5982e-05
4590.0 5.2377e-05
4610.0 7.0645e-05
4630.0 9.1753e-05
4650.0 9.9505e-05
4670.0 9.2151e-05
4690.0 8.7928e-05
4710.0 9.2946e-05
4730.0 8.7715e-05
4750.0 6.5578e-05
4770.0 4.8104e-05
4790.0 4.492e-05
4810.0 4.2816e-05
4830.0 3.9197e-05
4850.0 4.3012e-05
4870.0 5.6824e-05
4890.0 6.7011e-05
4910.0 5.8794e-05
4930.0 5.2024e-05
4950.0 5.7156e-05
4970.0 7.3299e-05
4990.0 9.9338e-05
5010.0 0.00011428
5030.0 0.00010076
5050.0 6.8174e-05
5070.0 4.4929e-05
5090.0 3.6229e-05
5110.0 3.7258e-05
5130.0 4.3001e-05
5150.0 4.6589e-05
5170.0 4.589e-05
5190.0 4.2881e-05
5210.0 4.482e-05
5230.0 4.7116e-05
5250.0 5.0778e-05
5270.0 5.4785e-05
5290.0 6.0713e-05
5310.0 7.0668e-05
5330.0 7.8203e-05
5350.0 7.7704e-05
5370.0 8.162e-05
5390.0 9.366e-05
5410.0 9.3576e-05
5430.0 8.2754e-05
5450.0 7.6031e-05
5470.0 8.0732e-05
5490.0 9.8631e-05
5510.0 0.00012332
5530.0 0.00014144
5550.0 0.00013671
5570.0 0.00012428
5590.0 0.00010806
5610.0 9.9655e-05
5630.0 9.6634e-05
5650.0 9.2034e-05
5670.0 8.7209e-05
5690.0 7.7965e-05
5710.0 7.6017e-05
5730.0 7.0023e-05
5750.0 4.937e-05
5770.0 3.8517e-05
5790.0 4.3647e-05
5810.0 4.9285e-05
5830.0 6.048e-05
5850.0 7.1994e-05
5870.0 7.9878e-05
5890.0 8.1231e-05
5910.0 7.9693e-05
5930.0 7.5858e-05
5950.0 7.7298e-05
5970.0 8.8111e-05
5990.0 8.2847e-05
6010.0 6.9451e-05
6030.0 5.8676e-05
6050.0 5.1099e-05
6070.0 5.082e-05
6090.0 5.5106e-05
6110.0 6.1617e-05
6130.0 6.2561e-05
6150.0 5.3828e-05
6170.0 4.7352e-05
6190.0 5.3288e-05
6210.0 7.0446e-05
6230.0 9.2445e-05
6250.0 0.00010013
6270.0 8.7501e-05
6290.0 7.3619e-05
6310.0 5.7472e-05
6330.0 4.4035e-05
6350.0 3.9278e-05
6370.0 4.1305e-05
6390.0 4.7751e-05
6410.0 5.8879e-05
6430.0 6.8754e-05
6450.0 7.8673e-05
6470.0 9.0082e-05
6490.0 0.00010881
6510.0 0.00012167
6530.0 0.00011936
6550.0 0.00010794
6570.0 9.1628e-05
6590.0 8.2623e-05
6610.0 7.1243e-05
6630.0 6.4543e-05
6650.0 6.1012e-05
6670.0 5.9272e-05
6690.0 5.3555e-05
6710.0 4.8683e-05
6730.0 3.5065e-05
6750.0 3.4764e-05
6770.0 3.7786e-05
6790.0 4.3432e-05
6810.0 3.9741e-05
6830.0 4.0922e-05
6850.0 3.8275e-05
6870.0 3.4964e-05
6890.0 3.3571e-05
6910.0 3.5774e-05
6930.0 3.3508e-05
6950.0 3.4474e-05
6970.0 3.626e-05
6990.0 4.1158e-05
7010.0 4.1509e-05
7030.0 4.2168e-05
7050.0 4.0214e-05
7070.0 3.8317e-05
7090.0 3.8429e-05
7110.0 3.9541e-05
7130.0 4.2552e-05
7150.0 4.5193e-05
7170.0 4.9868e-05
7190.0 5.4819e-05
7210.0 5.3867e-05
7230.0 5.5376e-05
7250.0 5.951e-05
7270.0 6.4852e-05
7290.0 7.6972e-05
7310.0 8.3522e-05
7330.0 8.0731e-05
7350.0 7.3016e-05
7370.0 6.3531e-05
7390.0 6.1633e-05
7410.0 6.5497e-05
7430.0 7.2792e-05
7450.0 7.9283e-05
7470.0 7.8555e-05
7490.0 7.1627e-05
7510.0 8.1136e-05
7530.0 8.0248e-05
7550.0 7.2128e-05
7570.0 5.6346e-05
7590.0 3.8736e-05
7610.0 3.3247e-05
7630.0 3.7775e-05
7650.0 4.4664e-05
7670.0 5.5588e-05
7690.0 6.117e-05
7710.0 6.3747e-05
7730.0 6.6991e-05
7750.0 7.5205e-05
7770.0 7.6387e-05
7790.0 7.0166e-05
7810.0 6.4022e-05
7830.0 6.6021e-05
7850.0 6.4179e-05
7870.0 5.8842e-05
7890.0 4.9438e-05
7910.0 4.0187e-05
7930.0 3.8372e-05
7950.0 3.4959e-05
7970.0 3.236e-05
7990.0 3.2176e-05
8010.0 2.3831e-06
8030.0 2.3521e-06
8050.0 2.3204e-06
8070.0 2.3508e-06
8090.0 2.5258e-06
8110.0 2.4828e-06
8130.0 2.048e-06
8150.0 1.9945e-06
8170.0 1.718e-06
8190.0 1.6282e-06
8210.0 2.1144e-06
8230.0 2.3541e-06
8250.0 2.1217e-06
8270.0 1.8467e-06
8290.0 1.8002e-06
8310.0 1.3855e-06
8330.0 9.3382e-07
8350.0 6.6272e-07
8370.0 4.1754e-07
8390.0 7.6326e-07
8410.0 8.8941e-07
8430.0 1.0963e-06
8450.0 1.2874e-06
8470.0 1.6002e-06
8490.0 1.5889e-06
8510.0 1.5629e-06
8530.0 1.6311e-06
8550.0 2.2007e-06
8570.0 2.6054e-06
8590.0 2.8112e-06
8610.0 3.5511e-06
8630.0 4.2778e-06
8650.0 4.4751e-06
8670.0 4.7557e-06
8690.0 4.7823e-06
8710.0 4.3311e-06
8730.0 4.0286e-06
8750.0 3.556e-06
8770.0 3.3741e-06
8790.0 3.3149e-06
8810.0 3.1764e-06
8830.0 2.54e-06
8850.0 1.8595e-06
8870.0 1.4238e-06
8890.0 1.392e-06
8910.0 1.5953e-06
8930.0 1.8145e-06
8950.0 1.8493e-06
8970.0 1.858e-06
8990.0 1.6571e-06
9010.0 1.7366e-05
9030.0 1.5735e-05
9050.0 1.5811e-05
9070.0 1.5936e-05
9090.0 1.6046e-05
9110.0 1.6181e-05
9130.0 1.6285e-05
9150.0 1.6366e-05
9170.0 1.6453e-05
9190.0 1.6545e-05
9210.0 1.6642e-05
9230.0 1.6745e-05
9250.0 1.6849e-05
9270.0 1.6957e-05
9290.0 1.7068e-05
9310.0 1.718e-05
9330.0 1.7295e-05
9350.0 1.7413e-05
9370.0 1.7533e-05
9390.0 1.7654e-05
9410.0 1.7779e-05
9430.0 1.7907e-05
9450.0 1.8035e-05
9470.0 1.8166e-05
9490.0 1.83e-05
9510.0 1.8436e-05
9530.0 1.8572e-05
9550.0 1.8714e-05
9570.0 1.8858e-05
9590.0 1.9002e-05
9610.0 1.9148e-05
9630.0 1.9299e-05
9650.0 1.9451e-05
9670.0 1.9603e-05
9690.0 1.9759e-05
9710.0 1.9918e-05
9730.0 2.0077e-05
9750.0 2.0238e-05
9770.0 2.0404e-05
9790.0 2.057e-05
9810.0 2.0737e-05
9830.0 2.0907e-05
9850.0 2.108e-05
9870.0 2.1252e-05
9890.0 2.1426e-05
9910.0 2.1604e-05
9930.0 2.1782e-05
9950.0 2.1961e-05
9970.0 2.2143e-05
9990.0 2.2327e-05
10010.0 1.9374e-05
10030.0 1.9533e-05
10050.0 1.9695e-05
10070.0 1.9863e-05
10090.0 2.0021e-05
10110.0 2.0183e-05
10130.0 2.0346e-05
10150.0 2.0508e-05
10170.0 2.0672e-05
10190.0 2.0839e-05
10210.0 2.1004e-05
10230.0 2.1169e-05
10250.0 2.1336e-05
10270.0 2.1504e-05
10290.0 2.1669e-05
10310.0 2.1836e-05
10330.0 2.2004e-05
10350.0 2.217e-05
10370.0 2.2336e-05
10390.0 2.2503e-05
10410.0 2.267e-05
10430.0 2.2833e-05
10450.0 2.2998e-05
10470.0 2.3163e-05
10490.0 2.3325e-05
10510.0 2.3487e-05
10530.0 2.3651e-05
10550.0 2.3812e-05
10570.0 2.397e-05
10590.0 2.4129e-05
10610.0 2.4288e-05
10630.0 2.4442e-05
10650.0 2.4596e-05
10670.0 2.4751e-05
10690.0 2.4903e-05
10710.0 2.5052e-05
10730.0 2.5201e-05
10750.0 2.535e-05
10770.0 2.5493e-05
10790.0 2.5636e-05
10810.0 2.5777e-05
10830.0 2.5915e-05
10850.0 2.6046e-05
10870.0 2.6172e-05
10890.0 2.6283e-05
10910.0 2.6369e-05
10930.0 2.6418e-05
10950.0 2.6406e-05
10970.0 2.6317e-05
10990.0 2.6141e-05
11010.0 2.5848e-05
11030.0 2.5436e-05
11050.0 2.4935e-05
11070.0 2.4336e-05
11090.0 2.3616e-05
11110.0 2.2871e-05
11130.0 2.2094e-05
11150.0 2.1258e-05
11170.0 2.0396e-05
11190.0 1.9559e-05
11210.0 1.8696e-05
11230.0 1.781e-05
11250.0 1.6964e-05
11270.0 1.6151e-05
11290.0 1.5337e-05
11310.0 1.4565e-05
11330.0 1.3886e-05
11350.0 1.3244e-05
11370.0 1.2651e-05
11390.0 1.2138e-05
11410.0 1.169e-05
11430.0 1.1273e-05
11450.0 1.0913e-05
11470.0 1.0603e-05
11490.0 1.0314e-05
11510.0 1.0035e-05
11530.0 9.7765e-06
11550.0 9.5197e-06
11570.0 9.2457e-06
11590.0 8.962e-06
11610.0 8.6733e-06
11630.0 8.359e-06
11650.0 8.0225e-06
11670.0 7.6908e-06
11690.0 7.3545e-06
11710.0 7.0076e-06
11730.0 6.6714e-06
11750.0 6.3603e-06
11770.0 6.0552e-06
11790.0 5.7692e-06
11810.0 5.5175e-06
11830.0 5.2924e-06
11850.0 5.085e-06
11870.0 4.9116e-06
11890.0 4.7674e-06
11910.0 4.6407e-06
11930.0 4.5318e-06
11950.0 4.4411e-06
11970.0 4.36e-06
11990.0 4.2835e-06
12010.0 4.2126e-06
12030.0 4.1443e-06
12050.0 4.0737e-06
12070.0 4.0003e-06
12090.0 3.9295e-06
12110.0 3.8577e-06
12130.0 3.7857e-06
12150.0 3.7193e-06
12170.0 3.6614e-06
12190.0 3.6112e-06
12210.0 3.5763e-06
12230.0 3.5594e-06
12250.0 3.5621e-06
12270.0 3.589e-06
12290.0 3.6397e-06
12310.0 3.7126e-06
12330.0 3.8145e-06
12350.0 3.9417e-06
12370.0 4.0865e-06
12390.0 4.2534e-06
12410.0 4.449e-06
12430.0 4.6478e-06
12450.0 4.8537e-06
12470.0 5.0727e-06
12490.0 5.2925e-06
12510.0 5.4988e-06
12530.0 5.704e-06
12550.0 5.902e-06
12570.0 6.0768e-06
12590.0 6.2302e-06
12610.0 6.3669e-06
12630.0 6.4759e-06
12650.0 6.5511e-06
12670.0 6.6005e-06
12690.0 6.6203e-06
12710.0 6.6094e-06
12730.0 6.5711e-06
12750.0 6.5027e-06
12770.0 6.4089e-06
12790.0 6.2952e-06
12810.0 6.1594e-06
12830.0 6.0022e-06
12850.0 5.8379e-06
12870.0 5.6641e-06
12890.0 5.476e-06
12910.0 5.2849e-06
12930.0 5.0965e-06
12950.0 4.8999e-06
12970.0 4.6998e-06
12990.0 4.5105e-06
13010.0 4.3235e-06
13030.0 4.1345e-06
13050.0 3.9529e-06
13070.0 3.7828e-06
13090.0 3.6121e-06
13110.0 3.447e-06
13130.0 3.2948e-06
13150.0 3.1506e-06
13170.0 3.0094e-06
13190.0 2.8838e-06
13210.0 2.7732e-06
13230.0 2.6721e-06
13250.0 2.5851e-06
13270.0 2.5165e-06
13290.0 2.4631e-06
13310.0 2.4263e-06
13330.0 2.4095e-06
13350.0 2.4115e-06
13370.0 2.4331e-06
13390.0 2.4756e-06
13410.0 2.533e-06
13430.0 2.6077e-06
13450.0 2.6999e-06
13470.0 2.8022e-06
13490.0 2.9106e-06
13510.0 3.0329e-06
13530.0 3.1568e-06
13550.0 3.2755e-06
13570.0 3.3925e-06
13590.0 3.5065e-06
13610.0 3.6079e-06
13630.0 3.6964e-06
13650.0 3.7773e-06
13670.0 3.8443e-06
13690.0 3.8962e-06
13710.0 3.9364e-06
13730.0 3.965e-06
13750.0 3.9794e-06
13770.0 3.9826e-06
13790.0 3.9754e-06
13810.0 3.9578e-06
13830.0 3.9319e-06
13850.0 3.8968e-06
13870.0 3.8525e-06
13890.0 3.8018e-06
13910.0 3.7447e-06
13930.0 3.6786e-06
13950.0 3.6064e-06
13970.0 3.5326e-06
13990.0 3.4523e-06
14010.0 3.3668e-06
14030.0 3.2816e-06
14050.0 3.1957e-06
14070.0 3.105e-06
14090.0 3.0181e-06
14110.0 2.9364e-06
14130.0 2.8573e-06
14150.0 2.7828e-06
14170.0 2.7192e-06
14190.0 2.6642e-06
14210.0 2.6176e-06
14230.0 2.583e-06
14250.0 2.5607e-06
14270.0 2.5499e-06
14290.0 2.5522e-06
14310.0 2.5664e-06
14330.0 2.5919e-06
14350.0 2.6295e-06
14370.0 2.6764e-06
14390.0 2.7296e-06
14410.0 2.7922e-06
14430.0 2.861e-06
14450.0 2.9313e-06
14470.0 3.0041e-06
14490.0 3.0817e-06
14510.0 3.1558e-06
14530.0 3.2262e-06
14550.0 3.2966e-06
14570.0 3.3641e-06
14590.0 3.4256e-06
14610.0 3.4851e-06
14630.0 3.5439e-06
14650.0 3.5988e-06
14670.0 3.6517e-06
14690.0 3.7069e-06
14710.0 3.765e-06
14730.0 3.823e-06
14750.0 3.8873e-06
14770.0 3.9602e-06
14790.0 4.0393e-06
14810.0 4.125e-06
14830.0 4.2265e-06
14850.0 4.3368e-06
14870.0 4.4519e-06
14890.0 4.5761e-06
14910.0 4.708e-06
14930.0 4.8348e-06
14950.0 4.9533e-06
14970.0 5.0655e-06
14990.0 5.1596e-06
15010.0 5.2315e-06
15030.0 5.2848e-06
15050.0 5.32e-06
15070.0 5.3372e-06
15090.0 5.3433e-06
15110.0 5.3415e-06
15130.0 5.3348e-06
15150.0 5.3258e-06
15170.0 5.3151e-06
15190.0 5.3037e-06
15210.0 5.2924e-06
15230.0 5.2812e-06
15250.0 5.2695e-06
15270.0 5.2579e-06
15290.0 5.247e-06
15310.0 5.2358e-06
15330.0 5.2245e-06
15350.0 5.2136e-06
15370.0 5.2028e-06
15390.0 5.1914e-06
15410.0 5.1805e-06
15430.0 5.1698e-06
15450.0 5.159e-06
15470.0 5.1479e-06
15490.0 5.1374e-06
15510.0 5.127e-06
15530.0 5.1161e-06
15550.0 5.1055e-06
15570.0 5.0953e-06
15590.0 5.0846e-06
15610.0 5.0738e-06
15630.0 5.0636e-06
15650.0 5.0534e-06
15670.0 5.0428e-06
15690.0 5.0325e-06
15710.0 5.0225e-06
15730.0 5.0121e-06
15750.0 5.0017e-06
15770.0 4.9917e-06
15790.0 4.9817e-06
15810.0 4.9711e-06
15830.0 4.961e-06
15850.0 4.9512e-06
15870.0 4.941e-06
15890.0 4.9308e-06
15910.0 4.921e-06
15930.0 4.911e-06
15950.0 4.9007e-06
15970.0 4.8907e-06
15990.0 4.881e-06
16010.0 4.8708e-06
16030.0 4.8606e-06
16050.0 4.851e-06
16070.0 4.8411e-06
16090.0 4.8309e-06
16110.0 4.8211e-06
16130.0 4.8115e-06
16150.0 4.8012e-06
16170.0 4.7911e-06
16190.0 4.7814e-06
16210.0 4.7715e-06
16230.0 4.7613e-06
16250.0 4.7515e-06
16270.0 4.7419e-06
16290.0 4.7317e-06
16310.0 4.7217e-06
16330.0 4.712e-06
16350.0 4.7021e-06
16370.0 4.6916e-06
16390.0 4.6818e-06
16410.0 4.6721e-06
16430.0 4.6619e-06
16450.0 4.6518e-06
16470.0 4.6422e-06
16490.0 4.6321e-06
16510.0 4.6218e-06
16530.0 4.6119e-06
16550.0 4.602e-06
16570.0 4.5916e-06
16590.0 4.5813e-06
16610.0 4.5716e-06
16630.0 4.5614e-06
16650.0 4.5511e-06
16670.0 4.5412e-06
16690.0 4.5312e-06
16710.0 4.5206e-06
16730.0 4.5103e-06
16750.0 4.5003e-06
16770.0 4.49e-06
16790.0 4.4794e-06
16810.0 4.4693e-06
16830.0 4.4592e-06
16850.0 4.4486e-06
16870.0 4.4382e-06
16890.0 4.4281e-06
16910.0 4.4175e-06
16930.0 4.4067e-06
16950.0 4.3965e-06
16970.0 4.3861e-06
16990.0 4.3753e-06
17010.0 4.3648e-06
17030.0 4.3546e-06
17050.0 4.3438e-06
17070.0 4.333e-06
17090.0 4.3225e-06
17110.0 4.3119e-06
17130.0 4.3008e-06
17150.0 4.2901e-06
17170.0 4.2796e-06
17190.0 4.2687e-06
17210.0 4.2577e-06
17230.0 4.2472e-06
17250.0 4.2364e-06
17270.0 4.2251e-06
17290.0 4.2142e-06
17310.0 4.2035e-06
17330.0 4.1923e-06
17350.0 4.181e-06
17370.0 4.1704e-06
17390.0 4.1593e-06
17410.0 4.148e-06
17430.0 4.137e-06
17450.0 4.1262e-06
17470.0 4.1146e-06
17490.0 4.1032e-06
17510.0 4.0922e-06
17530.0 4.081e-06
17550.0 4.0694e-06
17570.0 4.0582e-06
17590.0 4.0472e-06
17610.0 4.0356e-06
17630.0 4.0241e-06
17650.0 4.0129e-06
17670.0 4.0015e-06
17690.0 3.9895e-06
17710.0 3.9782e-06
17730.0 3.9669e-06
17750.0 3.9551e-06
17770.0 3.9435e-06
17790.0 3.9323e-06
17810.0 3.9205e-06
17830.0 3.9086e-06
17850.0 3.8971e-06
17870.0 3.8855e-06
17890.0 3.8735e-06
17910.0 3.8616e-06
17930.0 3.8503e-06
17950.0 3.8384e-06
17970.0 3.8264e-06
17990.0 3.8148e-06
18010.0 3.8032e-06
18030.0 3.7908e-06
18050.0 3.7789e-06
18070.0 3.7673e-06
18090.0 3.7552e-06
18110.0 3.743e-06
18130.0 3.7313e-06
18150.0 3.7195e-06
18170.0 3.7072e-06
18190.0 3.6952e-06
18210.0 3.6835e-06
18230.0 3.6712e-06
18250.0 3.6588e-06
18270.0 3.647e-06
18290.0 3.635e-06
18310.0 3.6226e-06
18330.0 3.6105e-06
18350.0 3.5987e-06
18370.0 3.5863e-06
18390.0 3.574e-06
18410.0 3.562e-06
18430.0 3.5498e-06
18450.0 3.5372e-06
18470.0 3.525e-06
18490.0 3.5131e-06
18510.0 3.5007e-06
18530.0 3.4883e-06
18550.0 3.4763e-06
18570.0 3.464e-06
18590.0 3.4514e-06
18610.0 3.4392e-06
18630.0 3.427e-06
18650.0 3.4145e-06
18670.0 3.4019e-06
18690.0 3.39e-06
18710.0 3.3776e-06
18730.0 3.365e-06
18750.0 3.3528e-06
18770.0 3.3407e-06
18790.0 3.3279e-06
18810.0 3.3154e-06
18830.0 3.3033e-06
18850.0 3.2908e-06
18870.0 3.2782e-06
18890.0 3.266e-06
18910.0 3.2538e-06
18930.0 3.2411e-06
18950.0 3.2286e-06
18970.0 3.2165e-06
18990.0 3.204e-06
19010.0 3.1911e-06
19030.0 3.1789e-06
19050.0 3.1667e-06
19070.0 3.154e-06
19090.0 3.1416e-06
19110.0 3.1295e-06
19130.0 3.1169e-06
19150.0 3.1042e-06
19170.0 3.0919e-06
19190.0 3.0796e-06
19210.0 3.0668e-06
19230.0 3.0543e-06
19250.0 3.0422e-06
19270.0 3.0297e-06
19290.0 3.0171e-06
19310.0 3.0049e-06
19330.0 2.9926e-06
19350.0 2.9798e-06
19370.0 2.9673e-06
19390.0 2.9552e-06
19410.0 2.9426e-06
19430.0 2.9299e-06
19450.0 2.9178e-06
19470.0 2.9056e-06
19490.0 2.8929e-06
19510.0 2.8805e-06
19530.0 2.8684e-06
19550.0 2.8558e-06
19570.0 2.843e-06
19590.0 2.831e-06
19610.0 2.8186e-06
19630.0 2.806e-06
19650.0 2.7938e-06
19670.0 2.7817e-06
19690.0 2.7691e-06
19710.0 2.7566e-06
19730.0 2.7445e-06
19750.0 2.7322e-06
19770.0 2.7194e-06
19790.0 2.7072e-06
19810.0 2.6951e-06
19830.0 2.6826e-06
19850.0 2.67e-06
19870.0 2.6576e-06
19890.0 2.6444e-06
19910.0 2.6298e-06
19930.0 2.6142e-06
19950.0 2.5963e-06
19970.0 2.5743e-06
19990.0 2.5479e-06
20010.0 2.2668e-06
20030.0 2.234e-06
20050.0 2.1956e-06
20070.0 2.154e-06
20090.0 2.1093e-06
20110.0 2.0587e-06
20130.0 2.0074e-06
20150.0 1.9566e-06
20170.0 1.904e-06
20190.0 1.8505e-06
20210.0 1.8001e-06
20230.0 1.7509e-06
20250.0 1.7016e-06
20270.0 1.6558e-06
20290.0 1.614e-06
20310.0 1.5743e-06
20330.0 1.5372e-06
20350.0 1.5064e-06
20370.0 1.4791e-06
20390.0 1.4551e-06
20410.0 1.4358e-06
20430.0 1.4208e-06
20450.0 1.409e-06
20470.0 1.4011e-06
20490.0 1.3968e-06
20510.0 1.3956e-06
20530.0 1.3973e-06
20550.0 1.4016e-06
20570.0 1.4079e-06
20590.0 1.4164e-06
20610.0 1.4267e-06
20630.0 1.438e-06
20650.0 1.4507e-06
20670.0 1.4652e-06
20690.0 1.48e-06
20710.0 1.4953e-06
20730.0 1.5117e-06
20750.0 1.5289e-06
20770.0 1.5458e-06
20790.0 1.5636e-06
20810.0 1.5824e-06
20830.0 1.6011e-06
20850.0 1.6199e-06
20870.0 1.64e-06
20890.0 1.6605e-06
20910.0 1.6803e-06
20930.0 1.7008e-06
20950.0 1.7221e-06
20970.0 1.7428e-06
20990.0 1.7633e-06
21010.0 1.7848e-06
21030.0 1.8058e-06
21050.0 1.8259e-06
21070.0 1.8459e-06
21090.0 1.866e-06
21110.0 1.8844e-06
21130.0 1.9016e-06
21150.0 1.9183e-06
21170.0 1.9334e-06
21190.0 1.9464e-06
21210.0 1.9581e-06
21230.0 1.9678e-06
21250.0 1.9747e-06
21270.0 1.9791e-06
21290.0 1.9808e-06
21310.0 1.9792e-06
21330.0 1.9745e-06
21350.0 1.9663e-06
21370.0 1.9543e-06
21390.0 1.939e-06
21410.0 1.9202e-06
21430.0 1.8965e-06
21450.0 1.8699e-06
21470.0 1.8409e-06
21490.0 1.808e-06
21510.0 1.7721e-06
21530.0 1.7355e-06
21550.0 1.6972e-06
21570.0 1.6563e-06
21590.0 1.6161e-06
21610.0 1.5773e-06
21630.0 1.5384e-06
21650.0 1.5005e-06
21670.0 1.4675e-06
21690.0 1.4372e-06
21710.0 1.4098e-06
21730.0 1.3875e-06
21750.0 1.3702e-06
21770.0 1.357e-06
21790.0 1.3494e-06
21810.0 1.3473e-06
21830.0 1.3503e-06
21850.0 1.3588e-06
21870.0 1.3719e-06
21890.0 1.3889e-06
21910.0 1.4108e-06
21930.0 1.4363e-06
21950.0 1.464e-06
21970.0 1.4947e-06
21990.0 1.5292e-06
22010.0 1.5636e-06
22030.0 1.5986e-06
22050.0 1.6353e-06
22070.0 1.6723e-06
22090.0 1.7072e-06
22110.0 1.7425e-06
22130.0 1.7777e-06
22150.0 1.8106e-06
22170.0 1.8416e-06
22190.0 1.8723e-06
22210.0 1.9009e-06
22230.0 1.926e-06
22250.0 1.9497e-06
22270.0 1.9715e-06
22290.0 1.9901e-06
22310.0 2.0061e-06
22330.0 2.0202e-06
22350.0 2.0311e-06
22370.0 2.0388e-06
22390.0 2.0436e-06
22410.0 2.0451e-06
22430.0 2.0432e-06
22450.0 2.0379e-06
22470.0 2.0288e-06
22490.0 2.016e-06
22510.0 2.0001e-06
22530.0 1.9797e-06
22550.0 1.955e-06
22570.0 1.9275e-06
22590.0 1.8965e-06
22610.0 1.8608e-06
22630.0 1.8222e-06
