#lamb flux
1010.0 2.1334e-07
1030.0 2.3595e-07
1050.0 2.6196e-07
1070.0 2.9124e-07
1090.0 3.245e-07
1110.0 3.5862e-07
1130.0 3.9295e-07
1150.0 4.2892e-07
1170.0 4.6602e-07
1190.0 5.0119e-07
1210.0 5.3685e-07
1230.0 5.7369e-07
1250.0 6.0979e-07
1270.0 6.4484e-07
1290.0 6.8188e-07
1310.0 7.189e-07
1330.0 7.5439e-07
1350.0 7.9029e-07
1370.0 8.2735e-07
1390.0 8.6349e-07
1410.0 8.9855e-07
1430.0 9.3521e-07
1450.0 9.7186e-07
1470.0 1.0073e-06
1490.0 1.0431e-06
1510.0 1.0809e-06
1530.0 1.1168e-06
1550.0 1.1522e-06
1570.0 1.1888e-06
1590.0 1.2254e-06
1610.0 1.2604e-06
1630.0 1.2965e-06
1650.0 1.3336e-06
1670.0 1.3695e-06
1690.0 1.405e-06
1710.0 1.4418e-06
1730.0 1.4789e-06
1750.0 1.5138e-06
1770.0 1.5498e-06
1790.0 1.5865e-06
1810.0 1.6221e-06
1830.0 1.6571e-06
1850.0 1.6944e-06
1870.0 1.7307e-06
1890.0 1.7659e-06
1910.0 1.8018e-06
1930.0 1.8387e-06
1950.0 1.874e-06
1970.0 1.9089e-06
1990.0 1.9453e-06
2010.0 1.9811e-06
2030.0 2.0157e-06
2050.0 2.0515e-06
2070.0 2.0882e-06
2090.0 2.123e-06
2110.0 2.1577e-06
2130.0 2.1935e-06
2150.0 2.2287e-06
2170.0 2.2625e-06
2190.0 2.2976e-06
2210.0 2.333e-06
2230.0 2.367e-06
2250.0 2.4009e-06
2270.0 2.4364e-06
2290.0 2.4708e-06
2310.0 2.5039e-06
2330.0 2.5383e-06
2350.0 2.5736e-06
2370.0 2.6088e-06
2390.0 2.647e-06
2410.0 2.6921e-06
2430.0 2.7441e-06
2450.0 2.8062e-06
2470.0 2.8857e-06
2490.0 2.986e-06
2510.0 3.1e-06
2530.0 3.2372e-06
2550.0 3.409e-06
2570.0 3.6227e-06
2590.0 3.9006e-06
2610.0 4.3167e-06
2630.0 4.9108e-06
2650.0 5.6877e-06
2670.0 6.6921e-06
2690.0 7.9263e-06
2710.0 9.2439e-06
2730.0 1.0546e-05
2750.0 1.1828e-05
2770.0 1.2943e-05
2790.0 1.3829e-05
2810.0 1.4532e-05
2830.0 1.5081e-05
2850.0 1.5456e-05
2870.0 1.5731e-05
2890.0 1.5949e-05
2910.0 1.6123e-05
2930.0 1.6265e-05
2950.0 1.64e-05
2970.0 1.6533e-05
2990.0 1.6657e-05
3010.0 0.00047083
3030.0 0.00047435
3050.0 0.00047775
3070.0 0.00048066
3090.0 0.00048317
3110.0 0.00048472
3130.0 0.00048466
3150.0 0.00048251
3170.0 0.00047734
3190.0 0.00046922
3210.0 0.00045893
3230.0 0.00044715
3250.0 0.00043552
3270.0 0.00042703
3290.0 0.00042231
3310.0 0.00042307
3330.0 0.0004292
3350.0 0.00043986
3370.0 0.00045508
3390.0 0.00047427
3410.0 0.00049515
3430.0 0.00051859
3450.0 0.00054558
3470.0 0.00057505
3490.0 0.00060628
3510.0 0.00064159
3530.0 0.00067939
3550.0 0.00071766
3570.0 0.00075759
3590.0 0.00080101
3610.0 0.00084575
3630.0 0.00089036
3650.0 0.00093663
3670.0 0.00097888
3690.0 0.0010105
3710.0 0.0010286
3730.0 0.0010292
3750.0 0.0010148
3770.0 0.0010092
3790.0 0.0010032
3810.0 0.00097855
3830.0 0.0010088
3850.0 0.001128
3870.0 0.0011934
3890.0 0.001188
3910.0 0.001193
3930.0 0.0012244
3950.0 0.0012438
3970.0 0.0011332
3990.0 0.00097506
4010.0 0.0029224
4030.0 0.0035409
4050.0 0.0040594
4070.0 0.0035222
4090.0 0.0031901
4110.0 0.0028149
4130.0 0.0025909
4150.0 0.0027559
4170.0 0.0027147
4190.0 0.0028936
4210.0 0.0028672
4230.0 0.0030327
4250.0 0.0035878
4270.0 0.0036299
4290.0 0.003345
4310.0 0.0034756
4330.0 0.003697
4350.0 0.0041453
4370.0 0.0047174
4390.0 0.0044268
4410.0 0.0032706
4430.0 0.0027688
4450.0 0.0025442
4470.0 0.0019528
4490.0 0.0021073
4510.0 0.0031831
4530.0 0.0036711
4550.0 0.0037029
4570.0 0.0041667
4590.0 0.0047463
4610.0 0.0064016
4630.0 0.0083143
4650.0 0.0090168
4670.0 0.0083504
4690.0 0.0079678
4710.0 0.0084225
4730.0 0.0079485
4750.0 0.0059425
4770.0 0.004359
4790.0 0.0040705
4810.0 0.0038798
4830.0 0.0035519
4850.0 0.0038976
4870.0 0.0051492
4890.0 0.0060723
4910.0 0.0053277
4930.0 0.0047142
4950.0 0.0051793
4970.0 0.0066421
4990.0 0.0090017
5010.0 0.010355
5030.0 0.0091309
5050.0 0.0061777
5070.0 0.0040713
5090.0 0.0032829
5110.0 0.0033762
5130.0 0.0038966
5150.0 0.0042217
5170.0 0.0041584
5190.0 0.0038857
5210.0 0.0040614
5230.0 0.0042695
5250.0 0.0046013
5270.0 0.0049644
5290.0 0.0055015
5310.0 0.0064036
5330.0 0.0070863
5350.0 0.0070411
5370.0 0.0073959
5390.0 0.0084869
5410.0 0.0084792
5430.0 0.0074986
5450.0 0.0068894
5470.0 0.0073153
5490.0 0.0089371
5510.0 0.011174
5530.0 0.012816
5550.0 0.012387
5570.0 0.011261
5590.0 0.0097913
5610.0 0.0090297
5630.0 0.0087559
5650.0 0.0083391
5670.0 0.0079019
5690.0 0.0070643
5710.0 0.0068877
5730.0 0.0063446
5750.0 0.0044733
5770.0 0.0034899
5790.0 0.0039547
5810.0 0.0044656
5830.0 0.0054798
5850.0 0.0065231
5870.0 0.0072374
5890.0 0.0073599
5910.0 0.0072206
5930.0 0.0068731
5950.0 0.0070035
5970.0 0.0079832
5990.0 0.0075062
6010.0 0.0062924
6030.0 0.0053162
6050.0 0.0046297
6070.0 0.0046044
6090.0 0.0049927
6110.0 0.0055827
6130.0 0.0056682
6150.0 0.004877
6170.0 0.0042902
6190.0 0.004828
6210.0 0.0063826
6230.0 0.0083758
6250.0 0.0090721
6270.0 0.0079278
6290.0 0.0066701
6310.0 0.0052072
6330.0 0.0039897
6350.0 0.0035587
6370.0 0.0037423
6390.0 0.0043264
6410.0 0.0053346
6430.0 0.0062293
6450.0 0.007128
6470.0 0.0081617
6490.0 0.0098588
6510.0 0.011023
6530.0 0.010815
6550.0 0.0097793
6570.0 0.0083018
6590.0 0.0074859
6610.0 0.0064548
6630.0 0.0058478
6650.0 0.0055278
6670.0 0.0053702
6690.0 0.0048523
6710.0 0.0044108
6730.0 0.003177
6750.0 0.0031497
6770.0 0.0034235
6790.0 0.003935
6810.0 0.0036006
6830.0 0.0037077
6850.0 0.0034678
6870.0 0.0031679
6890.0 0.0030416
6910.0 0.0032413
6930.0 0.0030359
6950.0 0.0031234
6970.0 0.0032853
6990.0 0.0037291
7010.0 0.0037608
7030.0 0.0038206
7050.0 0.0036435
7070.0 0.0034716
7090.0 0.0034818
7110.0 0.0035825
7130.0 0.0038553
7150.0 0.0040947
7170.0 0.0045182
7190.0 0.0049667
7210.0 0.0048805
7230.0 0.0050172
7250.0 0.0053918
7270.0 0.0058757
7290.0 0.0069739
7310.0 0.0075674
7330.0 0.0073145
7350.0 0.0066155
7370.0 0.0057561
7390.0 0.0055841
7410.0 0.0059342
7430.0 0.0065951
7450.0 0.0071833
7470.0 0.0071173
7490.0 0.0064896
7510.0 0.0073512
7530.0 0.0072707
7550.0 0.0065351
7570.0 0.0051051
7590.0 0.0035096
7610.0 0.0030123
7630.0 0.0034226
7650.0 0.0040468
7670.0 0.0050365
7690.0 0.0055423
7710.0 0.0057758
7730.0 0.0060697
7750.0 0.0068139
7770.0 0.0069211
7790.0 0.0063574
7810.0 0.0058008
7830.0 0.0059819
7850.0 0.005815
7870.0 0.0053314
7890.0 0.0044794
7910.0 0.0036412
7930.0 0.0034768
7950.0 0.0031675
7970.0 0.0029321
7990.0 0.0029154
8010.0 0.00021602
8030.0 0.0002132
8050.0 0.00021033
8070.0 0.00021311
8090.0 0.00022901
8110.0 0.0002251
8130.0 0.00018564
8150.0 0.0001808
8170.0 0.0001557
8190.0 0.00014753
8210.0 0.00019165
8230.0 0.00021339
8250.0 0.00019226
8270.0 0.00016733
8290.0 0.00016316
8310.0 0.00012559
8330.0 8.4644e-05
8350.0 6.0074e-05
8370.0 3.7829e-05
8390.0 6.9187e-05
8410.0 8.062e-05
8430.0 9.9377e-05
8450.0 0.00011669
8470.0 0.00014507
8490.0 0.00014403
8510.0 0.00014166
8530.0 0.00014781
8550.0 0.0001995
8570.0 0.00023622
8590.0 0.00025482
8610.0 0.00032192
8630.0 0.00038778
8650.0 0.00040557
8670.0 0.00043104
8690.0 0.00043354
8710.0 0.00039262
8730.0 0.00036523
8750.0 0.00032236
8770.0 0.00030586
8790.0 0.00030051
8810.0 0.00028798
8830.0 0.00023024
8850.0 0.00016852
8870.0 0.00012903
8890.0 0.00012619
8910.0 0.00014465
8930.0 0.00016456
8950.0 0.00016772
8970.0 0.0001685
8990.0 0.00015026
9010.0 0.0015735
9030.0 0.0014258
9050.0 0.0014326
9070.0 0.001444
9090.0 0.0014539
9110.0 0.0014661
9130.0 0.0014756
9150.0 0.0014829
9170.0 0.0014908
9190.0 0.0014991
9210.0 0.0015079
9230.0 0.0015172
9250.0 0.0015267
9270.0 0.0015365
9290.0 0.0015466
9310.0 0.0015567
9330.0 0.0015671
9350.0 0.0015778
9370.0 0.0015887
9390.0 0.0015997
9410.0 0.001611
9430.0 0.0016226
9450.0 0.0016342
9470.0 0.001646
9490.0 0.0016582
9510.0 0.0016705
9530.0 0.0016829
9550.0 0.0016957
9570.0 0.0017088
9590.0 0.0017218
9610.0 0.0017351
9630.0 0.0017488
9650.0 0.0017625
9670.0 0.0017763
9690.0 0.0017905
9710.0 0.0018049
9730.0 0.0018193
9750.0 0.0018339
9770.0 0.001849
9790.0 0.001864
9810.0 0.0018791
9830.0 0.0018945
9850.0 0.0019102
9870.0 0.0019257
9890.0 0.0019416
9910.0 0.0019577
9930.0 0.0019738
9950.0 0.00199
9970.0 0.0020065
9990.0 0.0020232
10010.0 0.0017556
10030.0 0.00177
10050.0 0.0017847
10070.0 0.0017999
10090.0 0.0018143
10110.0 0.001829
10130.0 0.0018437
10150.0 0.0018584
10170.0 0.0018733
10190.0 0.0018884
10210.0 0.0019034
10230.0 0.0019183
10250.0 0.0019335
10270.0 0.0019486
10290.0 0.0019636
10310.0 0.0019787
10330.0 0.001994
10350.0 0.0020091
10370.0 0.002024
10390.0 0.0020392
10410.0 0.0020543
10430.0 0.0020691
10450.0 0.002084
10470.0 0.002099
10490.0 0.0021138
10510.0 0.0021284
10530.0 0.0021432
10550.0 0.0021579
10570.0 0.0021722
10590.0 0.0021866
10610.0 0.002201
10630.0 0.002215
10650.0 0.0022289
10670.0 0.002243
10690.0 0.0022567
10710.0 0.0022702
10730.0 0.0022837
10750.0 0.0022973
10770.0 0.0023102
10790.0 0.0023231
10810.0 0.002336
10830.0 0.0023484
10850.0 0.0023603
10870.0 0.0023717
10890.0 0.0023818
10910.0 0.0023896
10930.0 0.002394
10950.0 0.002393
10970.0 0.0023849
10990.0 0.002369
11010.0 0.0023422
11030.0 0.002305
11050.0 0.0022596
11070.0 0.0022053
11090.0 0.00214
11110.0 0.0020725
11130.0 0.0020021
11150.0 0.0019263
11170.0 0.0018482
11190.0 0.0017724
11210.0 0.0016941
11230.0 0.0016139
11250.0 0.0015372
11270.0 0.0014635
11290.0 0.0013898
11310.0 0.0013199
11330.0 0.0012583
11350.0 0.0012002
11370.0 0.0011464
11390.0 0.0010999
11410.0 0.0010593
11430.0 0.0010215
11450.0 0.00098893
11470.0 0.00096077
11490.0 0.00093458
11510.0 0.00090934
11530.0 0.00088591
11550.0 0.00086264
11570.0 0.00083782
11590.0 0.00081211
11610.0 0.00078594
11630.0 0.00075746
11650.0 0.00072697
11670.0 0.00069692
11690.0 0.00066644
11710.0 0.000635
11730.0 0.00060454
11750.0 0.00057635
11770.0 0.0005487
11790.0 0.00052279
11810.0 0.00049998
11830.0 0.00047958
11850.0 0.00046079
11870.0 0.00044507
11890.0 0.000432
11910.0 0.00042052
11930.0 0.00041065
11950.0 0.00040244
11970.0 0.00039509
11990.0 0.00038815
12010.0 0.00038173
12030.0 0.00037555
12050.0 0.00036915
12070.0 0.0003625
12090.0 0.00035608
12110.0 0.00034957
12130.0 0.00034305
12150.0 0.00033703
12170.0 0.00033178
12190.0 0.00032724
12210.0 0.00032407
12230.0 0.00032254
12250.0 0.00032279
12270.0 0.00032522
12290.0 0.00032982
12310.0 0.00033642
12330.0 0.00034566
12350.0 0.00035718
12370.0 0.0003703
12390.0 0.00038543
12410.0 0.00040316
12430.0 0.00042117
12450.0 0.00043983
12470.0 0.00045967
12490.0 0.00047959
12510.0 0.00049828
12530.0 0.00051688
12550.0 0.00053482
12570.0 0.00055066
12590.0 0.00056456
12610.0 0.00057695
12630.0 0.00058682
12650.0 0.00059364
12670.0 0.00059812
12690.0 0.00059991
12710.0 0.00059893
12730.0 0.00059545
12750.0 0.00058926
12770.0 0.00058076
12790.0 0.00057045
12810.0 0.00055814
12830.0 0.0005439
12850.0 0.00052901
12870.0 0.00051326
12890.0 0.00049622
12910.0 0.0004789
12930.0 0.00046183
12950.0 0.00044402
12970.0 0.00042588
12990.0 0.00040873
13010.0 0.00039179
13030.0 0.00037466
13050.0 0.0003582
13070.0 0.00034279
13090.0 0.00032732
13110.0 0.00031236
13130.0 0.00029856
13150.0 0.00028549
13170.0 0.0002727
13190.0 0.00026132
13210.0 0.0002513
13230.0 0.00024214
13250.0 0.00023425
13270.0 0.00022803
13290.0 0.00022319
13310.0 0.00021986
13330.0 0.00021834
13350.0 0.00021852
13370.0 0.00022048
13390.0 0.00022433
13410.0 0.00022953
13430.0 0.0002363
13450.0 0.00024465
13470.0 0.00025393
13490.0 0.00026375
13510.0 0.00027483
13530.0 0.00028606
13550.0 0.00029681
13570.0 0.00030741
13590.0 0.00031774
13610.0 0.00032693
13630.0 0.00033496
13650.0 0.00034228
13670.0 0.00034836
13690.0 0.00035306
13710.0 0.0003567
13730.0 0.0003593
13750.0 0.0003606
13770.0 0.00036089
13790.0 0.00036024
13810.0 0.00035865
13830.0 0.0003563
13850.0 0.00035311
13870.0 0.0003491
13890.0 0.00034451
13910.0 0.00033933
13930.0 0.00033334
13950.0 0.0003268
13970.0 0.00032012
13990.0 0.00031283
14010.0 0.00030509
14030.0 0.00029737
14050.0 0.00028958
14070.0 0.00028137
14090.0 0.00027349
14110.0 0.00026609
14130.0 0.00025892
14150.0 0.00025217
14170.0 0.0002464
14190.0 0.00024142
14210.0 0.00023719
14230.0 0.00023406
14250.0 0.00023204
14270.0 0.00023106
14290.0 0.00023127
14310.0 0.00023256
14330.0 0.00023487
14350.0 0.00023828
14370.0 0.00024252
14390.0 0.00024734
14410.0 0.00025302
14430.0 0.00025925
14450.0 0.00026562
14470.0 0.00027223
14490.0 0.00027925
14510.0 0.00028597
14530.0 0.00029235
14550.0 0.00029872
14570.0 0.00030485
14590.0 0.00031042
14610.0 0.00031581
14630.0 0.00032114
14650.0 0.00032611
14670.0 0.00033091
14690.0 0.00033591
14710.0 0.00034117
14730.0 0.00034643
14750.0 0.00035225
14770.0 0.00035886
14790.0 0.00036603
14810.0 0.00037379
14830.0 0.00038299
14850.0 0.00039299
14870.0 0.00040342
14890.0 0.00041467
14910.0 0.00042662
14930.0 0.00043811
14950.0 0.00044885
14970.0 0.00045902
14990.0 0.00046754
15010.0 0.00047406
15030.0 0.00047889
15050.0 0.00048208
15070.0 0.00048364
15090.0 0.00048419
15110.0 0.00048403
15130.0 0.00048342
15150.0 0.0004826
15170.0 0.00048164
15190.0 0.0004806
15210.0 0.00047958
15230.0 0.00047856
15250.0 0.0004775
15270.0 0.00047646
15290.0 0.00047547
15310.0 0.00047445
15330.0 0.00047343
15350.0 0.00047244
15370.0 0.00047146
15390.0 0.00047043
15410.0 0.00046944
15430.0 0.00046847
15450.0 0.00046749
15470.0 0.00046649
15490.0 0.00046554
15510.0 0.00046459
15530.0 0.00046361
15550.0 0.00046265
15570.0 0.00046172
15590.0 0.00046075
15610.0 0.00045977
15630.0 0.00045885
15650.0 0.00045792
15670.0 0.00045696
15690.0 0.00045603
15710.0 0.00045513
15730.0 0.00045418
15750.0 0.00045324
15770.0 0.00045233
15790.0 0.00045142
15810.0 0.00045046
15830.0 0.00044955
15850.0 0.00044866
15870.0 0.00044773
15890.0 0.00044681
15910.0 0.00044593
15930.0 0.00044502
15950.0 0.00044408
15970.0 0.00044318
15990.0 0.0004423
16010.0 0.00044138
16030.0 0.00044045
16050.0 0.00043958
16070.0 0.00043868
16090.0 0.00043776
16110.0 0.00043687
16130.0 0.000436
16150.0 0.00043507
16170.0 0.00043415
16190.0 0.00043327
16210.0 0.00043238
16230.0 0.00043145
16250.0 0.00043056
16270.0 0.00042969
16290.0 0.00042877
16310.0 0.00042786
16330.0 0.00042699
16350.0 0.00042609
16370.0 0.00042514
16390.0 0.00042425
16410.0 0.00042337
16430.0 0.00042245
16450.0 0.00042153
16470.0 0.00042066
16490.0 0.00041974
16510.0 0.00041881
16530.0 0.00041791
16550.0 0.00041702
16570.0 0.00041607
16590.0 0.00041515
16610.0 0.00041426
16630.0 0.00041334
16650.0 0.00041241
16670.0 0.0004115
16690.0 0.0004106
16710.0 0.00040964
16730.0 0.00040871
16750.0 0.0004078
16770.0 0.00040686
16790.0 0.00040591
16810.0 0.000405
16830.0 0.00040408
16850.0 0.00040312
16870.0 0.00040218
16890.0 0.00040126
16910.0 0.0004003
16930.0 0.00039932
16950.0 0.00039839
16970.0 0.00039745
16990.0 0.00039648
17010.0 0.00039552
17030.0 0.0003946
17050.0 0.00039362
17070.0 0.00039264
17090.0 0.00039169
17110.0 0.00039073
17130.0 0.00038972
17150.0 0.00038875
17170.0 0.00038781
17190.0 0.00038682
17210.0 0.00038582
17230.0 0.00038487
17250.0 0.00038389
17270.0 0.00038287
17290.0 0.00038188
17310.0 0.00038091
17330.0 0.00037989
17350.0 0.00037887
17370.0 0.0003779
17390.0 0.00037691
17410.0 0.00037588
17430.0 0.00037488
17450.0 0.0003739
17470.0 0.00037285
17490.0 0.00037182
17510.0 0.00037082
17530.0 0.0003698
17550.0 0.00036876
17570.0 0.00036775
17590.0 0.00036674
17610.0 0.00036569
17630.0 0.00036465
17650.0 0.00036364
17670.0 0.0003626
17690.0 0.00036151
17710.0 0.00036049
17730.0 0.00035947
17750.0 0.0003584
17770.0 0.00035735
17790.0 0.00035633
17810.0 0.00035526
17830.0 0.00035419
17850.0 0.00035314
17870.0 0.0003521
17890.0 0.000351
17910.0 0.00034993
17930.0 0.0003489
17950.0 0.00034782
17970.0 0.00034674
17990.0 0.00034569
18010.0 0.00034463
18030.0 0.00034351
18050.0 0.00034243
18070.0 0.00034138
18090.0 0.00034029
18110.0 0.00033918
18130.0 0.00033812
18150.0 0.00033705
18170.0 0.00033594
18190.0 0.00033485
18210.0 0.00033379
18230.0 0.00033267
18250.0 0.00033155
18270.0 0.00033048
18290.0 0.00032939
18310.0 0.00032827
18330.0 0.00032717
18350.0 0.0003261
18370.0 0.00032498
18390.0 0.00032386
18410.0 0.00032278
18430.0 0.00032167
18450.0 0.00032053
18470.0 0.00031943
18490.0 0.00031834
18510.0 0.00031722
18530.0 0.0003161
18550.0 0.00031502
18570.0 0.0003139
18590.0 0.00031275
18610.0 0.00031164
18630.0 0.00031055
18650.0 0.00030941
18670.0 0.00030827
18690.0 0.00030719
18710.0 0.00030607
18730.0 0.00030493
18750.0 0.00030382
18770.0 0.00030273
18790.0 0.00030156
18810.0 0.00030043
18830.0 0.00029933
18850.0 0.00029821
18870.0 0.00029706
18890.0 0.00029595
18910.0 0.00029485
18930.0 0.0002937
18950.0 0.00029257
18970.0 0.00029147
18990.0 0.00029034
19010.0 0.00028916
19030.0 0.00028806
19050.0 0.00028695
19070.0 0.00028581
19090.0 0.00028468
19110.0 0.00028359
19130.0 0.00028244
19150.0 0.00028129
19170.0 0.00028018
19190.0 0.00027906
19210.0 0.00027791
19230.0 0.00027677
19250.0 0.00027568
19270.0 0.00027454
19290.0 0.0002734
19310.0 0.0002723
19330.0 0.00027118
19350.0 0.00027002
19370.0 0.00026889
19390.0 0.00026779
19410.0 0.00026665
19430.0 0.0002655
19450.0 0.00026441
19470.0 0.00026329
19490.0 0.00026214
19510.0 0.00026102
19530.0 0.00025993
19550.0 0.00025878
19570.0 0.00025763
19590.0 0.00025653
19610.0 0.00025542
19630.0 0.00025427
19650.0 0.00025316
19670.0 0.00025207
19690.0 0.00025093
19710.0 0.00024979
19730.0 0.0002487
19750.0 0.00024758
19770.0 0.00024642
19790.0 0.00024532
19810.0 0.00024422
19830.0 0.00024309
19850.0 0.00024195
19870.0 0.00024082
19890.0 0.00023962
19910.0 0.0002383
19930.0 0.00023689
19950.0 0.00023527
19970.0 0.00023328
19990.0 0.00023088
20010.0 0.00020541
20030.0 0.00020244
20050.0 0.00019896
20070.0 0.00019519
20090.0 0.00019114
20110.0 0.00018655
20130.0 0.0001819
20150.0 0.0001773
20170.0 0.00017253
20190.0 0.00016769
20210.0 0.00016312
20230.0 0.00015866
20250.0 0.00015419
20270.0 0.00015004
20290.0 0.00014626
20310.0 0.00014266
20330.0 0.0001393
20350.0 0.00013651
20370.0 0.00013403
20390.0 0.00013186
20410.0 0.0001301
20430.0 0.00012875
20450.0 0.00012768
20470.0 0.00012696
20490.0 0.00012658
20510.0 0.00012646
20530.0 0.00012662
20550.0 0.00012701
20570.0 0.00012758
20590.0 0.00012835
20610.0 0.00012928
20630.0 0.00013031
20650.0 0.00013146
20670.0 0.00013277
20690.0 0.00013411
20710.0 0.00013549
20730.0 0.00013699
20750.0 0.00013855
20770.0 0.00014008
20790.0 0.00014169
20810.0 0.00014339
20830.0 0.00014509
20850.0 0.00014679
20870.0 0.00014861
20890.0 0.00015047
20910.0 0.00015226
20930.0 0.00015412
20950.0 0.00015605
20970.0 0.00015793
20990.0 0.00015978
21010.0 0.00016173
21030.0 0.00016364
21050.0 0.00016546
21070.0 0.00016727
21090.0 0.00016909
21110.0 0.00017076
21130.0 0.00017232
21150.0 0.00017383
21170.0 0.0001752
21190.0 0.00017638
21210.0 0.00017743
21230.0 0.00017832
21250.0 0.00017894
21270.0 0.00017934
21290.0 0.00017949
21310.0 0.00017935
21330.0 0.00017893
21350.0 0.00017818
21370.0 0.00017709
21390.0 0.0001757
21410.0 0.00017401
21430.0 0.00017186
21450.0 0.00016944
21470.0 0.00016681
21490.0 0.00016384
21510.0 0.00016058
21530.0 0.00015726
21550.0 0.00015379
21570.0 0.00015009
21590.0 0.00014645
21610.0 0.00014293
21630.0 0.00013941
21650.0 0.00013597
21670.0 0.00013298
21690.0 0.00013023
21710.0 0.00012776
21730.0 0.00012573
21750.0 0.00012416
21770.0 0.00012297
21790.0 0.00012228
21810.0 0.00012209
21830.0 0.00012236
21850.0 0.00012313
21870.0 0.00012432
21890.0 0.00012586
21910.0 0.00012784
21930.0 0.00013016
21950.0 0.00013267
21970.0 0.00013545
21990.0 0.00013857
22010.0 0.00014169
22030.0 0.00014486
22050.0 0.00014819
22070.0 0.00015154
22090.0 0.00015471
22110.0 0.0001579
22130.0 0.00016109
22150.0 0.00016407
22170.0 0.00016688
22190.0 0.00016966
22210.0 0.00017225
22230.0 0.00017453
22250.0 0.00017667
22270.0 0.00017865
22290.0 0.00018034
22310.0 0.00018179
22330.0 0.00018307
22350.0 0.00018405
22370.0 0.00018475
22390.0 0.00018518
22410.0 0.00018532
22430.0 0.00018515
22450.0 0.00018467
22470.0 0.00018384
22490.0 0.00018269
22510.0 0.00018124
22530.0 0.0001794
22550.0 0.00017715
22570.0 0.00017466
22590.0 0.00017185
22610.0 0.00016862
22630.0 0.00016512
22650.0 0.00016151
22670.0 0.00015751
22690.0 0.00015324
22710.0 0.00014893
22730.0 0.0001445
22750.0 0.00013969
22770.0 0.00013498
22790.0 0.00013039
22810.0 0.00012568
22830.0 0.00012098
22850.0 0.00011658
22870.0 0.00011226
22890.0 0.00010797
22910.0 0.00010402
22930.0 0.0001004
22950.0 9.6943e-05
22970.0 9.3749e-05
22990.0 9.1103e-05
