#lamb flux
1010.0 0.0002334
1030.0 0.00031181
1050.0 0.00041557
1070.0 0.00054998
1090.0 0.00072383
1110.0 0.0009332
1130.0 0.0011786
1150.0 0.0014696
1170.0 0.001805
1190.0 0.002167
1210.0 0.0025618
1230.0 0.0029885
1250.0 0.0034263
1270.0 0.0038602
1290.0 0.0042989
1310.0 0.0047145
1330.0 0.0050807
1350.0 0.0053986
1370.0 0.0056629
1390.0 0.005848
1410.0 0.0059477
1430.0 0.0059802
1450.0 0.0059341
1470.0 0.0058064
1490.0 0.0056162
1510.0 0.0053796
1530.0 0.0050849
1550.0 0.0047558
1570.0 0.0044165
1590.0 0.0040644
1610.0 0.0037039
1630.0 0.0033526
1650.0 0.0030148
1670.0 0.00269
1690.0 0.0023846
1710.0 0.002104
1730.0 0.001847
1750.0 0.0016115
1770.0 0.0014018
1790.0 0.0012166
1810.0 0.0010534
1830.0 0.00091203
1850.0 0.0007834
1870.0 0.00066639
1890.0 0.00057053
1910.0 0.00049543
1930.0 0.00043991
1950.0 0.00042184
1970.0 0.00042166
1990.0 0.00042671
2010.0 0.00043636
2030.0 0.00045026
2050.0 0.00046875
2070.0 0.00052177
2090.0 0.00059237
2110.0 0.00067571
2130.0 0.00077154
2150.0 0.00087859
2170.0 0.00099556
2190.0 0.0011228
2210.0 0.0012523
2230.0 0.0013802
2250.0 0.0015141
2270.0 0.0016543
2290.0 0.0017983
2310.0 0.0019446
2330.0 0.0020942
2350.0 0.0022456
2370.0 0.0023961
2390.0 0.0025462
2410.0 0.0026961
2430.0 0.0028419
2450.0 0.0029828
2470.0 0.0031198
2490.0 0.0032526
2510.0 0.0033797
2530.0 0.0035081
2550.0 0.003648
2570.0 0.0038099
2590.0 0.0040092
2610.0 0.0042867
2630.0 0.0046669
2650.0 0.0051557
2670.0 0.0057924
2690.0 0.0066101
2710.0 0.0075526
2730.0 0.0085795
2750.0 0.0097224
2770.0 0.010861
2790.0 0.011886
2810.0 0.012795
2830.0 0.013581
2850.0 0.01412
2870.0 0.014484
2890.0 0.014733
2910.0 0.014866
2930.0 0.01489
2950.0 0.014875
2970.0 0.014825
2990.0 0.014722
3010.0 0.014587
3030.0 0.014452
3050.0 0.014305
3070.0 0.014122
3090.0 0.01395
3110.0 0.013791
3130.0 0.013643
3150.0 0.013021
3170.0 0.012589
3190.0 0.012195
3210.0 0.011947
3230.0 0.012106
3250.0 0.013571
3270.0 0.016638
3290.0 0.018748
3310.0 0.017534
3330.0 0.017641
3350.0 0.018019
3370.0 0.018473
3390.0 0.018894
3410.0 0.019087
3430.0 0.019098
3450.0 0.019059
3470.0 0.019112
3490.0 0.018827
3510.0 0.017108
3530.0 0.013351
3550.0 0.011781
3570.0 0.017213
3590.0 0.024268
3610.0 0.028601
3630.0 0.03754
3650.0 0.038501
3670.0 0.032255
3690.0 0.025231
3710.0 0.021611
3730.0 0.022344
3750.0 0.023235
3770.0 0.024106
3790.0 0.024998
3810.0 0.027762
3830.0 0.025592
3850.0 0.021592
3870.0 0.019477
3890.0 0.02213
3910.0 0.024004
3930.0 0.0242
3950.0 0.026089
3970.0 0.028235
3990.0 0.027963
4010.0 0.029121
4030.0 0.027966
4050.0 0.026797
4070.0 0.025893
4090.0 0.026141
4110.0 0.026828
4130.0 0.026194
4150.0 0.024839
4170.0 0.024152
4190.0 0.02409
4210.0 0.021872
4230.0 0.019824
4250.0 0.017297
4270.0 0.014797
4290.0 0.014396
4310.0 0.013992
4330.0 0.014128
4350.0 0.016546
4370.0 0.016915
4390.0 0.01908
4410.0 0.020551
4430.0 0.021437
4450.0 0.019107
4470.0 0.016405
4490.0 0.015602
4510.0 0.014706
4530.0 0.014159
4550.0 0.013543
4570.0 0.013405
4590.0 0.013658
4610.0 0.012882
4630.0 0.012392
4650.0 0.011634
4670.0 0.01135
4690.0 0.010031
4710.0 0.0090331
4730.0 0.0078652
4750.0 0.0072089
4770.0 0.0053716
4790.0 0.0054266
4810.0 0.0051424
4830.0 0.0026408
4850.0 0.003928
4870.0 0.0022978
4890.0 0.0027793
4910.0 0.0045496
4930.0 0.0046843
4950.0 0.0022195
4970.0 0.0023546
4990.0 0.0024361
5010.0 0.0016231
5030.0 0.0014855
5050.0 0.00237
5070.0 0.0022667
5090.0 0.0024048
5110.0 0.0026423
5130.0 0.0024541
5150.0 0.0029084
5170.0 0.0018673
5190.0 0.0017297
5210.0 0.0022387
5230.0 0.0017923
5250.0 0.0025903
5270.0 0.0043226
5290.0 0.0041969
5310.0 0.003111
5330.0 0.0032441
5350.0 0.0021979
5370.0 0.0023863
5390.0 0.0029013
5410.0 0.0026376
5430.0 0.0035572
5450.0 0.0025155
5470.0 0.0025235
5490.0 0.0048734
5510.0 0.004941
5530.0 0.0050699
5550.0 0.0048742
5570.0 0.0054872
5590.0 0.0062091
5610.0 0.0062779
5630.0 0.0060532
5650.0 0.0061539
5670.0 0.0061062
5690.0 0.006324
5710.0 0.0058259
5730.0 0.0062506
5750.0 0.0061883
5770.0 0.0058503
5790.0 0.006362
5810.0 0.0064782
5830.0 0.0064539
5850.0 0.0059543
5870.0 0.0056333
5890.0 0.0057198
5910.0 0.0064949
5930.0 0.0063791
5950.0 0.0066978
5970.0 0.0068141
5990.0 0.0072036
6010.0 0.0070051
6030.0 0.0071162
6050.0 0.0070857
6070.0 0.0066595
6090.0 0.007053
6110.0 0.007202
6130.0 0.0068761
6150.0 0.006859
6170.0 0.0069177
6190.0 0.0059154
6210.0 0.0059736
6230.0 0.0062862
6250.0 0.0062528
6270.0 0.0062305
6290.0 0.0066393
6310.0 0.0071515
6330.0 0.0072071
6350.0 0.0070189
6370.0 0.0071618
6390.0 0.0066328
6410.0 0.0067501
6430.0 0.0064365
6450.0 0.0065238
6470.0 0.0066202
6490.0 0.0066883
6510.0 0.0061925
6530.0 0.0062185
6550.0 0.006124
6570.0 0.0058147
6590.0 0.0061041
6610.0 0.0061219
6630.0 0.0060313
6650.0 0.0056683
6670.0 0.0054747
6690.0 0.0053148
6710.0 0.0050857
6730.0 0.0049377
6750.0 0.0049573
6770.0 0.0048465
6790.0 0.0038789
6810.0 0.004198
6830.0 0.0045152
6850.0 0.0040683
6870.0 0.0039825
6890.0 0.0039036
6910.0 0.003848
6930.0 0.0037032
6950.0 0.0038414
6970.0 0.0036827
6990.0 0.0036036
7010.0 0.003567
7030.0 0.0037061
7050.0 0.0036175
7070.0 0.0030514
7090.0 0.0025791
7110.0 0.0024113
7130.0 0.0025751
7150.0 0.0026251
7170.0 0.002571
7190.0 0.0022339
7210.0 0.0026735
7230.0 0.0030287
7250.0 0.002961
7270.0 0.0029825
7290.0 0.0031412
7310.0 0.0028023
7330.0 0.0026489
7350.0 0.002474
7370.0 0.0026954
7390.0 0.0030157
7410.0 0.0024114
7430.0 0.0024748
7450.0 0.0024067
7470.0 0.0027318
7490.0 0.002763
7510.0 0.0024204
7530.0 0.0026063
7550.0 0.0016195
7570.0 0.0013569
7590.0 0.0018731
7610.0 0.0023118
7630.0 0.0020502
7650.0 0.0023264
7670.0 0.0016374
7690.0 0.0010237
7710.0 0.00134
7730.0 0.0018999
7750.0 0.0013626
7770.0 0.0020403
7790.0 0.0022558
7810.0 0.0018956
7830.0 0.0022711
7850.0 0.0017156
7870.0 0.0021766
7890.0 0.0018582
7910.0 0.0018409
7930.0 0.0014167
7950.0 0.00096824
7970.0 0.0013169
7990.0 0.0016537
8010.0 0.0046393
8030.0 0.0045021
8050.0 0.0044288
8070.0 0.0043024
8090.0 0.0039526
8110.0 0.0038559
8130.0 0.0042715
8150.0 0.0045503
8170.0 0.0047072
8190.0 0.0049408
8210.0 0.0047215
8230.0 0.0047305
8250.0 0.0046923
8270.0 0.0047275
8290.0 0.0046828
8310.0 0.0044405
8330.0 0.0042805
8350.0 0.0044281
8370.0 0.0045073
8390.0 0.0043832
8410.0 0.004334
8430.0 0.0041749
8450.0 0.0040491
8470.0 0.004373
8490.0 0.0043938
8510.0 0.0041004
8530.0 0.0041086
8550.0 0.0040589
8570.0 0.0037466
8590.0 0.0038052
8610.0 0.0038134
8630.0 0.0039858
8650.0 0.0040055
8670.0 0.0040408
8690.0 0.0039514
8710.0 0.0038693
8730.0 0.0037084
8750.0 0.0036223
8770.0 0.0035964
8790.0 0.003789
8810.0 0.0035396
8830.0 0.0034767
8850.0 0.003685
8870.0 0.0034877
8890.0 0.0032051
8910.0 0.0031651
8930.0 0.0032337
8950.0 0.0029658
8970.0 0.0028388
8990.0 0.0027716
9010.0 0.0025995
9030.0 0.002559
9050.0 0.0025472
9070.0 0.0025368
9090.0 0.0025263
9110.0 0.0025157
9130.0 0.002505
9150.0 0.0024943
9170.0 0.0024834
9190.0 0.0024724
9210.0 0.0024613
9230.0 0.0024502
9250.0 0.002439
9270.0 0.0024277
9290.0 0.0024163
9310.0 0.0024065
9330.0 0.0023991
9350.0 0.0023917
9370.0 0.0023842
9390.0 0.0023765
9410.0 0.0023688
9430.0 0.002361
9450.0 0.0023531
9470.0 0.0023463
9490.0 0.0023388
9510.0 0.00233
9530.0 0.0023212
9550.0 0.0023127
9570.0 0.0023042
9590.0 0.0022957
9610.0 0.0022897
9630.0 0.002284
9650.0 0.0022782
9670.0 0.002272
9690.0 0.002266
9710.0 0.0022599
9730.0 0.0022535
9750.0 0.0022471
9770.0 0.002241
9790.0 0.0022345
9810.0 0.0022278
9830.0 0.0022213
9850.0 0.0022134
9870.0 0.0022042
9890.0 0.0021989
9910.0 0.002193
9930.0 0.0021856
9950.0 0.0021788
9970.0 0.0021724
9990.0 0.0021658
10010.0 0.0021589
10030.0 0.0021519
10050.0 0.0021448
10070.0 0.0021376
10090.0 0.0021304
10110.0 0.0021232
10130.0 0.0021159
10150.0 0.0021086
10170.0 0.0021014
10190.0 0.0020941
10210.0 0.0020868
10230.0 0.0020794
10250.0 0.0020721
10270.0 0.0020648
10290.0 0.0020575
10310.0 0.0020501
10330.0 0.0020428
10350.0 0.0020355
10370.0 0.0020282
10390.0 0.0020208
10410.0 0.002012
10430.0 0.0020027
10450.0 0.0019971
10470.0 0.0019906
10490.0 0.001984
10510.0 0.0019772
10530.0 0.0019701
10550.0 0.001963
10570.0 0.001956
10590.0 0.001949
10610.0 0.0019418
10630.0 0.0019349
10650.0 0.001928
10670.0 0.0019209
10690.0 0.001914
10710.0 0.0019072
10730.0 0.0019003
10750.0 0.0018933
10770.0 0.0018867
10790.0 0.00188
10810.0 0.0018732
10830.0 0.0018666
10850.0 0.0018601
10870.0 0.0018534
10890.0 0.0018466
10910.0 0.0018399
10930.0 0.001833
10950.0 0.0018257
10970.0 0.0018179
10990.0 0.0018099
11010.0 0.0017374
11030.0 0.0017277
11050.0 0.0017163
11070.0 0.0017032
11090.0 0.0016884
11110.0 0.001673
11130.0 0.0016571
11150.0 0.0016404
11170.0 0.0016232
11190.0 0.0016063
11210.0 0.001589
11230.0 0.0015713
11250.0 0.0015539
11270.0 0.0015367
11290.0 0.0015193
11310.0 0.0015022
11330.0 0.001486
11350.0 0.00147
11370.0 0.0014543
11390.0 0.0014393
11410.0 0.001425
11430.0 0.0014107
11450.0 0.0013971
11470.0 0.001384
11490.0 0.0013711
11510.0 0.0013583
11530.0 0.0013459
11550.0 0.0013336
11570.0 0.0013211
11590.0 0.0013087
11610.0 0.0012964
11630.0 0.0012839
11650.0 0.001271
11670.0 0.0012582
11690.0 0.0012454
11710.0 0.0012321
11730.0 0.0012188
11750.0 0.0012057
11770.0 0.0011921
11790.0 0.0011784
11810.0 0.0011649
11830.0 0.0011515
11850.0 0.0011377
11870.0 0.0011243
11890.0 0.0011114
11910.0 0.0010985
11930.0 0.0010858
11950.0 0.0010739
11970.0 0.0010623
11990.0 0.0010509
12010.0 0.0010403
12030.0 0.0010304
12050.0 0.0010209
12070.0 0.001012
12090.0 0.0010039
12110.0 0.00099633
12130.0 0.00098929
12150.0 0.00098284
12170.0 0.00097691
12190.0 0.00097136
12210.0 0.0009662
12230.0 0.00096133
12250.0 0.00095665
12270.0 0.00095206
12290.0 0.00094749
12310.0 0.00094286
12330.0 0.00093806
12350.0 0.00093303
12370.0 0.00092774
12390.0 0.00092212
12410.0 0.000916
12430.0 0.00090958
12450.0 0.00090279
12470.0 0.00089546
12490.0 0.00088769
12510.0 0.00087971
12530.0 0.00087121
12550.0 0.00086219
12570.0 0.00085299
12590.0 0.00084356
12610.0 0.00083358
12630.0 0.00082335
12650.0 0.00081332
12670.0 0.00080295
12690.0 0.00079234
12710.0 0.00078193
12730.0 0.00077164
12750.0 0.00076096
12770.0 0.00075058
12790.0 0.0007406
12810.0 0.00073063
12830.0 0.00072071
12850.0 0.00071143
12870.0 0.0007025
12890.0 0.00069368
12910.0 0.00068536
12930.0 0.00067768
12950.0 0.00067026
12970.0 0.00066329
12990.0 0.00065714
13010.0 0.00065156
13030.0 0.00064649
13050.0 0.00064211
13070.0 0.00063843
13090.0 0.00063526
13110.0 0.00063264
13130.0 0.00063058
13150.0 0.00062895
13170.0 0.00062768
13190.0 0.00062673
13210.0 0.00062599
13230.0 0.00062541
13250.0 0.00062491
13270.0 0.00062443
13290.0 0.00062394
13310.0 0.00062336
13330.0 0.00062266
13350.0 0.00062182
13370.0 0.00062077
13390.0 0.00061945
13410.0 0.00061793
13430.0 0.00061612
13450.0 0.00061395
13470.0 0.00061152
13490.0 0.00060886
13510.0 0.00060573
13530.0 0.00060234
13550.0 0.00059884
13570.0 0.00059509
13590.0 0.00059102
13610.0 0.00058693
13630.0 0.00058283
13650.0 0.00057843
13670.0 0.00057396
13690.0 0.00056956
13710.0 0.000565
13730.0 0.0005601
13750.0 0.00055541
13770.0 0.00055068
13790.0 0.00054569
13810.0 0.00054065
13830.0 0.00053581
13850.0 0.00053074
13870.0 0.00052552
13890.0 0.00052052
13910.0 0.0005156
13930.0 0.00051051
13950.0 0.00050555
13970.0 0.00050102
13990.0 0.00049646
14010.0 0.00049199
14030.0 0.0004879
14050.0 0.00048406
14070.0 0.00048018
14090.0 0.00047668
14110.0 0.00047354
14130.0 0.00047053
14150.0 0.00046765
14170.0 0.00046516
14190.0 0.00046286
14210.0 0.0004606
14230.0 0.00045856
14250.0 0.00045674
14270.0 0.00045491
14290.0 0.00045315
14310.0 0.00045163
14330.0 0.00045019
14350.0 0.00044875
14370.0 0.00044746
14390.0 0.00044636
14410.0 0.00044524
14430.0 0.00044421
14450.0 0.00044337
14470.0 0.00044259
14490.0 0.0004418
14510.0 0.00044116
14530.0 0.00044063
14550.0 0.00044007
14570.0 0.00043953
14590.0 0.00043908
14610.0 0.0004386
14630.0 0.00043804
14650.0 0.00043753
14670.0 0.00043703
14690.0 0.00043644
14710.0 0.00043578
14730.0 0.0004352
14750.0 0.00043454
14770.0 0.00043376
14790.0 0.00043298
14810.0 0.0004322
14830.0 0.00043119
14850.0 0.00043014
14870.0 0.00042912
14890.0 0.000428
14910.0 0.00042679
14930.0 0.00042568
14950.0 0.00042468
14970.0 0.0004237
14990.0 0.00042292
15010.0 0.0004224
15030.0 0.00042204
15050.0 0.00042181
15070.0 0.00042183
15090.0 0.00042196
15110.0 0.00042211
15130.0 0.00042232
15150.0 0.00042258
15170.0 0.0004228
15190.0 0.00042299
15210.0 0.0004232
15230.0 0.0004234
15250.0 0.00042354
15270.0 0.00042367
15290.0 0.00042384
15310.0 0.00042395
15330.0 0.00042402
15350.0 0.00042411
15370.0 0.00042418
15390.0 0.00042417
15410.0 0.00042417
15430.0 0.00042418
15450.0 0.00042413
15470.0 0.00042404
15490.0 0.00042398
15510.0 0.00042389
15530.0 0.00042374
15550.0 0.00042358
15570.0 0.00042344
15590.0 0.00042321
15610.0 0.00042295
15630.0 0.00042272
15650.0 0.00042246
15670.0 0.00042213
15690.0 0.0004218
15710.0 0.00042148
15730.0 0.00042109
15750.0 0.00042067
15770.0 0.00042026
15790.0 0.00041981
15810.0 0.00041929
15830.0 0.00041879
15850.0 0.00041829
15870.0 0.00041772
15890.0 0.00041712
15910.0 0.00041655
15930.0 0.00041592
15950.0 0.00041523
15970.0 0.00041455
15990.0 0.00041386
16010.0 0.00041311
16030.0 0.00041233
16050.0 0.00041158
16070.0 0.00041078
16090.0 0.00040993
16110.0 0.00040909
16130.0 0.00040824
16150.0 0.0004073
16170.0 0.00040636
16190.0 0.00040544
16210.0 0.00040447
16230.0 0.00040345
16250.0 0.00040245
16270.0 0.00040145
16290.0 0.00040037
16310.0 0.00039928
16330.0 0.00039821
16350.0 0.00039709
16370.0 0.0003959
16390.0 0.00039476
16410.0 0.0003936
16430.0 0.00039238
16450.0 0.00039116
16470.0 0.00038996
16490.0 0.0003887
16510.0 0.0003874
16530.0 0.00038612
16550.0 0.00038483
16570.0 0.00038348
16590.0 0.00038212
16610.0 0.00038081
16630.0 0.00037943
16650.0 0.00037803
16670.0 0.00037665
16690.0 0.00037525
16710.0 0.00037378
16730.0 0.00037233
16750.0 0.0003709
16770.0 0.00036942
16790.0 0.00036791
16810.0 0.00036644
16830.0 0.00036495
16850.0 0.00036341
16870.0 0.00036189
16890.0 0.00036038
16910.0 0.00035881
16930.0 0.00035721
16950.0 0.00035567
16970.0 0.0003541
16990.0 0.00035249
17010.0 0.0003509
17030.0 0.00034933
17050.0 0.0003477
17070.0 0.00034606
17090.0 0.00034446
17110.0 0.00034284
17130.0 0.00034115
17150.0 0.00033951
17170.0 0.00033789
17190.0 0.00033622
17210.0 0.00033455
17230.0 0.00033292
17250.0 0.00033125
17270.0 0.00032954
17290.0 0.00032787
17310.0 0.00032621
17330.0 0.0003245
17350.0 0.00032279
17370.0 0.00032114
17390.0 0.00031945
17410.0 0.00031774
17430.0 0.00031605
17450.0 0.00031438
17470.0 0.00031265
17490.0 0.00031093
17510.0 0.00030926
17530.0 0.00030756
17550.0 0.00030583
17570.0 0.00030415
17590.0 0.00030247
17610.0 0.00030075
17630.0 0.00029905
17650.0 0.00029738
17670.0 0.00029568
17690.0 0.00029394
17710.0 0.00029227
17730.0 0.00029059
17750.0 0.00028889
17770.0 0.0002872
17790.0 0.00028555
17810.0 0.00028386
17830.0 0.00028216
17850.0 0.0002805
17870.0 0.00027884
17890.0 0.00027714
17910.0 0.00027547
17930.0 0.00027384
17950.0 0.00027218
17970.0 0.00027051
17990.0 0.00026888
18010.0 0.00026726
18030.0 0.00026558
18050.0 0.00026395
18070.0 0.00026234
18090.0 0.00026071
18110.0 0.00025906
18130.0 0.00025748
18150.0 0.00025588
18170.0 0.00025426
18190.0 0.00025266
18210.0 0.0002511
18230.0 0.00024949
18250.0 0.00024789
18270.0 0.00024634
18290.0 0.00024478
18310.0 0.00024319
18330.0 0.00024165
18350.0 0.00024013
18370.0 0.00023857
18390.0 0.00023702
18410.0 0.00023551
18430.0 0.00023399
18450.0 0.00023244
18470.0 0.00023094
18490.0 0.00022946
18510.0 0.00022796
18530.0 0.00022646
18550.0 0.00022501
18570.0 0.00022353
18590.0 0.00022204
18610.0 0.00022059
18630.0 0.00021915
18650.0 0.00021769
18670.0 0.00021624
18690.0 0.00021484
18710.0 0.00021342
18730.0 0.00021198
18750.0 0.00021059
18770.0 0.00020921
18790.0 0.00020778
18810.0 0.00020639
18830.0 0.00020503
18850.0 0.00020366
18870.0 0.00020228
18890.0 0.00020094
18910.0 0.00019961
18930.0 0.00019825
18950.0 0.00019691
18970.0 0.00019561
18990.0 0.00019428
19010.0 0.00019293
19030.0 0.00019165
19050.0 0.00019037
19070.0 0.00018907
19090.0 0.00018778
19110.0 0.00018654
19130.0 0.00018526
19150.0 0.00018398
19170.0 0.00018274
19190.0 0.0001815
19210.0 0.00018024
19230.0 0.000179
19250.0 0.00017781
19270.0 0.00017658
19290.0 0.00017536
19310.0 0.00017417
19330.0 0.00017299
19350.0 0.00017176
19370.0 0.00017058
19390.0 0.00016943
19410.0 0.00016825
19430.0 0.00016706
19450.0 0.00016593
19470.0 0.00016479
19490.0 0.00016363
19510.0 0.00016249
19530.0 0.00016138
19550.0 0.00016023
19570.0 0.00015909
19590.0 0.000158
19610.0 0.0001569
19630.0 0.00015578
19650.0 0.00015469
19670.0 0.00015362
19690.0 0.00015252
19710.0 0.00015143
19730.0 0.00015037
19750.0 0.0001493
19770.0 0.00014821
19790.0 0.00014715
19810.0 0.00014612
19830.0 0.00014506
19850.0 0.00014401
19870.0 0.000143
19890.0 0.00014198
19910.0 0.00014095
19930.0 0.00013998
19950.0 0.00013905
19970.0 0.00013815
19990.0 0.00013732
20010.0 0.0001366
20030.0 0.00013595
20050.0 0.00013537
20070.0 0.00013488
20090.0 0.00013446
20110.0 0.00013408
20130.0 0.00013376
20150.0 0.00013348
20170.0 0.00013322
20190.0 0.00013299
20210.0 0.00013278
20230.0 0.00013259
20250.0 0.0001324
20270.0 0.00013222
20290.0 0.00013204
20310.0 0.00013185
20330.0 0.00013167
20350.0 0.00013147
20370.0 0.00013127
20390.0 0.00013105
20410.0 0.00013082
20430.0 0.00013058
20450.0 0.00013032
20470.0 0.00013006
20490.0 0.00012978
20510.0 0.00012951
20530.0 0.00012922
20550.0 0.00012894
20570.0 0.00012866
20590.0 0.00012838
20610.0 0.00012811
20630.0 0.00012784
20650.0 0.00012758
20670.0 0.00012731
20690.0 0.00012705
20710.0 0.00012679
20730.0 0.00012652
20750.0 0.00012624
20770.0 0.00012595
20790.0 0.00012564
20810.0 0.00012531
20830.0 0.00012496
20850.0 0.00012459
20870.0 0.00012418
20890.0 0.00012373
20910.0 0.00012327
20930.0 0.00012277
20950.0 0.00012223
20970.0 0.00012168
20990.0 0.00012111
21010.0 0.00012049
21030.0 0.00011986
21050.0 0.00011923
21070.0 0.00011858
21090.0 0.0001179
21110.0 0.00011723
21130.0 0.00011656
21150.0 0.00011587
21170.0 0.00011518
21190.0 0.00011449
21210.0 0.00011379
21230.0 0.00011306
21250.0 0.00011233
21270.0 0.0001116
21290.0 0.00011083
21310.0 0.00011004
21330.0 0.00010926
21350.0 0.00010843
21370.0 0.00010757
21390.0 0.00010663
21410.0 0.00010567
21430.0 0.00010464
21450.0 0.0001036
21470.0 0.00010255
21490.0 0.00010145
21510.0 0.00010031
21530.0 9.918e-05
21550.0 9.8016e-05
21570.0 9.6801e-05
21590.0 9.5579e-05
21610.0 9.4352e-05
21630.0 9.3082e-05
21650.0 9.1772e-05
21670.0 9.0488e-05
21690.0 8.9175e-05
21710.0 8.7822e-05
21730.0 8.6465e-05
21750.0 8.5111e-05
21770.0 8.3697e-05
21790.0 8.2269e-05
21810.0 8.0847e-05
21830.0 7.9399e-05
21850.0 7.7907e-05
21870.0 7.6416e-05
21890.0 7.493e-05
21910.0 7.3397e-05
21930.0 7.1849e-05
21950.0 7.0311e-05
21970.0 6.8751e-05
21990.0 6.7147e-05
22010.0 6.5569e-05
22030.0 6.3994e-05
22050.0 6.2395e-05
22070.0 6.1153e-05
22090.0 6.0581e-05
22110.0 6.0007e-05
22130.0 5.9432e-05
22150.0 5.8873e-05
22170.0 5.8325e-05
22190.0 5.7773e-05
22210.0 5.7232e-05
22230.0 5.6707e-05
22250.0 5.6184e-05
22270.0 5.5663e-05
22290.0 5.5153e-05
22310.0 5.4648e-05
22330.0 5.4138e-05
22350.0 5.3633e-05
22370.0 5.3132e-05
22390.0 5.2627e-05
22410.0 5.2117e-05
22430.0 5.1609e-05
22450.0 5.1097e-05
22470.0 5.0578e-05
22490.0 5.0055e-05
22510.0 4.9528e-05
22530.0 4.8993e-05
22550.0 4.8449e-05
22570.0 4.7903e-05
22590.0 4.735e-05
22610.0 4.6788e-05
22630.0 4.6221e-05
22650.0 4.5651e-05
22670.0 4.5072e-05
22690.0 4.4487e-05
22710.0 4.3898e-05
22730.0 4.3304e-05
22750.0 4.2702e-05
22770.0 4.2096e-05
22790.0 4.1487e-05
22810.0 4.087e-05
22830.0 4.0248e-05
22850.0 3.962e-05
22870.0 3.8985e-05
22890.0 3.8342e-05
22910.0 3.7691e-05
22930.0 3.703e-05
22950.0 3.636e-05
22970.0 3.5677e-05
22990.0 3.4983e-05
23010.0 3.4274e-05
23030.0 3.355e-05
23050.0 3.2811e-05
23070.0 3.2055e-05
23090.0 3.1281e-05
23110.0 3.1259e-05
23130.0 3.1292e-05
23150.0 3.1324e-05
23170.0 3.1355e-05
23190.0 3.1383e-05
23210.0 3.141e-05
23230.0 3.1435e-05
23250.0 3.1457e-05
23270.0 3.1477e-05
23290.0 3.1496e-05
