#lamb flux
1010.0 1.0745e-06
1030.0 1.1439e-06
1050.0 1.2241e-06
1070.0 1.3146e-06
1090.0 1.4173e-06
1110.0 1.523e-06
1130.0 1.6296e-06
1150.0 1.7416e-06
1170.0 1.8575e-06
1190.0 1.9678e-06
1210.0 2.0801e-06
1230.0 2.1964e-06
1250.0 2.311e-06
1270.0 2.4229e-06
1290.0 2.5416e-06
1310.0 2.6607e-06
1330.0 2.7758e-06
1350.0 2.8927e-06
1370.0 3.014e-06
1390.0 3.1331e-06
1410.0 3.2496e-06
1430.0 3.3719e-06
1450.0 3.4949e-06
1470.0 3.6147e-06
1490.0 3.7365e-06
1510.0 3.8655e-06
1530.0 3.9887e-06
1550.0 4.111e-06
1570.0 4.2377e-06
1590.0 4.3649e-06
1610.0 4.4872e-06
1630.0 4.6132e-06
1650.0 4.7423e-06
1670.0 4.8673e-06
1690.0 4.9906e-06
1710.0 5.1178e-06
1730.0 5.2451e-06
1750.0 5.3643e-06
1770.0 5.4858e-06
1790.0 5.6084e-06
1810.0 5.7257e-06
1830.0 5.8392e-06
1850.0 5.9579e-06
1870.0 6.0713e-06
1890.0 6.1786e-06
1910.0 6.2856e-06
1930.0 6.393e-06
1950.0 6.4922e-06
1970.0 6.5873e-06
1990.0 6.6839e-06
2010.0 6.7757e-06
2030.0 6.8606e-06
2050.0 6.9461e-06
2070.0 7.0317e-06
2090.0 7.1081e-06
2110.0 7.1819e-06
2130.0 7.2567e-06
2150.0 7.3273e-06
2170.0 7.3915e-06
2190.0 7.4581e-06
2210.0 7.5242e-06
2230.0 7.5851e-06
2250.0 7.645e-06
2270.0 7.7092e-06
2290.0 7.7703e-06
2310.0 7.8276e-06
2330.0 7.8889e-06
2350.0 7.9522e-06
2370.0 8.0128e-06
2390.0 8.0762e-06
2410.0 8.1465e-06
2430.0 8.2161e-06
2450.0 8.2869e-06
2470.0 8.3652e-06
2490.0 8.454e-06
2510.0 8.5553e-06
2530.0 8.698e-06
2550.0 8.9297e-06
2570.0 9.3031e-06
2590.0 9.8816e-06
2610.0 1.0824e-05
2630.0 1.2181e-05
2650.0 1.3894e-05
2670.0 1.5992e-05
2690.0 1.8414e-05
2710.0 2.0853e-05
2730.0 2.3155e-05
2750.0 2.5359e-05
2770.0 2.7282e-05
2790.0 2.8894e-05
2810.0 3.0335e-05
2830.0 3.1714e-05
2850.0 3.2971e-05
2870.0 3.4223e-05
2890.0 3.5549e-05
2910.0 3.6924e-05
2930.0 3.8306e-05
2950.0 3.9788e-05
2970.0 4.1356e-05
2990.0 4.2938e-05
3010.0 0.00015193
3030.0 0.00015773
3050.0 0.00016351
3070.0 0.00016871
3090.0 0.00017313
3110.0 0.00017553
3130.0 0.00017449
3150.0 0.00016846
3170.0 0.00015433
3190.0 0.00013183
3210.0 0.00010138
3230.0 6.7212e-05
3250.0 0.00010304
3270.0 6.4438e-05
3290.0 0.00014833
3310.0 5.8472e-05
3330.0 5.7885e-05
3350.0 6.9325e-05
3370.0 8.3009e-05
3390.0 9.7972e-05
3410.0 0.00011297
3430.0 0.00012877
3450.0 0.00014471
3470.0 0.00015943
3490.0 0.00016973
3510.0 0.00020381
3530.0 0.00026392
3550.0 0.00025709
3570.0 0.000212
3590.0 0.00028697
3610.0 0.00018572
3630.0 0.00030244
3650.0 0.00035229
3670.0 0.00044795
3690.0 0.00041591
3710.0 0.0002785
3730.0 0.00035944
3750.0 0.00036805
3770.0 0.00039501
3790.0 0.00038331
3810.0 0.0003946
3830.0 0.00062018
3850.0 0.00076126
3870.0 0.00093876
3890.0 0.00091231
3910.0 0.00081539
3930.0 0.0008259
3950.0 0.0008921
3970.0 0.00098364
3990.0 0.00063071
4010.0 0.00034141
4030.0 0.00060712
4050.0 0.00080306
4070.0 0.00085911
4090.0 0.00060091
4110.0 0.00038036
4130.0 0.00062557
4150.0 0.00063867
4170.0 0.00059449
4190.0 0.00053943
4210.0 0.00076352
4230.0 0.0005625
4250.0 0.00060944
4270.0 0.00060546
4290.0 0.00057363
4310.0 0.00073535
4330.0 0.00079459
4350.0 0.00066204
4370.0 0.00055889
4390.0 0.00068116
4410.0 0.00069762
4430.0 0.00051293
4450.0 0.00046541
4470.0 0.00057518
4490.0 0.00044006
4510.0 0.00061426
4530.0 0.0006384
4550.0 0.00075761
4570.0 0.0010681
4590.0 0.0010563
4610.0 0.00083748
4630.0 0.0013366
4650.0 0.0017811
4670.0 0.0016986
4690.0 0.0012011
4710.0 0.0012737
4730.0 0.0014428
4750.0 0.0011886
4770.0 0.00090864
4790.0 0.00061324
4810.0 0.00083705
4830.0 0.00098582
4850.0 0.00086653
4870.0 0.00036427
4890.0 0.0009833
4910.0 0.0012892
4930.0 0.0014011
4950.0 0.0014438
4970.0 0.0010141
4990.0 0.0011802
5010.0 0.0013708
5030.0 0.0014693
5050.0 0.0013717
5070.0 0.00096997
5090.0 0.00078698
5110.0 0.00076079
5130.0 0.00072285
5150.0 0.00075294
5170.0 0.00067187
5190.0 0.00080102
5210.0 0.00081404
5230.0 0.0009032
5250.0 0.0010743
5270.0 0.00089216
5290.0 0.00092937
5310.0 0.0013683
5330.0 0.0015757
5350.0 0.0013247
5370.0 0.001193
5390.0 0.0013866
5410.0 0.0016575
5430.0 0.0017688
5450.0 0.0018638
5470.0 0.0018796
5490.0 0.001939
5510.0 0.002325
5530.0 0.0024193
5550.0 0.002559
5570.0 0.0026916
5590.0 0.0026502
5610.0 0.0024856
5630.0 0.002431
5650.0 0.0025186
5670.0 0.0024653
5690.0 0.0021144
5710.0 0.0020953
5730.0 0.0021024
5750.0 0.0021901
5770.0 0.0018898
5790.0 0.0018061
5810.0 0.0018537
5830.0 0.0020043
5850.0 0.0018696
5870.0 0.0018821
5890.0 0.002199
5910.0 0.0020556
5930.0 0.0017008
5950.0 0.0015393
5970.0 0.0016808
5990.0 0.0015292
6010.0 0.0013992
6030.0 0.0013721
6050.0 0.0012567
6070.0 0.00097377
6090.0 0.00092607
6110.0 0.0011881
6130.0 0.0013332
6150.0 0.0013771
6170.0 0.0013393
6190.0 0.0012773
6210.0 0.0013319
6230.0 0.0016162
6250.0 0.0014934
6270.0 0.0013427
6290.0 0.0012206
6310.0 0.0011055
6330.0 0.0010255
6350.0 0.00091659
6370.0 0.00092902
6390.0 0.001081
6410.0 0.0013423
6430.0 0.0015866
6450.0 0.0015927
6470.0 0.0016105
6490.0 0.0019669
6510.0 0.0022581
6530.0 0.0021458
6550.0 0.002036
6570.0 0.0020654
6590.0 0.0020356
6610.0 0.0021546
6630.0 0.0020092
6650.0 0.0017456
6670.0 0.0016103
6690.0 0.0015964
6710.0 0.0018896
6730.0 0.0016825
6750.0 0.0013839
6770.0 0.0012492
6790.0 0.0013272
6810.0 0.0015241
6830.0 0.001517
6850.0 0.0013606
6870.0 0.0014092
6890.0 0.0014005
6910.0 0.0013162
6930.0 0.0014613
6950.0 0.0013594
6970.0 0.0012663
6990.0 0.0012624
7010.0 0.0012716
7030.0 0.0012352
7050.0 0.0011827
7070.0 0.0012685
7090.0 0.0011815
7110.0 0.0010018
7130.0 0.00086045
7150.0 0.00084498
7170.0 0.0010669
7190.0 0.0011311
7210.0 0.0010725
7230.0 0.0011279
7250.0 0.0010955
7270.0 0.0010686
7290.0 0.0011576
7310.0 0.001269
7330.0 0.0012364
7350.0 0.0011471
7370.0 0.0010611
7390.0 0.0010643
7410.0 0.0012229
7430.0 0.0013769
7450.0 0.0014659
7470.0 0.0014869
7490.0 0.0016541
7510.0 0.0016338
7530.0 0.0014782
7550.0 0.0013983
7570.0 0.0012075
7590.0 0.0011488
7610.0 0.0011088
7630.0 0.0010206
7650.0 0.0010956
7670.0 0.0012128
7690.0 0.0013194
7710.0 0.0015044
7730.0 0.0015767
7750.0 0.001637
7770.0 0.0017003
7790.0 0.001843
7810.0 0.0018552
7830.0 0.0016637
7850.0 0.0016692
7870.0 0.0016061
7890.0 0.0016432
7910.0 0.0015465
7930.0 0.0015341
7950.0 0.0012873
7970.0 0.0012905
7990.0 0.0012462
8010.0 0.0013529
8030.0 0.0013461
8050.0 0.0014286
8070.0 0.0013694
8090.0 0.0013738
8110.0 0.0013512
8130.0 0.0013345
8150.0 0.0012517
8170.0 0.0012266
8190.0 0.001222
8210.0 0.0012325
8230.0 0.0010768
8250.0 0.00098337
8270.0 0.00086808
8290.0 0.0007372
8310.0 0.00064864
8330.0 0.00051319
8350.0 0.000415
8370.0 0.00040021
8390.0 0.00038754
8410.0 0.00040511
8430.0 0.00052046
8450.0 0.00056615
8470.0 0.00060862
8490.0 0.00071138
8510.0 0.00077323
8530.0 0.00087821
8550.0 0.0010376
8570.0 0.0011384
8590.0 0.0011959
8610.0 0.0013267
8630.0 0.0015075
8650.0 0.0015446
8670.0 0.0015749
8690.0 0.0016323
8710.0 0.0015987
8730.0 0.0015464
8750.0 0.0014232
8770.0 0.001422
8790.0 0.0014001
8810.0 0.001286
8830.0 0.001286
8850.0 0.0011764
8870.0 0.0011203
8890.0 0.0010025
8910.0 0.0011161
8930.0 0.0010083
8950.0 0.0010097
8970.0 0.0010298
8990.0 0.00099894
9010.0 0.0010253
9030.0 0.00097332
9050.0 0.0009686
9070.0 0.00096902
9090.0 0.00096925
9110.0 0.00097013
9130.0 0.00097007
9150.0 0.00096953
9170.0 0.00096634
9190.0 0.00095927
9210.0 0.00097444
9230.0 0.00097014
9250.0 0.00096767
9270.0 0.00096557
9290.0 0.00096371
9310.0 0.00096198
9330.0 0.00096028
9350.0 0.0009586
9370.0 0.00095686
9390.0 0.00095503
9410.0 0.00095314
9430.0 0.0009512
9450.0 0.00094915
9470.0 0.00094703
9490.0 0.00094488
9510.0 0.00094266
9530.0 0.00094037
9550.0 0.00093808
9570.0 0.00093575
9590.0 0.00093337
9610.0 0.00093096
9630.0 0.00092857
9650.0 0.00092615
9670.0 0.00092368
9690.0 0.00092124
9710.0 0.00091882
9730.0 0.00091636
9750.0 0.00091392
9770.0 0.00091157
9790.0 0.00090918
9810.0 0.00090678
9830.0 0.00090445
9850.0 0.00090217
9870.0 0.00089985
9890.0 0.00089759
9910.0 0.00089543
9930.0 0.00089324
9950.0 0.0008897
9970.0 0.00088807
9990.0 0.00088644
10010.0 0.00088472
10030.0 0.00088296
10050.0 0.00088089
10070.0 0.00087713
10090.0 0.00087609
10110.0 0.00087503
10130.0 0.00087382
10150.0 0.00087257
10170.0 0.00087123
10190.0 0.00086982
10210.0 0.0008685
10230.0 0.00086725
10250.0 0.00086598
10270.0 0.00086478
10290.0 0.0008637
10310.0 0.00086263
10330.0 0.00086158
10350.0 0.00086066
10370.0 0.00085981
10390.0 0.00085897
10410.0 0.00085821
10430.0 0.00085757
10450.0 0.00085694
10470.0 0.00085634
10490.0 0.00085586
10510.0 0.00085543
10530.0 0.00085499
10550.0 0.00085465
10570.0 0.0008544
10590.0 0.00085417
10610.0 0.00085398
10630.0 0.00085389
10650.0 0.00085384
10670.0 0.0008538
10690.0 0.00085383
10710.0 0.00085394
10730.0 0.00085407
10750.0 0.00085421
10770.0 0.00085447
10790.0 0.00085475
10810.0 0.00085504
10830.0 0.00085535
10850.0 0.00085566
10870.0 0.00085579
10890.0 0.0008556
10910.0 0.00085488
10930.0 0.00085317
10950.0 0.00084975
10970.0 0.00084426
10990.0 0.00083653
11010.0 0.00085102
11030.0 0.00083617
11050.0 0.00081873
11070.0 0.00079854
11090.0 0.00077511
11110.0 0.00075175
11130.0 0.00072839
11150.0 0.00070446
11170.0 0.0006812
11190.0 0.00066003
11210.0 0.00063961
11230.0 0.00062018
11250.0 0.00060299
11270.0 0.00058763
11290.0 0.00057327
11310.0 0.00056048
11330.0 0.00054972
11350.0 0.00053976
11370.0 0.00053051
11390.0 0.00052218
11410.0 0.00051434
11430.0 0.0005062
11450.0 0.00049813
11470.0 0.00049009
11490.0 0.0004815
11510.0 0.00047216
11530.0 0.00046276
11550.0 0.00045301
11570.0 0.00044244
11590.0 0.00043163
11610.0 0.00042093
11630.0 0.00040966
11650.0 0.00039803
11670.0 0.00038699
11690.0 0.00037607
11710.0 0.00036497
11730.0 0.00035428
11750.0 0.00034435
11770.0 0.00033439
11790.0 0.0003247
11810.0 0.00031575
11830.0 0.00030721
11850.0 0.0002986
11870.0 0.00029065
11890.0 0.00028329
11910.0 0.00027599
11930.0 0.00026887
11950.0 0.00026226
11970.0 0.00025578
11990.0 0.00024919
12010.0 0.00024295
12030.0 0.000237
12050.0 0.00023104
12070.0 0.00022514
12090.0 0.00021987
12110.0 0.0002148
12130.0 0.00020993
12150.0 0.00020562
12170.0 0.00020194
12190.0 0.00019863
12210.0 0.00019607
12230.0 0.00019438
12250.0 0.00019349
12270.0 0.00019349
12290.0 0.00019446
12310.0 0.00019631
12330.0 0.00019914
12350.0 0.00020287
12370.0 0.00020725
12390.0 0.00021233
12410.0 0.00021823
12430.0 0.0002242
12450.0 0.0002303
12470.0 0.00023662
12490.0 0.0002428
12510.0 0.00024849
12530.0 0.00025396
12550.0 0.00025908
12570.0 0.00026351
12590.0 0.00026735
12610.0 0.00027073
12630.0 0.00027347
12650.0 0.00027555
12670.0 0.00027716
12690.0 0.00027826
12710.0 0.00027889
12730.0 0.00027912
12750.0 0.00027893
12770.0 0.00027839
12790.0 0.00027757
12810.0 0.00027643
12830.0 0.00027492
12850.0 0.00027323
12870.0 0.00027126
12890.0 0.00026889
12910.0 0.00026624
12930.0 0.00026338
12950.0 0.00026004
12970.0 0.00025625
12990.0 0.00025234
13010.0 0.00024811
13030.0 0.00024343
13050.0 0.00023858
13070.0 0.00023376
13090.0 0.00022861
13110.0 0.00022338
13130.0 0.00021841
13150.0 0.00021358
13170.0 0.00020874
13190.0 0.00020444
13210.0 0.0002007
13230.0 0.00019732
13250.0 0.00019446
13270.0 0.00019229
13290.0 0.00019063
13310.0 0.00018947
13330.0 0.00018888
13350.0 0.00018872
13370.0 0.00018889
13390.0 0.0001893
13410.0 0.00018982
13430.0 0.00019036
13450.0 0.00019079
13470.0 0.00019103
13490.0 0.00019103
13510.0 0.00019068
13530.0 0.00018999
13550.0 0.00018901
13570.0 0.00018772
13590.0 0.00018612
13610.0 0.00018439
13630.0 0.00018258
13650.0 0.00018063
13670.0 0.00017869
13690.0 0.00017688
13710.0 0.00017512
13730.0 0.00017341
13750.0 0.00017193
13770.0 0.00017058
13790.0 0.00016929
13810.0 0.00016809
13830.0 0.00016699
13850.0 0.00016586
13870.0 0.0001647
13890.0 0.00016353
13910.0 0.0001623
13930.0 0.00016095
13950.0 0.00015953
13970.0 0.00015812
13990.0 0.00015662
14010.0 0.00015509
14030.0 0.00015362
14050.0 0.00015222
14070.0 0.00015083
14090.0 0.00014959
14110.0 0.0001485
14130.0 0.00014755
14150.0 0.00014674
14170.0 0.00014612
14190.0 0.00014565
14210.0 0.00014533
14230.0 0.00014517
14250.0 0.00014515
14270.0 0.0001453
14290.0 0.00014561
14310.0 0.00014603
14330.0 0.0001466
14350.0 0.00014733
14370.0 0.00014817
14390.0 0.00014906
14410.0 0.00015008
14430.0 0.00015118
14450.0 0.00015225
14470.0 0.00015334
14490.0 0.00015451
14510.0 0.0001556
14530.0 0.00015663
14550.0 0.00015771
14570.0 0.00015882
14590.0 0.0001599
14610.0 0.00016109
14630.0 0.00016246
14650.0 0.00016393
14670.0 0.00016555
14690.0 0.00016747
14710.0 0.00016969
14730.0 0.00017202
14750.0 0.00017466
14770.0 0.00017766
14790.0 0.00018081
14810.0 0.00018405
14830.0 0.0001877
14850.0 0.00019139
14870.0 0.00019493
14890.0 0.00019848
14910.0 0.00020195
14930.0 0.00020499
14950.0 0.00020758
14970.0 0.0002098
14990.0 0.0002114
15010.0 0.00021235
15030.0 0.00021279
15050.0 0.00021275
15070.0 0.00021228
15090.0 0.00021156
15110.0 0.00021064
15130.0 0.00020962
15150.0 0.00020856
15170.0 0.00020745
15190.0 0.00020632
15210.0 0.00020521
15230.0 0.00020409
15250.0 0.00020296
15270.0 0.00020184
15290.0 0.00020074
15310.0 0.00019963
15330.0 0.00019851
15350.0 0.00019741
15370.0 0.00019632
15390.0 0.00019521
15410.0 0.00019411
15430.0 0.00019303
15450.0 0.00019194
15470.0 0.00019085
15490.0 0.00018978
15510.0 0.00018871
15530.0 0.00018763
15550.0 0.00018657
15570.0 0.00018552
15590.0 0.00018445
15610.0 0.00018339
15630.0 0.00018235
15650.0 0.00018132
15670.0 0.00018027
15690.0 0.00017924
15710.0 0.00017823
15730.0 0.0001772
15750.0 0.00017618
15770.0 0.00017518
15790.0 0.00017418
15810.0 0.00017317
15830.0 0.00017218
15850.0 0.0001712
15870.0 0.00017022
15890.0 0.00016924
15910.0 0.00016828
15930.0 0.00016732
15950.0 0.00016635
15970.0 0.0001654
15990.0 0.00016446
16010.0 0.00016352
16030.0 0.00016258
16050.0 0.00016166
16070.0 0.00016074
16090.0 0.00015982
16110.0 0.00015892
16130.0 0.00015802
16150.0 0.00015711
16170.0 0.00015622
16190.0 0.00015534
16210.0 0.00015446
16230.0 0.00015358
16250.0 0.00015272
16270.0 0.00015187
16290.0 0.000151
16310.0 0.00015015
16330.0 0.00014932
16350.0 0.00014848
16370.0 0.00014763
16390.0 0.00014681
16410.0 0.000146
16430.0 0.00014517
16450.0 0.00014436
16470.0 0.00014357
16490.0 0.00014277
16510.0 0.00014197
16530.0 0.00014119
16550.0 0.00014041
16570.0 0.00013962
16590.0 0.00013885
16610.0 0.00013809
16630.0 0.00013733
16650.0 0.00013657
16670.0 0.00013583
16690.0 0.00013509
16710.0 0.00013433
16730.0 0.0001336
16750.0 0.00013288
16770.0 0.00013215
16790.0 0.00013142
16810.0 0.00013071
16830.0 0.00013001
16850.0 0.00012929
16870.0 0.00012859
16890.0 0.00012791
16910.0 0.00012721
16930.0 0.00012651
16950.0 0.00012583
16970.0 0.00012516
16990.0 0.00012447
17010.0 0.00012381
17030.0 0.00012315
17050.0 0.00012248
17070.0 0.00012182
17090.0 0.00012117
17110.0 0.00012053
17130.0 0.00011987
17150.0 0.00011923
17170.0 0.0001186
17190.0 0.00011796
17210.0 0.00011733
17230.0 0.00011671
17250.0 0.00011609
17270.0 0.00011546
17290.0 0.00011485
17310.0 0.00011424
17330.0 0.00011363
17350.0 0.00011301
17370.0 0.00011243
17390.0 0.00011183
17410.0 0.00011123
17430.0 0.00011064
17450.0 0.00011007
17470.0 0.00010947
17490.0 0.00010888
17510.0 0.00010831
17530.0 0.00010774
17550.0 0.00010716
17570.0 0.00010659
17590.0 0.00010604
17610.0 0.00010547
17630.0 0.00010491
17650.0 0.00010436
17670.0 0.00010381
17690.0 0.00010324
17710.0 0.0001027
17730.0 0.00010216
17750.0 0.00010161
17770.0 0.00010107
17790.0 0.00010055
17810.0 0.00010001
17830.0 9.9468e-05
17850.0 9.8945e-05
17870.0 9.8424e-05
17890.0 9.789e-05
17910.0 9.7365e-05
17930.0 9.686e-05
17950.0 9.6342e-05
17970.0 9.5823e-05
17990.0 9.532e-05
18010.0 9.4819e-05
18030.0 9.4298e-05
18050.0 9.3794e-05
18070.0 9.3302e-05
18090.0 9.28e-05
18110.0 9.2294e-05
18130.0 9.1811e-05
18150.0 9.1324e-05
18170.0 9.0827e-05
18190.0 9.0341e-05
18210.0 8.9866e-05
18230.0 8.9376e-05
18250.0 8.8885e-05
18270.0 8.8416e-05
18290.0 8.7943e-05
18310.0 8.7461e-05
18330.0 8.6992e-05
18350.0 8.6534e-05
18370.0 8.606e-05
18390.0 8.5589e-05
18410.0 8.5134e-05
18430.0 8.4675e-05
18450.0 8.4201e-05
18470.0 8.3748e-05
18490.0 8.3302e-05
18510.0 8.2845e-05
18530.0 8.239e-05
18550.0 8.1953e-05
18570.0 8.1505e-05
18590.0 8.1049e-05
18610.0 8.0609e-05
18630.0 8.0175e-05
18650.0 7.9729e-05
18670.0 7.9284e-05
18690.0 7.8861e-05
18710.0 7.8429e-05
18730.0 7.799e-05
18750.0 7.7565e-05
18770.0 7.7147e-05
18790.0 7.6707e-05
18810.0 7.6279e-05
18830.0 7.5866e-05
18850.0 7.5444e-05
18870.0 7.5017e-05
18890.0 7.4607e-05
18910.0 7.42e-05
18930.0 7.3778e-05
18950.0 7.3365e-05
18970.0 7.2964e-05
18990.0 7.2554e-05
19010.0 7.2131e-05
19030.0 7.1736e-05
19050.0 7.1338e-05
19070.0 7.093e-05
19090.0 7.053e-05
19110.0 7.0145e-05
19130.0 6.9742e-05
19150.0 6.9339e-05
19170.0 6.8952e-05
19190.0 6.8564e-05
19210.0 6.8164e-05
19230.0 6.7773e-05
19250.0 6.7398e-05
19270.0 6.701e-05
19290.0 6.6621e-05
19310.0 6.6247e-05
19330.0 6.5872e-05
19350.0 6.5478e-05
19370.0 6.5101e-05
19390.0 6.4733e-05
19410.0 6.4354e-05
19430.0 6.3973e-05
19450.0 6.3612e-05
19470.0 6.3245e-05
19490.0 6.2869e-05
19510.0 6.2503e-05
19530.0 6.2146e-05
19550.0 6.1773e-05
19570.0 6.14e-05
19590.0 6.1048e-05
19610.0 6.069e-05
19630.0 6.0323e-05
19650.0 5.9969e-05
19670.0 5.9623e-05
19690.0 5.926e-05
19710.0 5.8901e-05
19730.0 5.8556e-05
19750.0 5.8206e-05
19770.0 5.7843e-05
19790.0 5.7498e-05
19810.0 5.7158e-05
19830.0 5.6805e-05
19850.0 5.6452e-05
19870.0 5.6108e-05
19890.0 5.5738e-05
19910.0 5.5333e-05
19930.0 5.4904e-05
19950.0 5.4419e-05
19970.0 5.3828e-05
19990.0 5.313e-05
20010.0 5.2355e-05
20030.0 5.1441e-05
20050.0 5.0405e-05
20070.0 4.9324e-05
20090.0 4.8208e-05
20110.0 4.7002e-05
20130.0 4.5844e-05
20150.0 4.4756e-05
20170.0 4.3685e-05
20190.0 4.2657e-05
20210.0 4.1739e-05
20230.0 4.0889e-05
20250.0 4.0081e-05
20270.0 3.9374e-05
20290.0 3.8765e-05
20310.0 3.8223e-05
20330.0 3.7757e-05
20350.0 3.7411e-05
20370.0 3.7148e-05
20390.0 3.6969e-05
20410.0 3.6889e-05
20430.0 3.69e-05
20450.0 3.7007e-05
20470.0 3.7212e-05
20490.0 3.7502e-05
20510.0 3.788e-05
20530.0 3.8361e-05
20550.0 3.8913e-05
20570.0 3.9514e-05
20590.0 4.02e-05
20610.0 4.0941e-05
20630.0 4.1693e-05
20650.0 4.2477e-05
20670.0 4.3311e-05
20690.0 4.4103e-05
20710.0 4.4864e-05
20730.0 4.5618e-05
20750.0 4.6331e-05
20770.0 4.6964e-05
20790.0 4.7555e-05
20810.0 4.8104e-05
20830.0 4.8579e-05
20850.0 4.8994e-05
20870.0 4.9377e-05
20890.0 4.9715e-05
20910.0 5.0001e-05
20930.0 5.0264e-05
20950.0 5.0508e-05
20970.0 5.0724e-05
20990.0 5.0918e-05
21010.0 5.1101e-05
21030.0 5.1259e-05
21050.0 5.1388e-05
21070.0 5.149e-05
21090.0 5.156e-05
21110.0 5.1589e-05
21130.0 5.158e-05
21150.0 5.1529e-05
21170.0 5.1437e-05
21190.0 5.1312e-05
21210.0 5.1146e-05
21230.0 5.0944e-05
21250.0 5.0723e-05
21270.0 5.0484e-05
21290.0 5.0221e-05
21310.0 4.9951e-05
21330.0 4.9692e-05
21350.0 4.9426e-05
21370.0 4.9165e-05
21390.0 4.8926e-05
21410.0 4.8704e-05
21430.0 4.8491e-05
21450.0 4.8309e-05
21470.0 4.8158e-05
21490.0 4.8029e-05
21510.0 4.7928e-05
21530.0 4.786e-05
21550.0 4.7821e-05
21570.0 4.7811e-05
21590.0 4.7834e-05
21610.0 4.7888e-05
21630.0 4.7975e-05
21650.0 4.8101e-05
21670.0 4.8252e-05
21690.0 4.8438e-05
21710.0 4.8666e-05
21730.0 4.8926e-05
21750.0 4.9212e-05
21770.0 4.9553e-05
21790.0 4.9931e-05
21810.0 5.0332e-05
21830.0 5.0773e-05
21850.0 5.1265e-05
21870.0 5.1779e-05
21890.0 5.2307e-05
21910.0 5.2885e-05
21930.0 5.3489e-05
21950.0 5.4091e-05
21970.0 5.4718e-05
21990.0 5.5386e-05
22010.0 5.6028e-05
22030.0 5.6658e-05
22050.0 5.7299e-05
22070.0 5.7923e-05
22090.0 5.8495e-05
22110.0 5.9049e-05
22130.0 5.9575e-05
22150.0 6.0035e-05
22170.0 6.0435e-05
22190.0 6.0785e-05
22210.0 6.1058e-05
22230.0 6.1241e-05
22250.0 6.1347e-05
22270.0 6.1364e-05
22290.0 6.1288e-05
22310.0 6.1124e-05
22330.0 6.0852e-05
22350.0 6.0486e-05
22370.0 6.0039e-05
22390.0 5.9492e-05
22410.0 5.8834e-05
22430.0 5.8128e-05
22450.0 5.7353e-05
22470.0 5.6482e-05
22490.0 5.5561e-05
22510.0 5.4625e-05
22530.0 5.3607e-05
22550.0 5.2538e-05
22570.0 5.1494e-05
22590.0 5.0438e-05
22610.0 4.9342e-05
22630.0 4.8266e-05
22650.0 4.7247e-05
22670.0 4.6209e-05
22690.0 4.5186e-05
22710.0 4.423e-05
22730.0 4.331e-05
22750.0 4.238e-05
22770.0 4.153e-05
22790.0 4.075e-05
22810.0 3.9994e-05
