#lamb flux
1010.0 1.1793e-06
1030.0 1.2643e-06
1050.0 1.3623e-06
1070.0 1.4727e-06
1090.0 1.5982e-06
1110.0 1.7271e-06
1130.0 1.8571e-06
1150.0 1.9935e-06
1170.0 2.1345e-06
1190.0 2.2687e-06
1210.0 2.405e-06
1230.0 2.5461e-06
1250.0 2.685e-06
1270.0 2.8203e-06
1290.0 2.9636e-06
1310.0 3.1073e-06
1330.0 3.2459e-06
1350.0 3.3865e-06
1370.0 3.5321e-06
1390.0 3.6749e-06
1410.0 3.8141e-06
1430.0 3.9601e-06
1450.0 4.1067e-06
1470.0 4.2493e-06
1490.0 4.3939e-06
1510.0 4.5469e-06
1530.0 4.6928e-06
1550.0 4.8373e-06
1570.0 4.987e-06
1590.0 5.1371e-06
1610.0 5.2812e-06
1630.0 5.4296e-06
1650.0 5.5817e-06
1670.0 5.729e-06
1690.0 5.8741e-06
1710.0 6.0242e-06
1730.0 6.1745e-06
1750.0 6.3153e-06
1770.0 6.4591e-06
1790.0 6.6046e-06
1810.0 6.7441e-06
1830.0 6.8796e-06
1850.0 7.0218e-06
1870.0 7.1582e-06
1890.0 7.2877e-06
1910.0 7.4177e-06
1930.0 7.5486e-06
1950.0 7.6704e-06
1970.0 7.7879e-06
1990.0 7.9077e-06
2010.0 8.0223e-06
2030.0 8.1291e-06
2050.0 8.2372e-06
2070.0 8.3457e-06
2090.0 8.4435e-06
2110.0 8.5381e-06
2130.0 8.634e-06
2150.0 8.7248e-06
2170.0 8.8076e-06
2190.0 8.8929e-06
2210.0 8.9769e-06
2230.0 9.0538e-06
2250.0 9.1287e-06
2270.0 9.2076e-06
2290.0 9.2813e-06
2310.0 9.349e-06
2330.0 9.4197e-06
2350.0 9.491e-06
2370.0 9.5569e-06
2390.0 9.624e-06
2410.0 9.6971e-06
2430.0 9.7671e-06
2450.0 9.8361e-06
2470.0 9.9124e-06
2490.0 1e-05
2510.0 1.0102e-05
2530.0 1.0255e-05
2550.0 1.0519e-05
2570.0 1.0957e-05
2590.0 1.1646e-05
2610.0 1.2779e-05
2630.0 1.4412e-05
2650.0 1.6462e-05
2670.0 1.8958e-05
2690.0 2.1816e-05
2710.0 2.4657e-05
2730.0 2.7294e-05
2750.0 2.9772e-05
2770.0 3.1875e-05
2790.0 3.3574e-05
2810.0 3.504e-05
2830.0 3.6401e-05
2850.0 3.7598e-05
2870.0 3.8769e-05
2890.0 4.0001e-05
2910.0 4.127e-05
2930.0 4.2529e-05
2950.0 4.3879e-05
2970.0 4.5306e-05
2990.0 4.6732e-05
3010.0 0.0002113
3030.0 0.000218
3050.0 0.00022463
3070.0 0.00023053
3090.0 0.00023549
3110.0 0.0002381
3130.0 0.00023669
3150.0 0.00022952
3170.0 0.00021313
3190.0 0.00018725
3210.0 0.00015248
3230.0 0.00011359
3250.0 0.00015253
3270.0 0.00011
3290.0 0.00020293
3310.0 0.00010405
3330.0 0.00010392
3350.0 0.00011741
3370.0 0.00013378
3390.0 0.00015186
3410.0 0.00017005
3430.0 0.00018925
3450.0 0.00020875
3470.0 0.00022691
3490.0 0.00024021
3510.0 0.00027994
3530.0 0.0003482
3550.0 0.00034187
3570.0 0.00029311
3590.0 0.00037756
3610.0 0.00026824
3630.0 0.0004008
3650.0 0.00045971
3670.0 0.00056753
3690.0 0.00053142
3710.0 0.0003769
3730.0 0.00046377
3750.0 0.0004722
3770.0 0.00051052
3790.0 0.00051073
3810.0 0.00054756
3830.0 0.00084101
3850.0 0.0010473
3870.0 0.0012782
3890.0 0.0012665
3910.0 0.001154
3930.0 0.0011624
3950.0 0.0012401
3970.0 0.0012882
3990.0 0.00079744
4010.0 0.00044916
4030.0 0.00080462
4050.0 0.0010898
4070.0 0.0011214
4090.0 0.0007366
4110.0 0.00048932
4130.0 0.00082434
4150.0 0.00087253
4170.0 0.0007776
4190.0 0.00068376
4210.0 0.00098501
4230.0 0.00077571
4250.0 0.00080452
4270.0 0.00079874
4290.0 0.00074106
4310.0 0.00094161
4330.0 0.0010409
4350.0 0.00092769
4370.0 0.0008023
4390.0 0.00093363
4410.0 0.00093396
4430.0 0.00068688
4450.0 0.00059312
4470.0 0.00073217
4490.0 0.0005948
4510.0 0.00084852
4530.0 0.00087617
4550.0 0.00098465
4570.0 0.0013407
4590.0 0.0013871
4610.0 0.0012669
4630.0 0.0018982
4650.0 0.002376
4670.0 0.0023129
4690.0 0.0018252
4710.0 0.0018858
4730.0 0.0019581
4750.0 0.001554
4770.0 0.0012098
4790.0 0.00085166
4810.0 0.0010814
4830.0 0.0012703
4850.0 0.0011583
4870.0 0.00065043
4890.0 0.0013479
4910.0 0.0016458
4930.0 0.0017941
4950.0 0.0019251
4970.0 0.0015415
4990.0 0.0017746
5010.0 0.0019778
5030.0 0.0020222
5050.0 0.0018029
5070.0 0.0012804
5090.0 0.0010492
5110.0 0.0010314
5130.0 0.001013
5150.0 0.0010173
5170.0 0.00093031
5190.0 0.001067
5210.0 0.0010907
5230.0 0.0012091
5250.0 0.00139
5270.0 0.0011996
5290.0 0.0012958
5310.0 0.0018184
5330.0 0.0020633
5350.0 0.0017895
5370.0 0.0016705
5390.0 0.0019007
5410.0 0.0021516
5430.0 0.0022356
5450.0 0.0023474
5470.0 0.0024261
5490.0 0.0026161
5510.0 0.0031379
5530.0 0.0032641
5550.0 0.0033907
5570.0 0.0035001
5590.0 0.0034204
5610.0 0.003214
5630.0 0.0031713
5650.0 0.0032911
5670.0 0.0032061
5690.0 0.002793
5710.0 0.0027689
5730.0 0.0027125
5750.0 0.0027065
5770.0 0.0023538
5790.0 0.0023201
5810.0 0.0024078
5830.0 0.0026209
5850.0 0.0024845
5870.0 0.0024783
5890.0 0.002791
5910.0 0.0025947
5930.0 0.0022122
5950.0 0.0020682
5970.0 0.0022293
5990.0 0.0020057
6010.0 0.0017908
6030.0 0.0016961
6050.0 0.001546
6070.0 0.0012659
6090.0 0.0012514
6110.0 0.0015366
6130.0 0.0016707
6150.0 0.0017136
6170.0 0.0017003
6190.0 0.00168
6210.0 0.0018107
6230.0 0.0021759
6250.0 0.0020132
6270.0 0.0017927
6290.0 0.0016047
6310.0 0.0014139
6330.0 0.0012916
6350.0 0.0011799
6370.0 0.0012153
6390.0 0.0013944
6410.0 0.001715
6430.0 0.0020557
6450.0 0.0021644
6470.0 0.0022532
6490.0 0.0026804
6510.0 0.0030292
6530.0 0.0028966
6550.0 0.002754
6570.0 0.0027898
6590.0 0.0027669
6610.0 0.0028692
6630.0 0.0026829
6650.0 0.0023546
6670.0 0.0022055
6690.0 0.0021804
6710.0 0.0024607
6730.0 0.002176
6750.0 0.0018068
6770.0 0.001673
6790.0 0.0017806
6810.0 0.0020341
6830.0 0.002038
6850.0 0.001839
6870.0 0.0018833
6890.0 0.0018689
6910.0 0.001757
6930.0 0.0018963
6950.0 0.0017906
6970.0 0.0016961
6990.0 0.0017055
7010.0 0.0017528
7030.0 0.001714
7050.0 0.0016181
7070.0 0.0016778
7090.0 0.0015382
7110.0 0.0013095
7130.0 0.0011762
7150.0 0.00119
7170.0 0.0014312
7190.0 0.0014915
7210.0 0.0014226
7230.0 0.0015157
7250.0 0.0015236
7270.0 0.0015164
7290.0 0.0016078
7310.0 0.0017121
7330.0 0.0016518
7350.0 0.001532
7370.0 0.0014161
7390.0 0.0014051
7410.0 0.001592
7430.0 0.001812
7450.0 0.0019471
7470.0 0.0020256
7490.0 0.002297
7510.0 0.0022765
7530.0 0.0019916
7550.0 0.0018295
7570.0 0.0015636
7590.0 0.0014509
7610.0 0.0014034
7630.0 0.0013175
7650.0 0.0014147
7670.0 0.0015803
7690.0 0.0017238
7710.0 0.0019687
7730.0 0.0020538
7750.0 0.0021294
7770.0 0.0022416
7790.0 0.0024017
7810.0 0.0023972
7830.0 0.0021587
7850.0 0.0021601
7870.0 0.0020887
7890.0 0.0020945
7910.0 0.0019632
7930.0 0.0019233
7950.0 0.0016052
7970.0 0.0015906
7990.0 0.0015522
8010.0 0.0017278
8030.0 0.0017222
8050.0 0.0018278
8070.0 0.0017587
8090.0 0.0017645
8110.0 0.0017365
8130.0 0.0017021
8150.0 0.0015893
8170.0 0.001563
8190.0 0.0015636
8210.0 0.001578
8230.0 0.0013878
8250.0 0.0012717
8270.0 0.0011225
8290.0 0.00095254
8310.0 0.00083018
8330.0 0.00064875
8350.0 0.00051879
8370.0 0.00049387
8390.0 0.00048203
8410.0 0.00051072
8430.0 0.00065797
8450.0 0.00071914
8470.0 0.00077551
8490.0 0.00090314
8510.0 0.00098169
8530.0 0.00111
8550.0 0.0013121
8570.0 0.0014435
8590.0 0.0015193
8610.0 0.001697
8630.0 0.0019397
8650.0 0.0019952
8670.0 0.0020375
8690.0 0.0021019
8710.0 0.0020565
8730.0 0.0019824
8750.0 0.0018222
8770.0 0.0018176
8790.0 0.0017858
8810.0 0.0016418
8830.0 0.0016315
8850.0 0.0014793
8870.0 0.0014029
8890.0 0.0012577
8910.0 0.0014067
8930.0 0.0012757
8950.0 0.0012835
8970.0 0.0013125
8990.0 0.0012777
9010.0 0.001309
9030.0 0.0012427
9050.0 0.0012371
9070.0 0.0012379
9090.0 0.0012386
9110.0 0.0012402
9130.0 0.0012406
9150.0 0.0012403
9170.0 0.0012369
9190.0 0.0012288
9210.0 0.0012481
9230.0 0.0012433
9250.0 0.0012407
9270.0 0.0012387
9290.0 0.001237
9310.0 0.0012355
9330.0 0.0012341
9350.0 0.0012327
9370.0 0.0012312
9390.0 0.0012297
9410.0 0.0012281
9430.0 0.0012264
9450.0 0.0012247
9470.0 0.0012228
9490.0 0.001221
9510.0 0.001219
9530.0 0.001217
9550.0 0.0012151
9570.0 0.001213
9590.0 0.001211
9610.0 0.0012089
9630.0 0.0012068
9650.0 0.0012048
9670.0 0.0012026
9690.0 0.0012005
9710.0 0.0011985
9730.0 0.0011964
9750.0 0.0011943
9770.0 0.0011924
9790.0 0.0011904
9810.0 0.0011884
9830.0 0.0011865
9850.0 0.0011847
9870.0 0.0011828
9890.0 0.0011811
9910.0 0.0011794
9930.0 0.0011777
9950.0 0.0011744
9970.0 0.0011734
9990.0 0.0011724
10010.0 0.0011712
10030.0 0.0011701
10050.0 0.0011684
10070.0 0.0011644
10090.0 0.0011642
10110.0 0.0011641
10130.0 0.0011637
10150.0 0.0011631
10170.0 0.0011625
10190.0 0.0011618
10210.0 0.0011611
10230.0 0.0011605
10250.0 0.0011599
10270.0 0.0011594
10290.0 0.001159
10310.0 0.0011586
10330.0 0.0011582
10350.0 0.001158
10370.0 0.0011578
10390.0 0.0011576
10410.0 0.0011575
10430.0 0.0011576
10450.0 0.0011576
10470.0 0.0011577
10490.0 0.0011579
10510.0 0.0011582
10530.0 0.0011584
10550.0 0.0011587
10570.0 0.0011591
10590.0 0.0011595
10610.0 0.00116
10630.0 0.0011605
10650.0 0.0011611
10670.0 0.0011617
10690.0 0.0011623
10710.0 0.001163
10730.0 0.0011638
10750.0 0.0011645
10770.0 0.0011653
10790.0 0.0011661
10810.0 0.0011669
10830.0 0.0011678
10850.0 0.0011686
10870.0 0.0011691
10890.0 0.0011691
10910.0 0.0011683
10930.0 0.0011661
10950.0 0.0011615
10970.0 0.0011539
10990.0 0.001143
11010.0 0.0011672
11030.0 0.0011458
11050.0 0.0011208
11070.0 0.0010919
11090.0 0.0010585
11110.0 0.0010252
11130.0 0.00099191
11150.0 0.00095791
11170.0 0.00092497
11190.0 0.00089509
11210.0 0.00086641
11230.0 0.00083929
11250.0 0.00081547
11270.0 0.00079438
11290.0 0.00077484
11310.0 0.00075762
11330.0 0.00074325
11350.0 0.00073004
11370.0 0.00071778
11390.0 0.00070673
11410.0 0.00069624
11430.0 0.00068521
11450.0 0.00067411
11470.0 0.00066288
11490.0 0.00065075
11510.0 0.00063744
11530.0 0.00062397
11550.0 0.00060995
11570.0 0.00059478
11590.0 0.00057931
11610.0 0.00056407
11630.0 0.00054813
11650.0 0.00053182
11670.0 0.00051646
11690.0 0.0005014
11710.0 0.00048625
11730.0 0.00047177
11750.0 0.0004584
11770.0 0.00044508
11790.0 0.00043218
11810.0 0.00042027
11830.0 0.00040891
11850.0 0.00039745
11870.0 0.00038679
11890.0 0.00037686
11910.0 0.00036694
11930.0 0.00035717
11950.0 0.00034801
11970.0 0.00033894
11990.0 0.00032965
12010.0 0.00032078
12030.0 0.00031227
12050.0 0.00030371
12070.0 0.00029524
12090.0 0.00028763
12110.0 0.00028032
12130.0 0.00027335
12150.0 0.0002672
12170.0 0.00026197
12190.0 0.00025733
12210.0 0.0002538
12230.0 0.00025152
12250.0 0.0002504
12270.0 0.00025058
12290.0 0.0002521
12310.0 0.00025482
12330.0 0.00025891
12350.0 0.0002642
12370.0 0.00027032
12390.0 0.00027734
12410.0 0.00028542
12430.0 0.00029349
12450.0 0.00030164
12470.0 0.00031001
12490.0 0.00031809
12510.0 0.0003254
12530.0 0.00033235
12550.0 0.00033873
12570.0 0.00034412
12590.0 0.00034865
12610.0 0.00035249
12630.0 0.00035545
12650.0 0.00035748
12670.0 0.00035884
12690.0 0.0003595
12710.0 0.00035952
12730.0 0.000359
12750.0 0.00035791
12770.0 0.00035637
12790.0 0.00035448
12810.0 0.00035216
12830.0 0.00034938
12850.0 0.00034639
12870.0 0.00034306
12890.0 0.0003392
12910.0 0.00033499
12930.0 0.00033053
12950.0 0.00032545
12970.0 0.00031979
12990.0 0.00031398
13010.0 0.00030778
13030.0 0.00030099
13050.0 0.00029402
13070.0 0.00028715
13090.0 0.00027988
13110.0 0.00027258
13130.0 0.00026568
13150.0 0.00025905
13170.0 0.00025249
13190.0 0.00024672
13210.0 0.00024175
13230.0 0.0002373
13250.0 0.0002336
13270.0 0.00023082
13290.0 0.00022875
13310.0 0.00022734
13330.0 0.00022666
13350.0 0.00022653
13370.0 0.00022682
13390.0 0.00022742
13410.0 0.00022813
13430.0 0.00022885
13450.0 0.00022944
13470.0 0.00022978
13490.0 0.00022982
13510.0 0.00022946
13530.0 0.00022869
13550.0 0.00022758
13570.0 0.00022613
13590.0 0.00022434
13610.0 0.00022242
13630.0 0.00022044
13650.0 0.00021833
13670.0 0.00021627
13690.0 0.00021437
13710.0 0.00021256
13730.0 0.00021084
13750.0 0.00020937
13770.0 0.00020805
13790.0 0.0002068
13810.0 0.00020563
13830.0 0.00020454
13850.0 0.0002034
13870.0 0.00020218
13890.0 0.0002009
13910.0 0.00019952
13930.0 0.00019795
13950.0 0.00019627
13970.0 0.00019456
13990.0 0.00019274
14010.0 0.00019086
14030.0 0.00018905
14050.0 0.00018731
14070.0 0.00018559
14090.0 0.00018406
14110.0 0.00018273
14130.0 0.00018156
14150.0 0.00018057
14170.0 0.00017982
14190.0 0.00017924
14210.0 0.00017885
14230.0 0.00017865
14250.0 0.00017863
14270.0 0.00017879
14290.0 0.00017916
14310.0 0.00017969
14330.0 0.00018039
14350.0 0.0001813
14370.0 0.00018236
14390.0 0.00018351
14410.0 0.00018484
14430.0 0.00018629
14450.0 0.00018773
14470.0 0.00018922
14490.0 0.00019084
14510.0 0.00019239
14530.0 0.0001939
14550.0 0.00019551
14570.0 0.0001972
14590.0 0.00019889
14610.0 0.00020075
14630.0 0.0002029
14650.0 0.00020522
14670.0 0.00020776
14690.0 0.00021073
14710.0 0.00021412
14730.0 0.00021763
14750.0 0.00022157
14770.0 0.00022597
14790.0 0.00023053
14810.0 0.00023518
14830.0 0.00024033
14850.0 0.00024545
14870.0 0.00025032
14890.0 0.00025513
14910.0 0.00025977
14930.0 0.0002638
14950.0 0.0002672
14970.0 0.00027009
14990.0 0.00027218
15010.0 0.00027344
15030.0 0.00027405
15050.0 0.00027406
15070.0 0.00027356
15090.0 0.00027273
15110.0 0.00027168
15130.0 0.0002705
15150.0 0.00026927
15170.0 0.00026799
15190.0 0.00026668
15210.0 0.00026539
15230.0 0.00026411
15250.0 0.0002628
15270.0 0.0002615
15290.0 0.00026024
15310.0 0.00025896
15330.0 0.00025767
15350.0 0.00025641
15370.0 0.00025515
15390.0 0.00025387
15410.0 0.0002526
15430.0 0.00025136
15450.0 0.00025011
15470.0 0.00024885
15490.0 0.00024762
15510.0 0.0002464
15530.0 0.00024516
15550.0 0.00024393
15570.0 0.00024273
15590.0 0.00024151
15610.0 0.00024028
15630.0 0.00023909
15650.0 0.0002379
15670.0 0.0002367
15690.0 0.00023551
15710.0 0.00023435
15730.0 0.00023317
15750.0 0.00023199
15770.0 0.00023084
15790.0 0.00022969
15810.0 0.00022852
15830.0 0.00022738
15850.0 0.00022626
15870.0 0.00022512
15890.0 0.00022399
15910.0 0.00022288
15930.0 0.00022177
15950.0 0.00022065
15970.0 0.00021955
15990.0 0.00021847
16010.0 0.00021737
16030.0 0.00021627
16050.0 0.00021521
16070.0 0.00021414
16090.0 0.00021307
16110.0 0.00021201
16130.0 0.00021098
16150.0 0.00020991
16170.0 0.00020886
16190.0 0.00020783
16210.0 0.00020681
16230.0 0.00020577
16250.0 0.00020475
16270.0 0.00020376
16290.0 0.00020274
16310.0 0.00020173
16330.0 0.00020075
16350.0 0.00019976
16370.0 0.00019874
16390.0 0.00019777
16410.0 0.00019681
16430.0 0.00019583
16450.0 0.00019486
16470.0 0.00019392
16490.0 0.00019296
16510.0 0.000192
16530.0 0.00019106
16550.0 0.00019013
16570.0 0.00018918
16590.0 0.00018824
16610.0 0.00018733
16630.0 0.00018641
16650.0 0.00018548
16670.0 0.00018458
16690.0 0.00018369
16710.0 0.00018276
16730.0 0.00018186
16750.0 0.00018098
16770.0 0.00018009
16790.0 0.00017919
16810.0 0.00017832
16830.0 0.00017745
16850.0 0.00017656
16870.0 0.00017569
16890.0 0.00017484
16910.0 0.00017397
16930.0 0.0001731
16950.0 0.00017225
16970.0 0.00017141
16990.0 0.00017055
17010.0 0.00016971
17030.0 0.00016889
17050.0 0.00016804
17070.0 0.0001672
17090.0 0.00016638
17110.0 0.00016556
17130.0 0.00016471
17150.0 0.00016389
17170.0 0.00016309
17190.0 0.00016227
17210.0 0.00016145
17230.0 0.00016066
17250.0 0.00015986
17270.0 0.00015904
17290.0 0.00015824
17310.0 0.00015746
17330.0 0.00015666
17350.0 0.00015585
17370.0 0.00015508
17390.0 0.0001543
17410.0 0.00015351
17430.0 0.00015273
17450.0 0.00015197
17470.0 0.00015118
17490.0 0.0001504
17510.0 0.00014964
17530.0 0.00014888
17550.0 0.0001481
17570.0 0.00014735
17590.0 0.0001466
17610.0 0.00014583
17630.0 0.00014507
17650.0 0.00014433
17670.0 0.00014358
17690.0 0.00014281
17710.0 0.00014208
17730.0 0.00014134
17750.0 0.00014059
17770.0 0.00013985
17790.0 0.00013914
17810.0 0.0001384
17830.0 0.00013765
17850.0 0.00013693
17870.0 0.00013621
17890.0 0.00013547
17910.0 0.00013474
17930.0 0.00013404
17950.0 0.00013331
17970.0 0.00013259
17990.0 0.00013189
18010.0 0.00013118
18030.0 0.00013045
18050.0 0.00012974
18070.0 0.00012905
18090.0 0.00012834
18110.0 0.00012762
18130.0 0.00012694
18150.0 0.00012624
18170.0 0.00012554
18190.0 0.00012484
18210.0 0.00012417
18230.0 0.00012346
18250.0 0.00012276
18270.0 0.00012209
18290.0 0.00012141
18310.0 0.00012071
18330.0 0.00012004
18350.0 0.00011938
18370.0 0.00011869
18390.0 0.00011801
18410.0 0.00011735
18430.0 0.00011668
18450.0 0.00011599
18470.0 0.00011533
18490.0 0.00011468
18510.0 0.00011401
18530.0 0.00011334
18550.0 0.0001127
18570.0 0.00011204
18590.0 0.00011137
18610.0 0.00011072
18630.0 0.00011008
18650.0 0.00010942
18670.0 0.00010876
18690.0 0.00010814
18710.0 0.0001075
18730.0 0.00010685
18750.0 0.00010621
18770.0 0.00010559
18790.0 0.00010494
18810.0 0.0001043
18830.0 0.00010368
18850.0 0.00010305
18870.0 0.00010241
18890.0 0.0001018
18910.0 0.00010118
18930.0 0.00010055
18950.0 9.9929e-05
18970.0 9.9325e-05
18990.0 9.8707e-05
19010.0 9.807e-05
19030.0 9.7472e-05
19050.0 9.6871e-05
19070.0 9.6254e-05
19090.0 9.5648e-05
19110.0 9.5064e-05
19130.0 9.4452e-05
19150.0 9.3841e-05
19170.0 9.3252e-05
19190.0 9.2662e-05
19210.0 9.2053e-05
19230.0 9.1457e-05
19250.0 9.0885e-05
19270.0 9.0293e-05
19290.0 8.9699e-05
19310.0 8.9126e-05
19330.0 8.8551e-05
19350.0 8.7949e-05
19370.0 8.7372e-05
19390.0 8.6806e-05
19410.0 8.6226e-05
19430.0 8.5641e-05
19450.0 8.5085e-05
19470.0 8.4521e-05
19490.0 8.3942e-05
19510.0 8.3379e-05
19530.0 8.2828e-05
19550.0 8.2254e-05
19570.0 8.168e-05
19590.0 8.1136e-05
19610.0 8.0583e-05
19630.0 8.0017e-05
19650.0 7.9469e-05
19670.0 7.8933e-05
19690.0 7.8372e-05
19710.0 7.7817e-05
19730.0 7.7282e-05
19750.0 7.674e-05
19770.0 7.6178e-05
19790.0 7.5643e-05
19810.0 7.5115e-05
19830.0 7.4568e-05
19850.0 7.4021e-05
19870.0 7.3487e-05
19890.0 7.2917e-05
19910.0 7.2296e-05
19930.0 7.1642e-05
19950.0 7.0909e-05
19970.0 7.0029e-05
19990.0 6.9002e-05
20010.0 6.7872e-05
20030.0 6.6553e-05
20050.0 6.5071e-05
20070.0 6.354e-05
20090.0 6.1972e-05
20110.0 6.0297e-05
20130.0 5.8708e-05
20150.0 5.7231e-05
20170.0 5.5797e-05
20190.0 5.444e-05
20210.0 5.3245e-05
20230.0 5.2155e-05
20250.0 5.1137e-05
20270.0 5.0261e-05
20290.0 4.9521e-05
20310.0 4.8875e-05
20330.0 4.8335e-05
20350.0 4.7947e-05
20370.0 4.7665e-05
20390.0 4.7493e-05
20410.0 4.7444e-05
20430.0 4.7507e-05
20450.0 4.7693e-05
20470.0 4.8003e-05
20490.0 4.8416e-05
20510.0 4.8943e-05
20530.0 4.9603e-05
20550.0 5.0353e-05
20570.0 5.1165e-05
20590.0 5.2089e-05
20610.0 5.3086e-05
20630.0 5.4096e-05
20650.0 5.5148e-05
20670.0 5.6269e-05
20690.0 5.7334e-05
20710.0 5.8357e-05
20730.0 5.9373e-05
20750.0 6.0337e-05
20770.0 6.1194e-05
20790.0 6.2002e-05
20810.0 6.2759e-05
20830.0 6.3424e-05
20850.0 6.4018e-05
20870.0 6.4582e-05
20890.0 6.5098e-05
20910.0 6.5554e-05
20930.0 6.5996e-05
20950.0 6.6429e-05
20970.0 6.6832e-05
20990.0 6.7215e-05
21010.0 6.7601e-05
21030.0 6.7956e-05
21050.0 6.827e-05
21070.0 6.8551e-05
21090.0 6.8791e-05
21110.0 6.8961e-05
21130.0 6.907e-05
21150.0 6.9116e-05
21170.0 6.9091e-05
21190.0 6.9002e-05
21210.0 6.8847e-05
21230.0 6.8624e-05
21250.0 6.8357e-05
21270.0 6.8046e-05
21290.0 6.7686e-05
21310.0 6.7298e-05
21330.0 6.6907e-05
21350.0 6.649e-05
21370.0 6.6062e-05
21390.0 6.565e-05
21410.0 6.5248e-05
21430.0 6.4837e-05
21450.0 6.4462e-05
21470.0 6.4121e-05
21490.0 6.38e-05
21510.0 6.3507e-05
21530.0 6.3262e-05
21550.0 6.3053e-05
21570.0 6.2877e-05
21590.0 6.2751e-05
21610.0 6.2673e-05
21630.0 6.2642e-05
21650.0 6.2665e-05
21670.0 6.274e-05
21690.0 6.2869e-05
21710.0 6.3062e-05
21730.0 6.331e-05
21750.0 6.3607e-05
21770.0 6.3984e-05
21790.0 6.4424e-05
21810.0 6.4908e-05
21830.0 6.5454e-05
21850.0 6.608e-05
21870.0 6.6744e-05
21890.0 6.7436e-05
21910.0 6.8202e-05
21930.0 6.9011e-05
21950.0 6.9825e-05
21970.0 7.0677e-05
21990.0 7.1592e-05
22010.0 7.2475e-05
22030.0 7.3347e-05
22050.0 7.4239e-05
22070.0 7.5114e-05
22090.0 7.592e-05
22110.0 7.6707e-05
22130.0 7.7462e-05
22150.0 7.813e-05
22170.0 7.8719e-05
22190.0 7.9248e-05
22210.0 7.9675e-05
22230.0 7.998e-05
22250.0 8.0184e-05
22270.0 8.0269e-05
22290.0 8.0228e-05
22310.0 8.0067e-05
22330.0 7.9761e-05
22350.0 7.9325e-05
22370.0 7.8774e-05
22390.0 7.8085e-05
22410.0 7.7244e-05
22430.0 7.6328e-05
22450.0 7.5314e-05
22470.0 7.4164e-05
22490.0 7.2938e-05
22510.0 7.1683e-05
22530.0 7.0312e-05
22550.0 6.8863e-05
22570.0 6.7439e-05
22590.0 6.5992e-05
22610.0 6.4482e-05
22630.0 6.2991e-05
22650.0 6.1574e-05
22670.0 6.0123e-05
22690.0 5.8687e-05
22710.0 5.7337e-05
22730.0 5.6035e-05
22750.0 5.4712e-05
22770.0 5.35e-05
22790.0 5.2383e-05
22810.0 5.1299e-05
22830.0 5.0278e-05
22850.0 4.9375e-05
22870.0 4.8538e-05
22890.0 4.7755e-05
22910.0 4.7082e-05
22930.0 4.6509e-05
22950.0 4.6012e-05
22970.0 4.5605e-05
