#lamb flux
1010.0 1.7059e-06
1030.0 1.9226e-06
1050.0 2.1719e-06
1070.0 2.4525e-06
1090.0 2.7712e-06
1110.0 3.0981e-06
1130.0 3.4271e-06
1150.0 3.7718e-06
1170.0 4.1273e-06
1190.0 4.4645e-06
1210.0 4.8061e-06
1230.0 5.1592e-06
1250.0 5.5051e-06
1270.0 5.8411e-06
1290.0 6.1961e-06
1310.0 6.5508e-06
1330.0 6.8909e-06
1350.0 7.2349e-06
1370.0 7.5901e-06
1390.0 7.9363e-06
1410.0 8.2722e-06
1430.0 8.6234e-06
1450.0 8.9745e-06
1470.0 9.3137e-06
1490.0 9.6566e-06
1510.0 1.0019e-05
1530.0 1.0362e-05
1550.0 1.07e-05
1570.0 1.105e-05
1590.0 1.14e-05
1610.0 1.1734e-05
1630.0 1.2078e-05
1650.0 1.2431e-05
1670.0 1.2773e-05
1690.0 1.3109e-05
1710.0 1.3458e-05
1730.0 1.3809e-05
1750.0 1.4137e-05
1770.0 1.4475e-05
1790.0 1.4819e-05
1810.0 1.515e-05
1830.0 1.5474e-05
1850.0 1.5818e-05
1870.0 1.615e-05
1890.0 1.6469e-05
1910.0 1.6793e-05
1930.0 1.7122e-05
1950.0 1.7432e-05
1970.0 1.7736e-05
1990.0 1.8048e-05
2010.0 1.8351e-05
2030.0 1.8638e-05
2050.0 1.8929e-05
2070.0 1.9224e-05
2090.0 1.9493e-05
2110.0 1.9754e-05
2130.0 2.0019e-05
2150.0 2.0269e-05
2170.0 2.0497e-05
2190.0 2.0728e-05
2210.0 2.0952e-05
2230.0 2.1152e-05
2250.0 2.1341e-05
2270.0 2.1532e-05
2290.0 2.1702e-05
2310.0 2.1846e-05
2330.0 2.1987e-05
2350.0 2.2119e-05
2370.0 2.2225e-05
2390.0 2.2325e-05
2410.0 2.2432e-05
2430.0 2.2529e-05
2450.0 2.2625e-05
2470.0 2.2747e-05
2490.0 2.2908e-05
2510.0 2.3099e-05
2530.0 2.3397e-05
2550.0 2.3915e-05
2570.0 2.476e-05
2590.0 2.6074e-05
2610.0 2.8257e-05
2630.0 3.1404e-05
2650.0 3.5332e-05
2670.0 4.0083e-05
2690.0 4.545e-05
2710.0 5.0615e-05
2730.0 5.5171e-05
2750.0 5.9166e-05
2770.0 6.2148e-05
2790.0 6.4079e-05
2810.0 6.5279e-05
2830.0 6.5964e-05
2850.0 6.6139e-05
2870.0 6.6068e-05
2890.0 6.5897e-05
2910.0 6.5647e-05
2930.0 6.5323e-05
2950.0 6.5018e-05
2970.0 6.4732e-05
2990.0 6.4421e-05
3010.0 0.0013331
3030.0 0.0013262
3050.0 0.0013194
3070.0 0.0013114
3090.0 0.0013029
3110.0 0.0012926
3130.0 0.0012789
3150.0 0.0012609
3170.0 0.0012374
3190.0 0.0012088
3210.0 0.0011777
3230.0 0.0011464
3250.0 0.0011204
3270.0 0.0011033
3290.0 0.0010993
3310.0 0.0011079
3330.0 0.0011315
3350.0 0.0011667
3370.0 0.001214
3390.0 0.0012721
3410.0 0.0013347
3430.0 0.0014047
3450.0 0.0014847
3470.0 0.0015712
3490.0 0.001662
3510.0 0.0017634
3530.0 0.0018709
3550.0 0.0019784
3570.0 0.0020905
3590.0 0.0022152
3610.0 0.0023436
3630.0 0.0024787
3650.0 0.0026192
3670.0 0.0027513
3690.0 0.0028545
3710.0 0.0029187
3730.0 0.0029312
3750.0 0.0028918
3770.0 0.0026604
3790.0 0.0024004
3810.0 0.0022255
3830.0 0.0019437
3850.0 0.0014463
3870.0 0.0010282
3890.0 0.0017191
3910.0 0.0027958
3930.0 0.0033812
3950.0 0.0033224
3970.0 0.0033959
3990.0 0.0039888
4010.0 0.0051237
4030.0 0.0051855
4050.0 0.0045958
4070.0 0.0040735
4090.0 0.003851
4110.0 0.0046418
4130.0 0.0048518
4150.0 0.0047347
4170.0 0.0048014
4190.0 0.0048949
4210.0 0.0048318
4230.0 0.0053369
4250.0 0.0058336
4270.0 0.0059176
4290.0 0.0059913
4310.0 0.0061449
4330.0 0.0067754
4350.0 0.0078135
4370.0 0.0088711
4390.0 0.0084213
4410.0 0.0068962
4430.0 0.0057869
4450.0 0.0049569
4470.0 0.0048117
4490.0 0.0052866
4510.0 0.0059302
4530.0 0.0065524
4550.0 0.0075893
4570.0 0.0089804
4590.0 0.010887
4610.0 0.013981
4630.0 0.016985
4650.0 0.017465
4670.0 0.016864
4690.0 0.017973
4710.0 0.018979
4730.0 0.016097
4750.0 0.011502
4770.0 0.0093709
4790.0 0.0090559
4810.0 0.0084206
4830.0 0.0079462
4850.0 0.0090998
4870.0 0.011745
4890.0 0.0135
4910.0 0.011454
4930.0 0.010136
4950.0 0.011348
4970.0 0.015209
4990.0 0.019731
5010.0 0.020991
5030.0 0.017363
5050.0 0.011209
5070.0 0.0077016
5090.0 0.0068346
5110.0 0.0071426
5130.0 0.0076898
5150.0 0.008078
5170.0 0.0080688
5190.0 0.0078977
5210.0 0.0076473
5230.0 0.0078345
5250.0 0.0083702
5270.0 0.0096289
5290.0 0.011106
5310.0 0.012233
5330.0 0.012547
5350.0 0.01264
5370.0 0.013733
5390.0 0.014835
5410.0 0.014425
5430.0 0.012464
5450.0 0.01146
5470.0 0.012834
5490.0 0.016458
5510.0 0.021021
5530.0 0.023365
5550.0 0.022651
5570.0 0.020524
5590.0 0.0183
5610.0 0.016903
5630.0 0.016045
5650.0 0.016404
5670.0 0.016011
5690.0 0.014855
5710.0 0.014065
5730.0 0.012759
5750.0 0.0091601
5770.0 0.0079502
5790.0 0.0089401
5810.0 0.010803
5830.0 0.012296
5850.0 0.013485
5870.0 0.013881
5890.0 0.013407
5910.0 0.012832
5930.0 0.012863
5950.0 0.013471
5970.0 0.014354
5990.0 0.013593
6010.0 0.011436
6030.0 0.0094985
6050.0 0.008243
6070.0 0.0081929
6090.0 0.009235
6110.0 0.010145
6130.0 0.0097773
6150.0 0.0090156
6170.0 0.0098024
6190.0 0.011816
6210.0 0.014415
6230.0 0.016608
6250.0 0.016651
6270.0 0.014908
6290.0 0.012348
6310.0 0.0098114
6330.0 0.0078001
6350.0 0.0070223
6370.0 0.0075977
6390.0 0.0089838
6410.0 0.010376
6430.0 0.01203
6450.0 0.014001
6470.0 0.01712
6490.0 0.021078
6510.0 0.023316
6530.0 0.021682
6550.0 0.019906
6570.0 0.019333
6590.0 0.018583
6610.0 0.016593
6630.0 0.01494
6650.0 0.013748
6670.0 0.014249
6690.0 0.014071
6710.0 0.0125
6730.0 0.011359
6750.0 0.010179
6770.0 0.0098817
6790.0 0.010886
6810.0 0.011203
6830.0 0.011503
6850.0 0.011266
6870.0 0.010781
6890.0 0.010524
6910.0 0.010129
6930.0 0.0095144
6950.0 0.0096776
6970.0 0.009821
6990.0 0.010968
7010.0 0.011687
7030.0 0.010707
7050.0 0.010041
7070.0 0.0097462
7090.0 0.008922
7110.0 0.0083601
7130.0 0.0085416
7150.0 0.0089652
7170.0 0.0095117
7190.0 0.0095787
7210.0 0.0095032
7230.0 0.0098973
7250.0 0.011343
7270.0 0.013271
7290.0 0.01439
7310.0 0.014059
7330.0 0.012511
7350.0 0.01121
7370.0 0.01081
7390.0 0.010904
7410.0 0.011395
7430.0 0.012455
7450.0 0.013486
7470.0 0.01482
7490.0 0.016415
7510.0 0.015956
7530.0 0.015109
7550.0 0.012619
7570.0 0.010323
7590.0 0.0081925
7610.0 0.007435
7630.0 0.0078368
7650.0 0.008971
7670.0 0.0099408
7690.0 0.011255
7710.0 0.01238
7730.0 0.012853
7750.0 0.013014
7770.0 0.012948
7790.0 0.012627
7810.0 0.012972
7830.0 0.012585
7850.0 0.01124
7870.0 0.010125
7890.0 0.0093273
7910.0 0.0082783
7930.0 0.0071026
7950.0 0.0064747
7970.0 0.0064119
7990.0 0.0066822
8010.0 0.0070873
8030.0 0.0071604
8050.0 0.0071569
8070.0 0.0069751
8090.0 0.007015
8110.0 0.0066412
8130.0 0.00605
8150.0 0.0056785
8170.0 0.0054275
8190.0 0.0054889
8210.0 0.0056257
8230.0 0.0059313
8250.0 0.0057706
8270.0 0.0051602
8290.0 0.0040498
8310.0 0.0027547
8330.0 0.0018036
8350.0 0.0012925
8370.0 0.0014931
8390.0 0.0016761
8410.0 0.0021433
8430.0 0.0026054
8450.0 0.0028642
8470.0 0.0030411
8490.0 0.0030698
8510.0 0.0031636
8530.0 0.0034583
8550.0 0.0039213
8570.0 0.0046841
8590.0 0.0056337
8610.0 0.0066718
8630.0 0.0077828
8650.0 0.008584
8670.0 0.0085387
8690.0 0.0081477
8710.0 0.0076743
8730.0 0.0072831
8750.0 0.0068829
8770.0 0.0066559
8790.0 0.0065088
8810.0 0.0061147
8830.0 0.0053766
8850.0 0.0045843
8870.0 0.0038726
8890.0 0.0035835
8910.0 0.0036995
8930.0 0.0037837
8950.0 0.004185
8970.0 0.0042766
8990.0 0.0043658
9010.0 0.0044151
9030.0 0.0044315
9050.0 0.0044592
9070.0 0.0044802
9090.0 0.0044956
9110.0 0.0045069
9130.0 0.004519
9150.0 0.0045327
9170.0 0.0045468
9190.0 0.0045616
9210.0 0.0045792
9230.0 0.0045957
9250.0 0.0046138
9270.0 0.0046328
9290.0 0.0046527
9310.0 0.004674
9330.0 0.0046964
9350.0 0.0047194
9370.0 0.0047436
9390.0 0.004769
9410.0 0.0047951
9430.0 0.0048219
9450.0 0.0048502
9470.0 0.0048794
9490.0 0.0049092
9510.0 0.00494
9530.0 0.004972
9550.0 0.0050043
9570.0 0.0050375
9590.0 0.0050718
9610.0 0.0051069
9630.0 0.0051424
9650.0 0.0051788
9670.0 0.0052164
9690.0 0.0052542
9710.0 0.0052926
9730.0 0.0053321
9750.0 0.0053721
9770.0 0.005412
9790.0 0.005453
9810.0 0.0054948
9830.0 0.0055367
9850.0 0.005579
9870.0 0.0056222
9890.0 0.0056657
9910.0 0.005709
9930.0 0.0057531
9950.0 0.0057976
9970.0 0.005842
9990.0 0.0058864
10010.0 0.0057343
10030.0 0.0057771
10050.0 0.0058196
10070.0 0.0058618
10090.0 0.0059054
10110.0 0.0059482
10130.0 0.005991
10150.0 0.0060342
10170.0 0.0060769
10190.0 0.0061188
10210.0 0.0061612
10230.0 0.0062035
10250.0 0.0062448
10270.0 0.006286
10290.0 0.0063273
10310.0 0.0063676
10330.0 0.006407
10350.0 0.0064466
10370.0 0.0064857
10390.0 0.0065237
10410.0 0.0065611
10430.0 0.0065986
10450.0 0.0066347
10470.0 0.0066698
10490.0 0.0067047
10510.0 0.0067388
10530.0 0.0067711
10550.0 0.0068029
10570.0 0.0068345
10590.0 0.0068645
10610.0 0.0068932
10630.0 0.0069216
10650.0 0.0069488
10670.0 0.0069741
10690.0 0.0069987
10710.0 0.0070226
10730.0 0.0070448
10750.0 0.0070652
10770.0 0.0070855
10790.0 0.0071043
10810.0 0.0071211
10830.0 0.0071368
10850.0 0.0071512
10870.0 0.0071618
10890.0 0.0071683
10910.0 0.0071696
10930.0 0.0071614
10950.0 0.0071377
10970.0 0.0070963
10990.0 0.0070357
11010.0 0.0067887
11030.0 0.0066747
11050.0 0.0065411
11070.0 0.006384
11090.0 0.0061963
11110.0 0.0060036
11130.0 0.0058035
11150.0 0.005589
11170.0 0.0053701
11190.0 0.0051611
11210.0 0.0049491
11230.0 0.0047368
11250.0 0.0045396
11270.0 0.0043558
11290.0 0.0041773
11310.0 0.0040137
11330.0 0.0038742
11350.0 0.0037457
11370.0 0.0036293
11390.0 0.0035298
11410.0 0.0034425
11430.0 0.0033595
11450.0 0.0032846
11470.0 0.0032154
11490.0 0.0031457
11510.0 0.0030725
11530.0 0.0029992
11550.0 0.0029224
11570.0 0.0028376
11590.0 0.0027484
11610.0 0.0026576
11630.0 0.00256
11650.0 0.0024575
11670.0 0.0023589
11690.0 0.0022614
11710.0 0.0021635
11730.0 0.0020712
11750.0 0.0019878
11770.0 0.0019078
11790.0 0.0018344
11810.0 0.0017706
11830.0 0.001714
11850.0 0.0016619
11870.0 0.0016176
11890.0 0.0015794
11910.0 0.0015441
11930.0 0.0015113
11950.0 0.0014812
11970.0 0.0014515
11990.0 0.0014204
12010.0 0.0013892
12030.0 0.0013572
12050.0 0.0013231
12070.0 0.0012871
12090.0 0.0012523
12110.0 0.001217
12130.0 0.0011816
12150.0 0.0011487
12170.0 0.0011192
12190.0 0.001092
12210.0 0.00107
12230.0 0.001054
12250.0 0.0010438
12270.0 0.0010402
12290.0 0.0010435
12310.0 0.0010528
12330.0 0.001069
12350.0 0.0010914
12370.0 0.0011178
12390.0 0.0011488
12410.0 0.0011855
12430.0 0.0012223
12450.0 0.0012597
12470.0 0.0012986
12490.0 0.0013363
12510.0 0.0013702
12530.0 0.0014025
12550.0 0.0014318
12570.0 0.0014555
12590.0 0.0014742
12610.0 0.0014887
12630.0 0.0014974
12650.0 0.0015
12670.0 0.0014979
12690.0 0.0014908
12710.0 0.001479
12730.0 0.0014634
12750.0 0.0014435
12770.0 0.0014205
12790.0 0.0013954
12810.0 0.0013676
12830.0 0.0013373
12850.0 0.0013065
12870.0 0.0012747
12890.0 0.0012408
12910.0 0.0012063
12930.0 0.0011721
12950.0 0.0011361
12970.0 0.0010988
12990.0 0.0010626
13010.0 0.0010261
13030.0 0.00098837
13050.0 0.0009513
13070.0 0.00091583
13090.0 0.00087978
13110.0 0.00084451
13130.0 0.00081171
13150.0 0.00078062
13170.0 0.00075044
13190.0 0.00072385
13210.0 0.00070082
13230.0 0.00068039
13250.0 0.00066347
13270.0 0.00065076
13290.0 0.00064162
13310.0 0.00063631
13330.0 0.00063502
13350.0 0.00063726
13370.0 0.00064314
13390.0 0.00065251
13410.0 0.00066381
13430.0 0.0006775
13450.0 0.00069344
13470.0 0.00071012
13490.0 0.0007269
13510.0 0.00074505
13530.0 0.00076258
13550.0 0.00077855
13570.0 0.00079365
13590.0 0.00080775
13610.0 0.0008196
13630.0 0.0008293
13650.0 0.0008376
13670.0 0.00084377
13690.0 0.00084773
13710.0 0.00084993
13730.0 0.0008504
13750.0 0.00084895
13770.0 0.00084601
13790.0 0.0008416
13810.0 0.00083585
13830.0 0.00082913
13850.0 0.00082121
13870.0 0.00081217
13890.0 0.00080249
13910.0 0.00079215
13930.0 0.00078075
13950.0 0.0007688
13970.0 0.00075694
13990.0 0.00074444
14010.0 0.00073155
14030.0 0.00071901
14050.0 0.0007067
14070.0 0.0006941
14090.0 0.00068234
14110.0 0.00067157
14130.0 0.00066147
14150.0 0.0006523
14170.0 0.00064476
14190.0 0.00063855
14210.0 0.00063367
14230.0 0.00063048
14250.0 0.00062892
14270.0 0.00062897
14290.0 0.00063078
14310.0 0.000634
14330.0 0.00063863
14350.0 0.00064477
14370.0 0.00065196
14390.0 0.0006598
14410.0 0.00066881
14430.0 0.00067852
14450.0 0.00068836
14470.0 0.0006986
14490.0 0.00070968
14510.0 0.00072061
14530.0 0.0007315
14550.0 0.00074315
14570.0 0.0007554
14590.0 0.00076777
14610.0 0.00078121
14630.0 0.0007963
14650.0 0.0008122
14670.0 0.00082922
14690.0 0.00084843
14710.0 0.0008697
14730.0 0.00089135
14750.0 0.00091503
14770.0 0.00094084
14790.0 0.00096721
14810.0 0.00099382
14830.0 0.0010227
14850.0 0.0010513
14870.0 0.0010785
14890.0 0.0011052
14910.0 0.0011311
14930.0 0.0011539
14950.0 0.0011736
14970.0 0.0011909
14990.0 0.0012043
15010.0 0.0012138
15030.0 0.0012202
15050.0 0.0012238
15070.0 0.0012249
15090.0 0.0012244
15110.0 0.0012229
15130.0 0.0012208
15150.0 0.0012185
15170.0 0.0012159
15190.0 0.0012132
15210.0 0.0012106
15230.0 0.001208
15250.0 0.0012053
15270.0 0.0012027
15290.0 0.0012002
15310.0 0.0011976
15330.0 0.001195
15350.0 0.0011925
15370.0 0.0011901
15390.0 0.0011874
15410.0 0.0011849
15430.0 0.0011825
15450.0 0.00118
15470.0 0.0011774
15490.0 0.001175
15510.0 0.0011726
15530.0 0.00117
15550.0 0.0011676
15570.0 0.0011652
15590.0 0.0011627
15610.0 0.0011601
15630.0 0.0011577
15650.0 0.0011552
15670.0 0.0011527
15690.0 0.0011502
15710.0 0.0011478
15730.0 0.0011453
15750.0 0.0011428
15770.0 0.0011403
15790.0 0.0011379
15810.0 0.0011352
15830.0 0.0011327
15850.0 0.0011302
15870.0 0.0011277
15890.0 0.0011251
15910.0 0.0011226
15930.0 0.00112
15950.0 0.0011173
15970.0 0.0011148
15990.0 0.0011122
16010.0 0.0011095
16030.0 0.0011068
16050.0 0.0011042
16070.0 0.0011016
16090.0 0.0010988
16110.0 0.0010961
16130.0 0.0010935
16150.0 0.0010906
16170.0 0.0010878
16190.0 0.0010851
16210.0 0.0010823
16230.0 0.0010794
16250.0 0.0010766
16270.0 0.0010738
16290.0 0.0010709
16310.0 0.0010679
16330.0 0.0010651
16350.0 0.0010622
16370.0 0.001059
16390.0 0.0010561
16410.0 0.0010532
16430.0 0.0010501
16450.0 0.001047
16470.0 0.001044
16490.0 0.0010409
16510.0 0.0010377
16530.0 0.0010346
16550.0 0.0010315
16570.0 0.0010282
16590.0 0.0010249
16610.0 0.0010218
16630.0 0.0010185
16650.0 0.0010152
16670.0 0.001012
16690.0 0.0010087
16710.0 0.0010052
16730.0 0.0010018
16750.0 0.0009985
16770.0 0.00099506
16790.0 0.00099153
16810.0 0.00098814
16830.0 0.0009847
16850.0 0.00098112
16870.0 0.00097759
16890.0 0.00097413
16910.0 0.00097049
16930.0 0.00096679
16950.0 0.00096324
16970.0 0.00095963
16990.0 0.00095589
17010.0 0.00095222
17030.0 0.00094862
17050.0 0.00094484
17070.0 0.00094104
17090.0 0.00093733
17110.0 0.00093357
17130.0 0.00092964
17150.0 0.00092583
17170.0 0.00092207
17190.0 0.00091816
17210.0 0.00091424
17230.0 0.00091044
17250.0 0.00090653
17270.0 0.00090248
17290.0 0.00089855
17310.0 0.00089464
17330.0 0.0008906
17350.0 0.00088652
17370.0 0.00088261
17390.0 0.00087859
17410.0 0.00087447
17430.0 0.00087044
17450.0 0.00086646
17470.0 0.00086224
17490.0 0.00085809
17510.0 0.00085405
17530.0 0.00084992
17550.0 0.00084569
17570.0 0.00084158
17590.0 0.00083749
17610.0 0.00083324
17630.0 0.00082903
17650.0 0.00082491
17670.0 0.00082069
17690.0 0.00081632
17710.0 0.00081216
17730.0 0.00080797
17750.0 0.00080367
17770.0 0.0007994
17790.0 0.00079525
17810.0 0.00079093
17830.0 0.00078658
17850.0 0.00078234
17870.0 0.00077809
17890.0 0.0007737
17910.0 0.00076937
17930.0 0.00076517
17950.0 0.00076084
17970.0 0.00075647
17990.0 0.00075222
18010.0 0.00074795
18030.0 0.0007435
18050.0 0.00073917
18070.0 0.00073491
18090.0 0.00073054
18110.0 0.00072614
18130.0 0.00072188
18150.0 0.00071759
18170.0 0.00071319
18190.0 0.00070886
18210.0 0.00070461
18230.0 0.00070021
18250.0 0.00069579
18270.0 0.00069153
18290.0 0.00068723
18310.0 0.00068284
18330.0 0.00067853
18350.0 0.00067431
18370.0 0.00066993
18390.0 0.00066557
18410.0 0.00066132
18430.0 0.00065703
18450.0 0.00065261
18470.0 0.00064834
18490.0 0.00064413
18510.0 0.0006398
18530.0 0.00063549
18550.0 0.00063131
18570.0 0.00062704
18590.0 0.00062268
18610.0 0.00061845
18630.0 0.00061426
18650.0 0.00060996
18670.0 0.00060567
18690.0 0.00060155
18710.0 0.00059734
18730.0 0.00059308
18750.0 0.00058892
18770.0 0.0005848
18790.0 0.00058051
18810.0 0.00057631
18830.0 0.00057222
18850.0 0.00056806
18870.0 0.00056385
18890.0 0.00055977
18910.0 0.00055572
18930.0 0.00055154
18950.0 0.00054743
18970.0 0.00054341
18990.0 0.00053932
19010.0 0.00053512
19030.0 0.00053114
19050.0 0.00052714
19070.0 0.00052306
19090.0 0.00051903
19110.0 0.00051513
19130.0 0.00051108
19150.0 0.00050704
19170.0 0.00050311
19190.0 0.00049919
19210.0 0.00049516
19230.0 0.00049121
19250.0 0.00048738
19270.0 0.00048346
19290.0 0.00047952
19310.0 0.00047571
19330.0 0.00047188
19350.0 0.00046791
19370.0 0.00046408
19390.0 0.00046031
19410.0 0.00045647
19430.0 0.00045261
19450.0 0.0004489
19470.0 0.00044516
19490.0 0.00044134
19510.0 0.00043761
19530.0 0.00043395
19550.0 0.00043017
19570.0 0.00042639
19590.0 0.00042278
19610.0 0.00041912
19630.0 0.00041541
19650.0 0.00041179
19670.0 0.00040823
19690.0 0.00040456
19710.0 0.00040092
19730.0 0.00039739
19750.0 0.00039382
19770.0 0.00039016
19790.0 0.00038664
19810.0 0.00038317
19830.0 0.0003796
19850.0 0.00037605
19870.0 0.00037259
19890.0 0.00036897
19910.0 0.00036516
19930.0 0.00036128
19950.0 0.00035713
19970.0 0.00035241
19990.0 0.00034716
20010.0 0.00034831
20030.0 0.00034181
20050.0 0.00033461
20070.0 0.00032716
20090.0 0.00031945
20110.0 0.0003111
20130.0 0.00030294
20150.0 0.00029511
20170.0 0.00028723
20190.0 0.00027948
20210.0 0.00027233
20230.0 0.0002655
20250.0 0.00025881
20270.0 0.00025272
20290.0 0.00024723
20310.0 0.00024211
20330.0 0.00023741
20350.0 0.00023357
20370.0 0.00023023
20390.0 0.0002274
20410.0 0.00022521
20430.0 0.00022362
20450.0 0.00022254
20470.0 0.00022203
20490.0 0.00022203
20510.0 0.00022249
20530.0 0.00022345
20550.0 0.00022477
20570.0 0.00022637
20590.0 0.00022834
20610.0 0.00023059
20630.0 0.00023296
20650.0 0.00023552
20670.0 0.00023838
20690.0 0.0002412
20710.0 0.00024403
20730.0 0.00024702
20750.0 0.00025006
20770.0 0.00025295
20790.0 0.00025594
20810.0 0.00025903
20830.0 0.00026204
20850.0 0.00026502
20870.0 0.0002682
20890.0 0.00027141
20910.0 0.00027449
20930.0 0.0002777
20950.0 0.00028104
20970.0 0.00028432
20990.0 0.00028757
21010.0 0.00029103
21030.0 0.00029444
21050.0 0.0002977
21070.0 0.00030098
21090.0 0.00030431
21110.0 0.00030734
21130.0 0.00031021
21150.0 0.00031302
21170.0 0.00031559
21190.0 0.00031784
21210.0 0.00031993
21230.0 0.00032179
21250.0 0.00032324
21270.0 0.00032438
21290.0 0.00032521
21310.0 0.00032564
21330.0 0.00032566
21350.0 0.00032529
21370.0 0.00032447
21390.0 0.00032321
21410.0 0.00032152
21430.0 0.00031923
21450.0 0.00031651
21470.0 0.00031341
21490.0 0.00030978
21510.0 0.00030566
21530.0 0.00030131
21550.0 0.00029662
21570.0 0.00029145
21590.0 0.00028619
21610.0 0.00028093
21630.0 0.00027546
21650.0 0.00026989
21670.0 0.00026481
21690.0 0.00025988
21710.0 0.00025513
21730.0 0.00025088
21750.0 0.00024719
21770.0 0.00024383
21790.0 0.00024109
21810.0 0.00023906
21830.0 0.00023763
21850.0 0.00023684
21870.0 0.00023673
21890.0 0.00023724
21910.0 0.00023838
21930.0 0.00024015
21950.0 0.00024239
21970.0 0.00024518
21990.0 0.00024862
22010.0 0.00025234
22030.0 0.00025637
22050.0 0.00026086
22070.0 0.00026564
22090.0 0.0002704
22110.0 0.00027542
22130.0 0.00028067
22150.0 0.00028579
22170.0 0.00029079
22190.0 0.00029592
22210.0 0.00030086
22230.0 0.00030531
22250.0 0.0003096
22270.0 0.00031361
22290.0 0.00031708
22310.0 0.00032007
22330.0 0.0003227
22350.0 0.00032471
22370.0 0.00032608
22390.0 0.00032688
22410.0 0.00032703
22430.0 0.00032652
22450.0 0.00032538
22470.0 0.00032353
22490.0 0.00032104
22510.0 0.00031801
22530.0 0.00031424
22550.0 0.00030975
22570.0 0.00030487
22590.0 0.00029946
22610.0 0.00029332
22630.0 0.00028678
22650.0 0.00028009
22670.0 0.00027275
22690.0 0.00026499
22710.0 0.00025721
22730.0 0.00024923
22750.0 0.00024062
22770.0 0.00023223
22790.0 0.00022407
22810.0 0.00021571
22830.0 0.0002074
22850.0 0.00019965
22870.0 0.0001921
22890.0 0.00018464
22910.0 0.00017784
22930.0 0.0001717
22950.0 0.00016596
22970.0 0.00016079
22990.0 0.00015667
23010.0 0.0001532
23030.0 0.00015047
23050.0 0.00014865
23070.0 0.00014768
23090.0 0.00014753
23110.0 0.00014827
23130.0 0.0001498
23150.0 0.00015212
23170.0 0.00015527
23190.0 0.00015901
23210.0 0.00016319
23230.0 0.00016806
23250.0 0.00017333
23270.0 0.00017871
23290.0 0.00018437
23310.0 0.00019039
23330.0 0.00019609
23350.0 0.0002016
23370.0 0.00020707
23390.0 0.00021219
