#lamb flux
1010.0 0.00026036
1030.0 0.00034272
1050.0 0.0004488
1070.0 0.00058293
1090.0 0.00075299
1110.0 0.00095338
1130.0 0.0011839
1150.0 0.0014511
1170.0 0.0017553
1190.0 0.0020797
1210.0 0.0024319
1230.0 0.0028114
1250.0 0.0031993
1270.0 0.0035831
1290.0 0.0039725
1310.0 0.0043431
1330.0 0.0046718
1350.0 0.0049614
1370.0 0.0052081
1390.0 0.0053893
1410.0 0.0054997
1430.0 0.0055563
1450.0 0.0055487
1470.0 0.0054734
1490.0 0.0053471
1510.0 0.0051866
1530.0 0.004978
1550.0 0.004739
1570.0 0.0044826
1590.0 0.0042155
1610.0 0.0039402
1630.0 0.0036734
1650.0 0.0034186
1670.0 0.0031738
1690.0 0.0029449
1710.0 0.0027379
1730.0 0.0025506
1750.0 0.0023798
1770.0 0.0022314
1790.0 0.0021039
1810.0 0.001994
1830.0 0.0019021
1850.0 0.0018315
1870.0 0.0017773
1890.0 0.0017373
1910.0 0.0017128
1930.0 0.0017032
1950.0 0.0017034
1970.0 0.0017159
1990.0 0.0017429
2010.0 0.0017819
2030.0 0.0018319
2050.0 0.0018944
2070.0 0.0019663
2090.0 0.0020455
2110.0 0.0021338
2130.0 0.0022321
2150.0 0.002338
2170.0 0.0024499
2190.0 0.0025703
2210.0 0.0026985
2230.0 0.0028318
2250.0 0.0029702
2270.0 0.0031151
2290.0 0.0032624
2310.0 0.0034107
2330.0 0.0035626
2350.0 0.0037163
2370.0 0.0038681
2390.0 0.0040197
2410.0 0.0041724
2430.0 0.0043209
2450.0 0.0044655
2470.0 0.0046097
2490.0 0.0047552
2510.0 0.0049011
2530.0 0.0050602
2550.0 0.0052495
2570.0 0.0054828
2590.0 0.0057793
2610.0 0.0061979
2630.0 0.0067633
2650.0 0.0074736
2670.0 0.0083769
2690.0 0.0095075
2710.0 0.010781
2730.0 0.012143
2750.0 0.013638
2770.0 0.015115
2790.0 0.016447
2810.0 0.01764
2830.0 0.01869
2850.0 0.019449
2870.0 0.02001
2890.0 0.02044
2910.0 0.020743
2930.0 0.02093
2950.0 0.02108
2970.0 0.0212
2990.0 0.021268
3010.0 0.02131
3030.0 0.021358
3050.0 0.021395
3070.0 0.021394
3090.0 0.021407
3110.0 0.021436
3130.0 0.021484
3150.0 0.021168
3170.0 0.0211
3190.0 0.02119
3210.0 0.021566
3230.0 0.022511
3250.0 0.024785
3270.0 0.028286
3290.0 0.031638
3310.0 0.034079
3330.0 0.035001
3350.0 0.035498
3370.0 0.036026
3390.0 0.036531
3410.0 0.036847
3430.0 0.037014
3450.0 0.037141
3470.0 0.03734
3490.0 0.037246
3510.0 0.035919
3530.0 0.032448
3550.0 0.030403
3570.0 0.034712
3590.0 0.041669
3610.0 0.047004
3630.0 0.055058
3650.0 0.054793
3670.0 0.047639
3690.0 0.040651
3710.0 0.037855
3730.0 0.039139
3750.0 0.040291
3770.0 0.041821
3790.0 0.043499
3810.0 0.045673
3830.0 0.04254
3850.0 0.038048
3870.0 0.035877
3890.0 0.038166
3910.0 0.039616
3930.0 0.039911
3950.0 0.042449
3970.0 0.045361
3990.0 0.045828
4010.0 0.04649
4030.0 0.044843
4050.0 0.04361
4070.0 0.042718
4090.0 0.042919
4110.0 0.043299
4130.0 0.042086
4150.0 0.040212
4170.0 0.039397
4190.0 0.038575
4210.0 0.035464
4230.0 0.03238
4250.0 0.028893
4270.0 0.025808
4290.0 0.024777
4310.0 0.024201
4330.0 0.024619
4350.0 0.027026
4370.0 0.027778
4390.0 0.030412
4410.0 0.032314
4430.0 0.032821
4450.0 0.029751
4470.0 0.026483
4490.0 0.025322
4510.0 0.024293
4530.0 0.023752
4550.0 0.023162
4570.0 0.023095
4590.0 0.023548
4610.0 0.023331
4630.0 0.023182
4650.0 0.022673
4670.0 0.022114
4690.0 0.020232
4710.0 0.018607
4730.0 0.01709
4750.0 0.016173
4770.0 0.014786
4790.0 0.01467
4810.0 0.014112
4830.0 0.01173
4850.0 0.013299
4870.0 0.010881
4890.0 0.012
4910.0 0.012931
4930.0 0.012313
4950.0 0.00957
4970.0 0.0090458
4990.0 0.0085461
5010.0 0.0073167
5030.0 0.0069916
5050.0 0.008393
5070.0 0.0084281
5090.0 0.0087925
5110.0 0.0089266
5130.0 0.0087134
5150.0 0.0090303
5170.0 0.0081064
5190.0 0.0077643
5210.0 0.0084447
5230.0 0.0078039
5250.0 0.0084604
5270.0 0.0097245
5290.0 0.009551
5310.0 0.0086199
5330.0 0.0085206
5350.0 0.0076237
5370.0 0.0076391
5390.0 0.0078827
5410.0 0.0075914
5430.0 0.0082244
5450.0 0.0075329
5470.0 0.0076305
5490.0 0.0096111
5510.0 0.0098361
5530.0 0.010023
5550.0 0.0099632
5570.0 0.010514
5590.0 0.011028
5610.0 0.011084
5630.0 0.010989
5650.0 0.011058
5670.0 0.01095
5690.0 0.011026
5710.0 0.01067
5730.0 0.011171
5750.0 0.010953
5770.0 0.010464
5790.0 0.010531
5810.0 0.010058
5830.0 0.010496
5850.0 0.010736
5870.0 0.010712
5890.0 0.010944
5910.0 0.011777
5930.0 0.011806
5950.0 0.012109
5970.0 0.012275
5990.0 0.012655
6010.0 0.012436
6030.0 0.012452
6050.0 0.012474
6070.0 0.01224
6090.0 0.01262
6110.0 0.01267
6130.0 0.012318
6150.0 0.012182
6170.0 0.012098
6190.0 0.011107
6210.0 0.011064
6230.0 0.01136
6250.0 0.011323
6270.0 0.011292
6290.0 0.011699
6310.0 0.012197
6330.0 0.012211
6350.0 0.01195
6370.0 0.012045
6390.0 0.011569
6410.0 0.011579
6430.0 0.011229
6450.0 0.01124
6470.0 0.011257
6490.0 0.011281
6510.0 0.010816
6530.0 0.010736
6550.0 0.01057
6570.0 0.010257
6590.0 0.010514
6610.0 0.010512
6630.0 0.010268
6650.0 0.0098229
6670.0 0.0096092
6690.0 0.0093921
6710.0 0.0090726
6730.0 0.0088923
6750.0 0.0089269
6770.0 0.0090936
6790.0 0.0088739
6810.0 0.0087928
6830.0 0.0083796
6850.0 0.007786
6870.0 0.0076062
6890.0 0.0074966
6910.0 0.0074119
6930.0 0.0072503
6950.0 0.0073005
6970.0 0.0070106
6990.0 0.006854
7010.0 0.0068232
7030.0 0.0068982
7050.0 0.0067092
7070.0 0.0061384
7090.0 0.0057053
7110.0 0.0056048
7130.0 0.0056682
7150.0 0.0056581
7170.0 0.0055659
7190.0 0.0052905
7210.0 0.0056025
7230.0 0.0058685
7250.0 0.0057887
7270.0 0.0057704
7290.0 0.0058869
7310.0 0.0055954
7330.0 0.0053755
7350.0 0.0050987
7370.0 0.0051805
7390.0 0.0053805
7410.0 0.0048274
7430.0 0.0048563
7450.0 0.0047587
7470.0 0.0050121
7490.0 0.0049672
7510.0 0.0045985
7530.0 0.0047316
7550.0 0.0039542
7570.0 0.0037037
7590.0 0.003911
7610.0 0.0042134
7630.0 0.0040783
7650.0 0.0043116
7670.0 0.0037078
7690.0 0.0033297
7710.0 0.0035924
7730.0 0.0040022
7750.0 0.0036768
7770.0 0.0040985
7790.0 0.0041843
7810.0 0.0039817
7830.0 0.0043494
7850.0 0.0039094
7870.0 0.0043072
7890.0 0.0040253
7910.0 0.0039598
7930.0 0.0036139
7950.0 0.0033761
7970.0 0.0035925
7990.0 0.0036409
8010.0 0.0070984
8030.0 0.006918
8050.0 0.006807
8070.0 0.0066019
8090.0 0.0059895
8110.0 0.0058808
8130.0 0.006539
8150.0 0.0069389
8170.0 0.007153
8190.0 0.0074758
8210.0 0.0071797
8230.0 0.0071979
8250.0 0.0071557
8270.0 0.0071586
8290.0 0.0070678
8310.0 0.0067149
8330.0 0.0065307
8350.0 0.0067407
8370.0 0.0068381
8390.0 0.0066652
8410.0 0.006589
8430.0 0.0063581
8450.0 0.0062057
8470.0 0.0066659
8490.0 0.0067017
8510.0 0.0062789
8530.0 0.0062384
8550.0 0.0061612
8570.0 0.005737
8590.0 0.0058003
8610.0 0.005839
8630.0 0.0060578
8650.0 0.006079
8670.0 0.0061083
8690.0 0.0059819
8710.0 0.0058261
8730.0 0.0056194
8750.0 0.0055044
8770.0 0.0054798
8790.0 0.005706
8810.0 0.0053772
8830.0 0.005305
8850.0 0.0055812
8870.0 0.0052871
8890.0 0.0048935
8910.0 0.0048204
8930.0 0.0048624
8950.0 0.0045073
8970.0 0.0043196
8990.0 0.0042206
9010.0 0.0039721
9030.0 0.003912
9050.0 0.0038931
9070.0 0.0038762
9090.0 0.0038591
9110.0 0.0038417
9130.0 0.0038243
9150.0 0.0038068
9170.0 0.0037892
9190.0 0.0037714
9210.0 0.0037534
9230.0 0.0037353
9250.0 0.0037171
9270.0 0.0036988
9290.0 0.0036803
9310.0 0.0036639
9330.0 0.0036504
9350.0 0.0036369
9370.0 0.0036232
9390.0 0.0036094
9410.0 0.0035954
9430.0 0.0035815
9450.0 0.0035673
9470.0 0.0035548
9490.0 0.0035414
9510.0 0.0035259
9530.0 0.0035106
9550.0 0.0034956
9570.0 0.0034808
9590.0 0.0034659
9610.0 0.0034541
9630.0 0.0034427
9650.0 0.0034311
9670.0 0.0034191
9690.0 0.0034073
9710.0 0.0033955
9730.0 0.0033834
9750.0 0.0033712
9770.0 0.0033594
9790.0 0.0033471
9810.0 0.0033347
9830.0 0.0033225
9850.0 0.0033084
9870.0 0.0032927
9890.0 0.0032824
9910.0 0.0032713
9930.0 0.0032578
9950.0 0.0032455
9970.0 0.0032339
9990.0 0.0032219
10010.0 0.0032097
10030.0 0.0031973
10050.0 0.0031848
10070.0 0.0031723
10090.0 0.0031598
10110.0 0.0031472
10130.0 0.0031347
10150.0 0.0031222
10170.0 0.0031097
10190.0 0.0030972
10210.0 0.0030848
10230.0 0.0030724
10250.0 0.00306
10270.0 0.0030477
10290.0 0.0030354
10310.0 0.0030232
10330.0 0.0030109
10350.0 0.0029988
10370.0 0.0029867
10390.0 0.0029745
10410.0 0.0029603
10430.0 0.0029454
10450.0 0.002936
10470.0 0.0029254
10490.0 0.0029145
10510.0 0.0029035
10530.0 0.0028919
10550.0 0.0028805
10570.0 0.0028693
10590.0 0.0028579
10610.0 0.0028465
10630.0 0.0028354
10650.0 0.0028244
10670.0 0.0028132
10690.0 0.0028022
10710.0 0.0027915
10730.0 0.0027806
10750.0 0.0027697
10770.0 0.0027592
10790.0 0.0027488
10810.0 0.0027382
10830.0 0.0027278
10850.0 0.0027177
10870.0 0.0027073
10890.0 0.0026969
10910.0 0.0026866
10930.0 0.0026761
10950.0 0.0026649
10970.0 0.0026534
10990.0 0.0026415
11010.0 0.0025829
11030.0 0.0025689
11050.0 0.0025536
11070.0 0.0025366
11090.0 0.0025176
11110.0 0.0024983
11130.0 0.0024784
11150.0 0.0024574
11170.0 0.002436
11190.0 0.0024149
11210.0 0.0023931
11230.0 0.0023708
11250.0 0.0023489
11270.0 0.0023274
11290.0 0.0023055
11310.0 0.002284
11330.0 0.0022639
11350.0 0.0022441
11370.0 0.0022246
11390.0 0.0022063
11410.0 0.0021889
11430.0 0.0021715
11450.0 0.002155
11470.0 0.0021393
11490.0 0.0021237
11510.0 0.0021082
11530.0 0.0020932
11550.0 0.0020784
11570.0 0.0020631
11590.0 0.0020478
11610.0 0.0020327
11630.0 0.0020169
11650.0 0.0020006
11670.0 0.0019846
11690.0 0.0019682
11710.0 0.0019512
11730.0 0.0019341
11750.0 0.0019173
11770.0 0.0018998
11790.0 0.001882
11810.0 0.0018647
11830.0 0.0018474
11850.0 0.0018295
11870.0 0.0018123
11890.0 0.0017958
11910.0 0.0017792
11930.0 0.0017631
11950.0 0.001748
11970.0 0.0017333
11990.0 0.001719
12010.0 0.0017057
12030.0 0.0016934
12050.0 0.0016816
12070.0 0.0016706
12090.0 0.0016607
12110.0 0.0016515
12130.0 0.0016429
12150.0 0.001635
12170.0 0.0016279
12190.0 0.0016211
12210.0 0.0016147
12230.0 0.0016087
12250.0 0.0016027
12270.0 0.0015967
12290.0 0.0015906
12310.0 0.0015843
12330.0 0.0015774
12350.0 0.0015701
12370.0 0.0015623
12390.0 0.0015539
12410.0 0.0015444
12430.0 0.0015345
12450.0 0.001524
12470.0 0.0015126
12490.0 0.0015004
12510.0 0.001488
12530.0 0.0014748
12550.0 0.0014607
12570.0 0.0014465
12590.0 0.0014321
12610.0 0.0014168
12630.0 0.0014013
12650.0 0.0013863
12670.0 0.0013708
12690.0 0.0013551
12710.0 0.0013399
12730.0 0.001325
12750.0 0.0013096
12770.0 0.0012948
12790.0 0.0012808
12810.0 0.001267
12830.0 0.0012533
12850.0 0.0012408
12870.0 0.0012288
12890.0 0.0012172
12910.0 0.0012064
12930.0 0.0011966
12950.0 0.0011872
12970.0 0.0011786
12990.0 0.0011712
13010.0 0.0011646
13030.0 0.0011588
13050.0 0.001154
13070.0 0.0011501
13090.0 0.0011468
13110.0 0.0011443
13130.0 0.0011424
13150.0 0.0011409
13170.0 0.0011397
13190.0 0.0011388
13210.0 0.0011379
13230.0 0.0011369
13250.0 0.0011357
13270.0 0.0011342
13290.0 0.0011324
13310.0 0.0011301
13330.0 0.0011273
13350.0 0.0011241
13370.0 0.0011203
13390.0 0.0011158
13410.0 0.001111
13430.0 0.0011056
13450.0 0.0010995
13470.0 0.001093
13490.0 0.0010862
13510.0 0.0010785
13530.0 0.0010705
13550.0 0.0010624
13570.0 0.0010538
13590.0 0.0010447
13610.0 0.0010356
13630.0 0.0010266
13650.0 0.0010171
13670.0 0.0010075
13690.0 0.0009981
13710.0 0.0009885
13730.0 0.00097835
13750.0 0.00096878
13770.0 0.00095928
13790.0 0.00094948
13810.0 0.00093978
13830.0 0.00093061
13850.0 0.00092121
13870.0 0.00091176
13890.0 0.00090283
13910.0 0.00089417
13930.0 0.00088536
13950.0 0.00087686
13970.0 0.00086911
13990.0 0.00086137
14010.0 0.00085381
14030.0 0.00084686
14050.0 0.00084029
14070.0 0.00083367
14090.0 0.00082761
14110.0 0.0008221
14130.0 0.00081676
14150.0 0.00081162
14170.0 0.00080707
14190.0 0.0008028
14210.0 0.00079859
14230.0 0.00079469
14250.0 0.00079113
14270.0 0.00078756
14290.0 0.00078406
14310.0 0.00078093
14330.0 0.00077789
14350.0 0.00077483
14370.0 0.00077197
14390.0 0.00076936
14410.0 0.00076669
14430.0 0.00076412
14450.0 0.00076177
14470.0 0.00075951
14490.0 0.00075715
14510.0 0.000755
14530.0 0.000753
14550.0 0.00075092
14570.0 0.00074883
14590.0 0.00074689
14610.0 0.00074488
14630.0 0.00074272
14650.0 0.00074064
14670.0 0.00073858
14690.0 0.00073636
14710.0 0.00073404
14730.0 0.00073187
14750.0 0.00072956
14770.0 0.00072708
14790.0 0.00072461
14810.0 0.00072215
14830.0 0.00071934
14850.0 0.0007165
14870.0 0.00071373
14890.0 0.00071082
14910.0 0.00070779
14930.0 0.00070494
14950.0 0.00070231
14970.0 0.00069971
14990.0 0.00069744
15010.0 0.00069561
15030.0 0.00069404
15050.0 0.00069268
15070.0 0.00069172
15090.0 0.00069095
15110.0 0.00069023
15130.0 0.00068959
15150.0 0.00068906
15170.0 0.00068847
15190.0 0.00068785
15210.0 0.00068727
15230.0 0.00068669
15250.0 0.00068603
15270.0 0.00068536
15290.0 0.00068476
15310.0 0.00068408
15330.0 0.00068337
15350.0 0.00068269
15370.0 0.000682
15390.0 0.0006812
15410.0 0.00068043
15430.0 0.00067968
15450.0 0.00067887
15470.0 0.000678
15490.0 0.0006772
15510.0 0.00067637
15530.0 0.00067545
15550.0 0.00067455
15570.0 0.00067368
15590.0 0.00067271
15610.0 0.00067169
15630.0 0.00067074
15650.0 0.00066975
15670.0 0.00066868
15690.0 0.00066763
15710.0 0.00066661
15730.0 0.0006655
15750.0 0.00066435
15770.0 0.00066324
15790.0 0.0006621
15810.0 0.00066085
15830.0 0.00065965
15850.0 0.00065847
15870.0 0.0006572
15890.0 0.00065591
15910.0 0.00065466
15930.0 0.00065336
15950.0 0.00065197
15970.0 0.00065062
15990.0 0.00064927
16010.0 0.00064785
16030.0 0.00064638
16050.0 0.00064499
16070.0 0.00064354
16090.0 0.00064202
16110.0 0.00064053
16130.0 0.00063906
16150.0 0.00063745
16170.0 0.00063586
16190.0 0.00063431
16210.0 0.00063271
16230.0 0.00063104
16250.0 0.00062942
16270.0 0.0006278
16290.0 0.00062608
16310.0 0.00062437
16330.0 0.00062269
16350.0 0.00062096
16370.0 0.00061913
16390.0 0.00061739
16410.0 0.00061563
16430.0 0.0006138
16450.0 0.00061197
16470.0 0.00061019
16490.0 0.00060832
16510.0 0.00060641
16530.0 0.00060455
16550.0 0.00060268
16570.0 0.00060072
16590.0 0.00059877
16610.0 0.00059688
16630.0 0.00059492
16650.0 0.00059292
16670.0 0.00059098
16690.0 0.00058902
16710.0 0.00058694
16730.0 0.00058492
16750.0 0.00058293
16770.0 0.00058088
16790.0 0.00057878
16810.0 0.00057676
16830.0 0.00057471
16850.0 0.00057259
16870.0 0.0005705
16890.0 0.00056845
16910.0 0.0005663
16930.0 0.00056413
16950.0 0.00056204
16970.0 0.00055992
16990.0 0.00055774
17010.0 0.00055559
17030.0 0.00055349
17050.0 0.00055129
17070.0 0.00054909
17090.0 0.00054694
17110.0 0.00054477
17130.0 0.00054251
17150.0 0.00054033
17170.0 0.00053817
17190.0 0.00053594
17210.0 0.00053371
17230.0 0.00053155
17250.0 0.00052933
17270.0 0.00052705
17290.0 0.00052484
17310.0 0.00052264
17330.0 0.00052038
17350.0 0.0005181
17370.0 0.00051592
17390.0 0.00051368
17410.0 0.00051141
17430.0 0.00050918
17450.0 0.00050698
17470.0 0.00050467
17490.0 0.0005024
17510.0 0.0005002
17530.0 0.00049795
17550.0 0.00049566
17570.0 0.00049343
17590.0 0.00049122
17610.0 0.00048894
17630.0 0.00048668
17650.0 0.00048447
17670.0 0.00048222
17690.0 0.00047989
17710.0 0.00047768
17730.0 0.00047547
17750.0 0.0004732
17770.0 0.00047095
17790.0 0.00046877
17810.0 0.00046651
17830.0 0.00046424
17850.0 0.00046203
17870.0 0.00045982
17890.0 0.00045755
17910.0 0.00045531
17930.0 0.00045314
17950.0 0.00045091
17970.0 0.00044867
17990.0 0.0004465
18010.0 0.00044432
18030.0 0.00044205
18050.0 0.00043985
18070.0 0.00043769
18090.0 0.00043548
18110.0 0.00043325
18130.0 0.00043111
18150.0 0.00042895
18170.0 0.00042674
18190.0 0.00042458
18210.0 0.00042246
18230.0 0.00042026
18250.0 0.00041806
18270.0 0.00041595
18290.0 0.00041382
18310.0 0.00041164
18330.0 0.00040952
18350.0 0.00040744
18370.0 0.00040528
18390.0 0.00040314
18410.0 0.00040106
18430.0 0.00039896
18450.0 0.00039679
18470.0 0.00039471
18490.0 0.00039266
18510.0 0.00039055
18530.0 0.00038846
18550.0 0.00038643
18570.0 0.00038436
18590.0 0.00038225
18610.0 0.00038021
18630.0 0.00037819
18650.0 0.00037611
18670.0 0.00037404
18690.0 0.00037207
18710.0 0.00037004
18730.0 0.00036799
18750.0 0.000366
18770.0 0.00036403
18790.0 0.00036197
18810.0 0.00035996
18830.0 0.00035801
18850.0 0.00035603
18870.0 0.00035402
18890.0 0.00035208
18910.0 0.00035015
18930.0 0.00034815
18950.0 0.0003462
18970.0 0.00034429
18990.0 0.00034234
19010.0 0.00034034
19030.0 0.00033846
19050.0 0.00033656
19070.0 0.00033462
19090.0 0.00033271
19110.0 0.00033086
19130.0 0.00032894
19150.0 0.00032702
19170.0 0.00032516
19190.0 0.0003233
19210.0 0.00032139
19230.0 0.00031951
19250.0 0.00031771
19270.0 0.00031584
19290.0 0.00031397
19310.0 0.00031217
19330.0 0.00031035
19350.0 0.00030846
19370.0 0.00030664
19390.0 0.00030486
19410.0 0.00030303
19430.0 0.00030119
19450.0 0.00029943
19470.0 0.00029765
19490.0 0.00029582
19510.0 0.00029405
19530.0 0.0002923
19550.0 0.0002905
19570.0 0.00028869
19590.0 0.00028696
19610.0 0.00028521
19630.0 0.00028343
19650.0 0.00028169
19670.0 0.00027999
19690.0 0.00027821
19710.0 0.00027646
19730.0 0.00027476
19750.0 0.00027304
19770.0 0.00027126
19790.0 0.00026956
19810.0 0.00026789
19830.0 0.00026616
19850.0 0.00026445
19870.0 0.0002628
19890.0 0.00026113
19910.0 0.00025944
19930.0 0.00025787
19950.0 0.00025637
19970.0 0.00025493
19990.0 0.00025362
20010.0 0.00025251
20030.0 0.00025151
20050.0 0.00025065
20070.0 0.00024995
20090.0 0.00024935
20110.0 0.00024882
20130.0 0.00024837
20150.0 0.00024797
20170.0 0.00024759
20190.0 0.00024723
20210.0 0.00024689
20230.0 0.00024656
20250.0 0.00024621
20270.0 0.00024587
20290.0 0.00024552
20310.0 0.00024516
20330.0 0.00024477
20350.0 0.00024438
20370.0 0.00024397
20390.0 0.00024352
20410.0 0.00024307
20430.0 0.00024261
20450.0 0.00024211
20470.0 0.00024159
20490.0 0.00024109
20510.0 0.00024057
20530.0 0.00024004
20550.0 0.00023952
20570.0 0.00023902
20590.0 0.00023851
20610.0 0.00023801
20630.0 0.00023753
20650.0 0.00023706
20670.0 0.00023657
20690.0 0.00023611
20710.0 0.00023564
20730.0 0.00023516
20750.0 0.00023466
20770.0 0.00023415
20790.0 0.00023361
20810.0 0.00023303
20830.0 0.00023241
20850.0 0.00023176
20870.0 0.00023104
20890.0 0.00023026
20910.0 0.00022947
20930.0 0.00022862
20950.0 0.00022771
20970.0 0.00022678
20990.0 0.00022582
21010.0 0.0002248
21030.0 0.00022377
21050.0 0.00022275
21070.0 0.00022169
21090.0 0.00022061
21110.0 0.00021956
21130.0 0.00021851
21150.0 0.00021744
21170.0 0.00021637
21190.0 0.00021534
21210.0 0.00021426
21230.0 0.00021317
21250.0 0.00021209
21270.0 0.00021101
21290.0 0.00020987
21310.0 0.00020872
21330.0 0.00020758
21350.0 0.00020638
21370.0 0.00020514
21390.0 0.00020389
21410.0 0.00020262
21430.0 0.00020126
21450.0 0.00019989
21470.0 0.00019851
21490.0 0.00019708
21510.0 0.00019559
21530.0 0.00019412
21550.0 0.00019262
21570.0 0.00019105
21590.0 0.00018948
21610.0 0.00018792
21630.0 0.00018631
21650.0 0.00018464
21670.0 0.00018304
21690.0 0.00018141
21710.0 0.00017974
21730.0 0.00017807
21750.0 0.00017644
21770.0 0.00017472
21790.0 0.000173
21810.0 0.00017131
21830.0 0.00016959
21850.0 0.00016782
21870.0 0.00016608
21890.0 0.00016435
21910.0 0.00016257
21930.0 0.00016078
21950.0 0.00015903
21970.0 0.00015725
21990.0 0.00015542
22010.0 0.00015365
22030.0 0.00015191
22050.0 0.00015014
22070.0 0.00014836
22090.0 0.00014659
22110.0 0.00014482
22130.0 0.00014305
22150.0 0.00014134
22170.0 0.00013967
22190.0 0.000138
22210.0 0.00013636
22230.0 0.00013479
22250.0 0.00013323
22270.0 0.00013168
22290.0 0.00013017
22310.0 0.00012867
22330.0 0.00012717
22350.0 0.00012568
22370.0 0.00012421
22390.0 0.00012273
22410.0 0.00012123
22430.0 0.00011974
22450.0 0.00011825
22470.0 0.00011672
22490.0 0.00011519
22510.0 0.00011365
22530.0 0.00011208
22550.0 0.00011049
22570.0 0.00010889
22590.0 0.00010728
22610.0 0.00010563
22630.0 0.00010398
22650.0 0.00010233
22670.0 0.00010065
22690.0 9.8953e-05
22710.0 9.7259e-05
22730.0 9.5556e-05
22750.0 9.383e-05
22770.0 9.2107e-05
22790.0 9.0382e-05
22810.0 8.8643e-05
22830.0 8.6895e-05
22850.0 8.5144e-05
22870.0 8.3379e-05
22890.0 8.1597e-05
22910.0 7.9803e-05
22930.0 7.7991e-05
22950.0 7.6154e-05
22970.0 7.4291e-05
22990.0 7.2402e-05
23010.0 7.0479e-05
23030.0 6.8519e-05
23050.0 6.6521e-05
23070.0 6.4484e-05
23090.0 6.2402e-05
23110.0 6.2237e-05
23130.0 6.2215e-05
23150.0 6.2193e-05
23170.0 6.2173e-05
23190.0 6.2154e-05
23210.0 6.2136e-05
23230.0 6.212e-05
23250.0 6.2105e-05
23270.0 6.2091e-05
23290.0 6.2079e-05
23310.0 6.2069e-05
23330.0 6.206e-05
23350.0 6.2051e-05
23370.0 6.2043e-05
23390.0 6.2035e-05
23410.0 6.2026e-05
23430.0 6.2017e-05
23450.0 6.2007e-05
