#lamb flux
1010.0 2.645e-09
1030.0 3.5999e-09
1050.0 4.9016e-09
1070.0 6.6304e-09
1090.0 8.9111e-09
1110.0 1.1716e-08
1130.0 1.5056e-08
1150.0 1.9042e-08
1170.0 2.3675e-08
1190.0 2.872e-08
1210.0 3.4251e-08
1230.0 4.0247e-08
1250.0 4.6413e-08
1270.0 5.2531e-08
1290.0 5.8702e-08
1310.0 6.4531e-08
1330.0 6.964e-08
1350.0 7.403e-08
1370.0 7.7614e-08
1390.0 8.0031e-08
1410.0 8.1192e-08
1430.0 8.1342e-08
1450.0 8.0326e-08
1470.0 7.8111e-08
1490.0 7.4964e-08
1510.0 7.1127e-08
1530.0 6.6455e-08
1550.0 6.1263e-08
1570.0 5.5828e-08
1590.0 5.0202e-08
1610.0 4.4466e-08
1630.0 3.8857e-08
1650.0 3.344e-08
1670.0 2.8229e-08
1690.0 2.3314e-08
1710.0 1.8757e-08
1730.0 1.4549e-08
1750.0 1.0685e-08
1770.0 7.1976e-09
1790.0 4.0677e-09
1810.0 1.2784e-09
1830.0 1e-99
1850.0 1e-99
1870.0 1e-99
1890.0 1e-99
1910.0 1e-99
1930.0 1e-99
1950.0 1e-99
1970.0 1e-99
1990.0 1e-99
2010.0 1e-99
2030.0 1e-99
2050.0 1e-99
2070.0 1e-99
2090.0 1e-99
2110.0 1e-99
2130.0 1e-99
2150.0 1e-99
2170.0 1e-99
2190.0 1e-99
2210.0 1e-99
2230.0 1e-99
2250.0 5.157e-10
2270.0 2.2579e-09
2290.0 4.0652e-09
2310.0 5.9202e-09
2330.0 7.8136e-09
2350.0 9.7312e-09
2370.0 1.165e-08
2390.0 1.3561e-08
2410.0 1.5453e-08
2430.0 1.7292e-08
2450.0 1.9055e-08
2470.0 2.0724e-08
2490.0 2.2267e-08
2510.0 2.3658e-08
2530.0 2.491e-08
2550.0 2.6066e-08
2570.0 2.7223e-08
2590.0 2.8522e-08
2610.0 3.0257e-08
2630.0 3.2736e-08
2650.0 3.6141e-08
2670.0 4.0858e-08
2690.0 4.7298e-08
2710.0 5.5108e-08
2730.0 6.3931e-08
2750.0 7.4037e-08
2770.0 8.4257e-08
2790.0 9.3392e-08
2810.0 1.0134e-07
2830.0 1.08e-07
2850.0 1.12e-07
2870.0 1.1409e-07
2890.0 1.1486e-07
2910.0 1.1429e-07
2930.0 1.1241e-07
2950.0 1.0997e-07
2970.0 1.0703e-07
2990.0 1.0334e-07
3010.0 9.919e-08
3030.0 9.4944e-08
3050.0 9.0484e-08
3070.0 8.5579e-08
3090.0 8.0769e-08
3110.0 7.6066e-08
3130.0 7.1372e-08
3150.0 5.9136e-08
3170.0 4.8542e-08
3190.0 3.6825e-08
3210.0 2.5063e-08
3230.0 1.6302e-08
3250.0 2.3886e-08
3270.0 5.6871e-08
3290.0 6.6728e-08
3310.0 1.631e-09
3330.0 1e-99
3350.0 1e-99
3370.0 1e-99
3390.0 1.4916e-09
3410.0 1.5356e-09
3430.0 1e-99
3450.0 1e-99
3470.0 1e-99
3490.0 1e-99
3510.0 1e-99
3530.0 1e-99
3550.0 1e-99
3570.0 1e-99
3590.0 6.6035e-08
3610.0 1.0648e-07
3630.0 2.3168e-07
3650.0 2.605e-07
3670.0 1.9359e-07
3690.0 1.0376e-07
3710.0 4.609e-08
3730.0 4.7462e-08
3750.0 5.4934e-08
3770.0 5.6653e-08
3790.0 5.6914e-08
3810.0 1.0029e-07
3830.0 8.6457e-08
3850.0 4.2871e-08
3870.0 1.707e-08
3890.0 5.6086e-08
3910.0 8.6115e-08
3930.0 8.7633e-08
3950.0 1.0299e-07
3970.0 1.201e-07
3990.0 1.0696e-07
4010.0 1.2919e-07
4030.0 1.2196e-07
4050.0 1.0867e-07
4070.0 9.7722e-08
4090.0 1.0223e-07
4110.0 1.1593e-07
4130.0 1.1651e-07
4150.0 1.0705e-07
4170.0 1.0076e-07
4190.0 1.1098e-07
4210.0 9.5435e-08
4230.0 8.3903e-08
4250.0 6.5121e-08
4270.0 4.1591e-08
4290.0 4.5385e-08
4310.0 4.2982e-08
4330.0 4.1458e-08
4350.0 7.3062e-08
4370.0 7.3221e-08
4390.0 9.5281e-08
4410.0 1.0902e-07
4430.0 1.259e-07
4450.0 1.0621e-07
4470.0 7.9393e-08
4490.0 7.4207e-08
4510.0 6.4849e-08
4530.0 5.8159e-08
4550.0 5.0321e-08
4570.0 4.8053e-08
4590.0 4.914e-08
4610.0 3.2409e-08
4630.0 2.2164e-08
4650.0 9.6293e-09
4670.0 9.8621e-09
4690.0 3.429e-10
4710.0 1e-99
4730.0 1e-99
4750.0 1e-99
4770.0 1e-99
4790.0 1e-99
4810.0 1e-99
4830.0 1e-99
4850.0 1e-99
4870.0 1e-99
4890.0 1e-99
4910.0 1e-99
4930.0 1e-99
4950.0 1e-99
4970.0 1e-99
4990.0 1e-99
5010.0 1e-99
5030.0 1e-99
5050.0 1e-99
5070.0 1e-99
5090.0 1e-99
5110.0 1e-99
5130.0 1e-99
5150.0 1e-99
5170.0 1e-99
5190.0 1e-99
5210.0 1e-99
5230.0 1e-99
5250.0 1e-99
5270.0 1e-99
5290.0 1e-99
5310.0 1e-99
5330.0 1e-99
5350.0 1e-99
5370.0 1e-99
5390.0 1e-99
5410.0 1e-99
5430.0 1e-99
5450.0 1e-99
5470.0 1e-99
5490.0 2.4028e-09
5510.0 1.142e-09
5530.0 1.9387e-09
5550.0 1e-99
5570.0 6.1407e-09
5590.0 1.7993e-08
5610.0 1.8944e-08
5630.0 1.4287e-08
5650.0 1.5903e-08
5670.0 1.5981e-08
5690.0 2.0542e-08
5710.0 1.223e-08
5730.0 1.6644e-08
5750.0 1.7797e-08
5770.0 1.5357e-08
5790.0 2.7651e-08
5810.0 3.6744e-08
5830.0 3.0412e-08
5850.0 1.4361e-08
5870.0 6.3399e-09
5890.0 5.5364e-09
5910.0 1.4717e-08
5930.0 1.1317e-08
5950.0 1.5604e-08
5970.0 1.6432e-08
5990.0 2.1543e-08
6010.0 1.9247e-08
6030.0 2.1911e-08
6050.0 2.0828e-08
6070.0 1.2853e-08
6090.0 1.8078e-08
6110.0 2.128e-08
6130.0 1.7448e-08
6150.0 1.8784e-08
6170.0 2.1402e-08
6190.0 8.3887e-09
6210.0 1.0462e-08
6230.0 1.4696e-08
6250.0 1.4335e-08
6270.0 1.4168e-08
6290.0 1.9452e-08
6310.0 2.6231e-08
6330.0 2.7502e-08
6350.0 2.6047e-08
6370.0 2.8519e-08
6390.0 2.1049e-08
6410.0 2.397e-08
6430.0 2.0436e-08
6450.0 2.2567e-08
6470.0 2.4853e-08
6490.0 2.6318e-08
6510.0 1.9568e-08
6530.0 2.1296e-08
6550.0 2.1035e-08
6570.0 1.7137e-08
6590.0 2.13e-08
6610.0 2.1797e-08
6630.0 2.2647e-08
6650.0 1.9066e-08
6670.0 1.6863e-08
6690.0 1.5573e-08
6710.0 1.3823e-08
6730.0 1.236e-08
6750.0 1.2441e-08
6770.0 7.4549e-09
6790.0 1e-99
6810.0 1e-99
6830.0 8.207e-09
6850.0 4.3753e-09
6870.0 4.5042e-09
6890.0 3.907e-09
6910.0 3.5876e-09
6930.0 1.9627e-09
6950.0 4.8904e-09
6970.0 4.5544e-09
6990.0 4.5501e-09
7010.0 4.0249e-09
7030.0 6.654e-09
7050.0 6.8193e-09
7070.0 1e-99
7090.0 1e-99
7110.0 1e-99
7130.0 1e-99
7150.0 1e-99
7170.0 1e-99
7190.0 1e-99
7210.0 1e-99
7230.0 2.5741e-09
7250.0 1.862e-09
7270.0 2.6573e-09
7290.0 5.2433e-09
7310.0 2.7543e-10
7330.0 1e-99
7350.0 1e-99
7370.0 2.8481e-09
7390.0 8.5105e-09
7410.0 7.445e-11
7430.0 1.3278e-09
7450.0 8.2583e-10
7470.0 5.9239e-09
7490.0 7.2981e-09
7510.0 3.2187e-09
7530.0 6.2805e-09
7550.0 1e-99
7570.0 1e-99
7590.0 1e-99
7610.0 5.3222e-09
7630.0 3.2391e-10
7650.0 4.4164e-09
7670.0 1e-99
7690.0 1e-99
7710.0 1e-99
7730.0 1e-99
7750.0 1e-99
7770.0 1e-99
7790.0 4.144e-09
7810.0 1e-99
7830.0 2.3755e-09
7850.0 1e-99
7870.0 4.5182e-10
7890.0 1e-99
7910.0 1e-99
7930.0 1e-99
7950.0 1e-99
7970.0 1e-99
7990.0 1e-99
8010.0 1e-99
8030.0 1e-99
8050.0 1e-99
8070.0 1e-99
8090.0 1e-99
8110.0 1e-99
8130.0 1e-99
8150.0 1e-99
8170.0 1e-99
8190.0 1e-99
8210.0 1e-99
8230.0 1e-99
8250.0 1e-99
8270.0 1e-99
8290.0 1e-99
8310.0 1e-99
8330.0 1e-99
8350.0 1e-99
8370.0 1e-99
8390.0 1e-99
8410.0 1e-99
8430.0 1e-99
8450.0 1e-99
8470.0 1e-99
8490.0 1e-99
8510.0 1e-99
8530.0 1e-99
8550.0 1e-99
8570.0 1e-99
8590.0 1e-99
8610.0 1e-99
8630.0 1e-99
8650.0 1e-99
8670.0 1e-99
8690.0 1e-99
8710.0 1e-99
8730.0 1e-99
8750.0 1e-99
8770.0 1e-99
8790.0 1e-99
8810.0 1e-99
8830.0 1e-99
8850.0 1e-99
8870.0 1e-99
8890.0 1e-99
8910.0 1e-99
8930.0 1e-99
8950.0 1e-99
8970.0 1e-99
8990.0 1e-99
9010.0 1e-99
9030.0 1e-99
9050.0 1e-99
9070.0 1e-99
9090.0 1e-99
9110.0 1e-99
9130.0 1e-99
9150.0 1e-99
9170.0 1e-99
9190.0 1e-99
9210.0 1e-99
9230.0 1e-99
9250.0 1e-99
9270.0 1e-99
9290.0 1e-99
9310.0 1e-99
9330.0 1e-99
9350.0 1e-99
9370.0 1e-99
9390.0 1e-99
9410.0 1e-99
9430.0 1e-99
9450.0 1e-99
9470.0 1e-99
9490.0 1e-99
9510.0 1e-99
9530.0 1e-99
9550.0 1e-99
9570.0 1e-99
9590.0 1e-99
9610.0 1e-99
9630.0 1e-99
9650.0 1e-99
9670.0 1e-99
9690.0 1e-99
9710.0 1e-99
9730.0 1e-99
9750.0 1e-99
9770.0 1e-99
9790.0 1e-99
9810.0 1e-99
9830.0 1e-99
9850.0 1e-99
9870.0 1e-99
9890.0 1e-99
9910.0 1e-99
9930.0 1e-99
9950.0 1e-99
9970.0 1e-99
9990.0 1e-99
10010.0 1e-99
10030.0 1e-99
10050.0 1e-99
10070.0 1e-99
10090.0 1e-99
10110.0 1e-99
10130.0 1e-99
10150.0 1e-99
10170.0 1e-99
10190.0 1e-99
10210.0 1e-99
10230.0 1e-99
10250.0 1e-99
10270.0 1e-99
10290.0 1e-99
10310.0 1e-99
10330.0 1e-99
10350.0 1e-99
10370.0 1e-99
10390.0 1e-99
10410.0 1e-99
10430.0 1e-99
10450.0 1e-99
10470.0 1e-99
10490.0 1e-99
10510.0 1e-99
10530.0 1e-99
10550.0 1e-99
10570.0 1e-99
10590.0 1e-99
10610.0 1e-99
10630.0 1e-99
10650.0 1e-99
10670.0 1e-99
10690.0 1e-99
10710.0 1e-99
10730.0 1e-99
10750.0 1e-99
10770.0 1e-99
10790.0 1e-99
10810.0 1e-99
10830.0 1e-99
10850.0 1e-99
10870.0 1e-99
10890.0 1e-99
10910.0 1e-99
10930.0 1e-99
10950.0 1e-99
10970.0 1e-99
10990.0 1e-99
11010.0 1.0767e-08
11030.0 1.0702e-08
11050.0 1.0611e-08
11070.0 1.0499e-08
11090.0 1.0369e-08
11110.0 1.0228e-08
11130.0 1.008e-08
11150.0 9.9255e-09
11170.0 9.7679e-09
11190.0 9.6109e-09
11210.0 9.4517e-09
11230.0 9.2904e-09
11250.0 9.131e-09
11270.0 8.9732e-09
11290.0 8.8142e-09
11310.0 8.6571e-09
11330.0 8.5054e-09
11350.0 8.3552e-09
11370.0 8.2074e-09
11390.0 8.0646e-09
11410.0 7.926e-09
11430.0 7.7889e-09
11450.0 7.6563e-09
11470.0 7.5278e-09
11490.0 7.4017e-09
11510.0 7.2774e-09
11530.0 7.1565e-09
11550.0 7.0375e-09
11570.0 6.9192e-09
11590.0 6.8023e-09
11610.0 6.6871e-09
11630.0 6.5716e-09
11650.0 6.4559e-09
11670.0 6.3414e-09
11690.0 6.2268e-09
11710.0 6.1111e-09
11730.0 5.9952e-09
11750.0 5.8799e-09
11770.0 5.7631e-09
11790.0 5.6453e-09
11810.0 5.5283e-09
11830.0 5.4114e-09
11850.0 5.2929e-09
11870.0 5.1763e-09
11890.0 5.0619e-09
11910.0 4.9483e-09
11930.0 4.8366e-09
11950.0 4.7289e-09
11970.0 4.6242e-09
11990.0 4.5223e-09
12010.0 4.4254e-09
12030.0 4.3334e-09
12050.0 4.2457e-09
12070.0 4.1632e-09
12090.0 4.0865e-09
12110.0 4.0148e-09
12130.0 3.9486e-09
12150.0 3.8874e-09
12170.0 3.8307e-09
12190.0 3.7794e-09
12210.0 3.7325e-09
12230.0 3.6886e-09
12250.0 3.6482e-09
12270.0 3.6115e-09
12290.0 3.5763e-09
12310.0 3.5419e-09
12330.0 3.51e-09
12350.0 3.4787e-09
12370.0 3.4467e-09
12390.0 3.4149e-09
12410.0 3.3836e-09
12430.0 3.3498e-09
12450.0 3.3144e-09
12470.0 3.2778e-09
12490.0 3.239e-09
12510.0 3.1973e-09
12530.0 3.1534e-09
12550.0 3.1068e-09
12570.0 3.0572e-09
12590.0 3.0048e-09
12610.0 2.9491e-09
12630.0 2.8903e-09
12650.0 2.8297e-09
12670.0 2.7661e-09
12690.0 2.6994e-09
12710.0 2.6315e-09
12730.0 2.5622e-09
12750.0 2.4892e-09
12770.0 2.4157e-09
12790.0 2.3423e-09
12810.0 2.2674e-09
12830.0 2.1909e-09
12850.0 2.1165e-09
12870.0 2.0428e-09
12890.0 1.9683e-09
12910.0 1.8958e-09
12930.0 1.8265e-09
12950.0 1.7577e-09
12970.0 1.691e-09
12990.0 1.6297e-09
13010.0 1.572e-09
13030.0 1.5175e-09
13050.0 1.4683e-09
13070.0 1.4248e-09
13090.0 1.3856e-09
13110.0 1.3517e-09
13130.0 1.3237e-09
13150.0 1.301e-09
13170.0 1.2835e-09
13190.0 1.2717e-09
13210.0 1.2647e-09
13230.0 1.2629e-09
13250.0 1.266e-09
13270.0 1.273e-09
13290.0 1.2841e-09
13310.0 1.2999e-09
13330.0 1.3182e-09
13350.0 1.3384e-09
13370.0 1.3614e-09
13390.0 1.3861e-09
13410.0 1.4096e-09
13430.0 1.4334e-09
13450.0 1.4572e-09
13470.0 1.4793e-09
13490.0 1.4994e-09
13510.0 1.5192e-09
13530.0 1.5371e-09
13550.0 1.5528e-09
13570.0 1.5675e-09
13590.0 1.5815e-09
13610.0 1.594e-09
13630.0 1.6055e-09
13650.0 1.6165e-09
13670.0 1.6264e-09
13690.0 1.6351e-09
13710.0 1.6425e-09
13730.0 1.6482e-09
13750.0 1.6519e-09
13770.0 1.6535e-09
13790.0 1.6525e-09
13810.0 1.6488e-09
13830.0 1.643e-09
13850.0 1.6343e-09
13870.0 1.6228e-09
13890.0 1.6097e-09
13910.0 1.5953e-09
13930.0 1.5784e-09
13950.0 1.5608e-09
13970.0 1.5443e-09
13990.0 1.527e-09
14010.0 1.5097e-09
14030.0 1.4943e-09
14050.0 1.4802e-09
14070.0 1.4659e-09
14090.0 1.4539e-09
14110.0 1.4441e-09
14130.0 1.4352e-09
14150.0 1.4273e-09
14170.0 1.4217e-09
14190.0 1.4173e-09
14210.0 1.4133e-09
14230.0 1.4106e-09
14250.0 1.4092e-09
14270.0 1.408e-09
14290.0 1.4072e-09
14310.0 1.4081e-09
14330.0 1.4097e-09
14350.0 1.4116e-09
14370.0 1.4149e-09
14390.0 1.4196e-09
14410.0 1.4249e-09
14430.0 1.4312e-09
14450.0 1.439e-09
14470.0 1.4479e-09
14490.0 1.4573e-09
14510.0 1.468e-09
14530.0 1.4797e-09
14550.0 1.4917e-09
14570.0 1.5041e-09
14590.0 1.5172e-09
14610.0 1.5303e-09
14630.0 1.5433e-09
14650.0 1.5565e-09
14670.0 1.5697e-09
14690.0 1.5826e-09
14710.0 1.5952e-09
14730.0 1.608e-09
14750.0 1.6203e-09
14770.0 1.632e-09
14790.0 1.6435e-09
14810.0 1.6547e-09
14830.0 1.6647e-09
14850.0 1.6742e-09
14870.0 1.6834e-09
14890.0 1.6919e-09
14910.0 1.6996e-09
14930.0 1.7075e-09
14950.0 1.7157e-09
14970.0 1.7237e-09
14990.0 1.7325e-09
15010.0 1.7424e-09
15030.0 1.753e-09
15050.0 1.7642e-09
15070.0 1.7764e-09
15090.0 1.7891e-09
15110.0 1.8018e-09
15130.0 1.8146e-09
15150.0 1.8276e-09
15170.0 1.8403e-09
15190.0 1.8527e-09
15210.0 1.865e-09
15230.0 1.8771e-09
15250.0 1.8888e-09
15270.0 1.9002e-09
15290.0 1.9116e-09
15310.0 1.9226e-09
15330.0 1.9332e-09
15350.0 1.9437e-09
15370.0 1.9539e-09
15390.0 1.9636e-09
15410.0 1.9731e-09
15430.0 1.9824e-09
15450.0 1.9913e-09
15470.0 1.9997e-09
15490.0 2.0081e-09
15510.0 2.0161e-09
15530.0 2.0235e-09
15550.0 2.0308e-09
15570.0 2.0379e-09
15590.0 2.0443e-09
15610.0 2.0504e-09
15630.0 2.0564e-09
15650.0 2.062e-09
15670.0 2.067e-09
15690.0 2.0718e-09
15710.0 2.0765e-09
15730.0 2.0805e-09
15750.0 2.0841e-09
15770.0 2.0876e-09
15790.0 2.0907e-09
15810.0 2.0932e-09
15830.0 2.0955e-09
15850.0 2.0976e-09
15870.0 2.0991e-09
15890.0 2.1003e-09
15910.0 2.1013e-09
15930.0 2.1018e-09
15950.0 2.1018e-09
15970.0 2.1017e-09
15990.0 2.1012e-09
16010.0 2.1003e-09
16030.0 2.0989e-09
16050.0 2.0975e-09
16070.0 2.0956e-09
16090.0 2.0932e-09
16110.0 2.0907e-09
16130.0 2.0879e-09
16150.0 2.0845e-09
16170.0 2.0808e-09
16190.0 2.077e-09
16210.0 2.0728e-09
16230.0 2.0682e-09
16250.0 2.0634e-09
16270.0 2.0584e-09
16290.0 2.0528e-09
16310.0 2.047e-09
16330.0 2.0411e-09
16350.0 2.0348e-09
16370.0 2.0279e-09
16390.0 2.0212e-09
16410.0 2.0141e-09
16430.0 2.0066e-09
16450.0 1.9989e-09
16470.0 1.9911e-09
16490.0 1.9829e-09
16510.0 1.9743e-09
16530.0 1.9657e-09
16550.0 1.9568e-09
16570.0 1.9475e-09
16590.0 1.938e-09
16610.0 1.9286e-09
16630.0 1.9188e-09
16650.0 1.9086e-09
16670.0 1.8985e-09
16690.0 1.8882e-09
16710.0 1.8773e-09
16730.0 1.8665e-09
16750.0 1.8556e-09
16770.0 1.8444e-09
16790.0 1.8329e-09
16810.0 1.8215e-09
16830.0 1.8099e-09
16850.0 1.798e-09
16870.0 1.786e-09
16890.0 1.774e-09
16910.0 1.7616e-09
16930.0 1.7491e-09
16950.0 1.7367e-09
16970.0 1.7241e-09
16990.0 1.7112e-09
17010.0 1.6983e-09
17030.0 1.6855e-09
17050.0 1.6724e-09
17070.0 1.6591e-09
17090.0 1.6459e-09
17110.0 1.6326e-09
17130.0 1.6189e-09
17150.0 1.6054e-09
17170.0 1.592e-09
17190.0 1.5783e-09
17210.0 1.5645e-09
17230.0 1.5509e-09
17250.0 1.537e-09
17270.0 1.523e-09
17290.0 1.5091e-09
17310.0 1.4952e-09
17330.0 1.4811e-09
17350.0 1.467e-09
17370.0 1.4531e-09
17390.0 1.439e-09
17410.0 1.4248e-09
17430.0 1.4108e-09
17450.0 1.3968e-09
17470.0 1.3824e-09
17490.0 1.3682e-09
17510.0 1.3542e-09
17530.0 1.3401e-09
17550.0 1.3258e-09
17570.0 1.3118e-09
17590.0 1.2978e-09
17610.0 1.2836e-09
17630.0 1.2695e-09
17650.0 1.2556e-09
17670.0 1.2416e-09
17690.0 1.2274e-09
17710.0 1.2136e-09
17730.0 1.1997e-09
17750.0 1.1858e-09
17770.0 1.1719e-09
17790.0 1.1583e-09
17810.0 1.1445e-09
17830.0 1.1307e-09
17850.0 1.1172e-09
17870.0 1.1037e-09
17890.0 1.09e-09
17910.0 1.0765e-09
17930.0 1.0633e-09
17950.0 1.0499e-09
17970.0 1.0366e-09
17990.0 1.0235e-09
18010.0 1.0105e-09
18030.0 9.9728e-10
18050.0 9.8432e-10
18070.0 9.7152e-10
18090.0 9.5868e-10
18110.0 9.4586e-10
18130.0 9.3332e-10
18150.0 9.2081e-10
18170.0 9.0826e-10
18190.0 8.9589e-10
18210.0 8.837e-10
18230.0 8.7142e-10
18250.0 8.5921e-10
18270.0 8.4728e-10
18290.0 8.3539e-10
18310.0 8.2349e-10
18330.0 8.1178e-10
18350.0 8.0026e-10
18370.0 7.8866e-10
18390.0 7.7718e-10
18410.0 7.6592e-10
18430.0 7.5471e-10
18450.0 7.4346e-10
18470.0 7.3247e-10
18490.0 7.2164e-10
18510.0 7.1079e-10
18530.0 7.0005e-10
18550.0 6.8955e-10
18570.0 6.7905e-10
18590.0 6.6857e-10
18610.0 6.5833e-10
18630.0 6.4821e-10
18650.0 6.381e-10
18670.0 6.281e-10
18690.0 6.1836e-10
18710.0 6.0864e-10
18730.0 5.9896e-10
18750.0 5.8949e-10
18770.0 5.8017e-10
18790.0 5.7077e-10
18810.0 5.6157e-10
18830.0 5.5257e-10
18850.0 5.4361e-10
18870.0 5.347e-10
18890.0 5.2602e-10
18910.0 5.1745e-10
18930.0 5.0888e-10
18950.0 5.0046e-10
18970.0 4.9223e-10
18990.0 4.8403e-10
19010.0 4.7584e-10
19030.0 4.6794e-10
19050.0 4.6012e-10
19070.0 4.5232e-10
19090.0 4.4467e-10
19110.0 4.3722e-10
19130.0 4.2974e-10
19150.0 4.2236e-10
19170.0 4.1518e-10
19190.0 4.0809e-10
19210.0 4.0101e-10
19230.0 3.9408e-10
19250.0 3.8734e-10
19270.0 3.8062e-10
19290.0 3.7398e-10
19310.0 3.6752e-10
19330.0 3.6114e-10
19350.0 3.5474e-10
19370.0 3.4854e-10
19390.0 3.4246e-10
19410.0 3.3642e-10
19430.0 3.3044e-10
19450.0 3.2466e-10
19470.0 3.1894e-10
19490.0 3.1324e-10
19510.0 3.0769e-10
19530.0 3.0226e-10
19550.0 2.9683e-10
19570.0 2.9147e-10
19590.0 2.863e-10
19610.0 2.8118e-10
19630.0 2.7609e-10
19650.0 2.7113e-10
19670.0 2.6629e-10
19690.0 2.6144e-10
19710.0 2.5668e-10
19730.0 2.5205e-10
19750.0 2.4747e-10
19770.0 2.4288e-10
19790.0 2.3846e-10
19810.0 2.3412e-10
19830.0 2.2979e-10
19850.0 2.2553e-10
19870.0 2.214e-10
19890.0 2.1726e-10
19910.0 2.1314e-10
19930.0 2.0913e-10
19950.0 2.0519e-10
19970.0 2.0124e-10
19990.0 1.9737e-10
20010.0 1.9368e-10
20030.0 1.9008e-10
20050.0 1.8665e-10
20070.0 1.8352e-10
20090.0 1.8069e-10
20110.0 1.7818e-10
20130.0 1.7608e-10
20150.0 1.7436e-10
20170.0 1.7301e-10
20190.0 1.7205e-10
20210.0 1.7137e-10
20230.0 1.7098e-10
20250.0 1.709e-10
20270.0 1.7099e-10
20290.0 1.7118e-10
20310.0 1.7154e-10
20330.0 1.7204e-10
20350.0 1.7242e-10
20370.0 1.7281e-10
20390.0 1.7323e-10
20410.0 1.7355e-10
20430.0 1.7373e-10
20450.0 1.7393e-10
20470.0 1.7404e-10
20490.0 1.74e-10
20510.0 1.7389e-10
20530.0 1.7378e-10
20550.0 1.7356e-10
20570.0 1.7326e-10
20590.0 1.7298e-10
20610.0 1.7268e-10
20630.0 1.7231e-10
20650.0 1.7195e-10
20670.0 1.7166e-10
20690.0 1.7129e-10
20710.0 1.7088e-10
20730.0 1.7049e-10
20750.0 1.7009e-10
20770.0 1.6956e-10
20790.0 1.69e-10
20810.0 1.6841e-10
20830.0 1.6768e-10
20850.0 1.6681e-10
20870.0 1.6588e-10
20890.0 1.6478e-10
20910.0 1.6346e-10
20930.0 1.6199e-10
20950.0 1.6036e-10
20970.0 1.585e-10
20990.0 1.5643e-10
21010.0 1.542e-10
21030.0 1.5175e-10
21050.0 1.491e-10
21070.0 1.4626e-10
21090.0 1.4325e-10
21110.0 1.4004e-10
21130.0 1.3665e-10
21150.0 1.3311e-10
21170.0 1.2939e-10
21190.0 1.255e-10
21210.0 1.2145e-10
21230.0 1.1722e-10
21250.0 1.1281e-10
21270.0 1.0822e-10
21290.0 1.0342e-10
21310.0 9.8417e-11
21330.0 9.3217e-11
21350.0 8.7781e-11
21370.0 8.2212e-11
21390.0 8.5819e-11
21410.0 8.9532e-11
21430.0 9.3483e-11
21450.0 9.7489e-11
21470.0 1.0155e-10
21490.0 1.0579e-10
21510.0 1.1017e-10
21530.0 1.1456e-10
21550.0 1.1908e-10
21570.0 1.2378e-10
21590.0 1.2853e-10
21610.0 1.3332e-10
21630.0 1.3826e-10
21650.0 1.4337e-10
21670.0 1.484e-10
21690.0 1.5355e-10
21710.0 1.5886e-10
21730.0 1.642e-10
21750.0 1.6955e-10
21770.0 1.7512e-10
21790.0 1.8077e-10
21810.0 1.8641e-10
21830.0 1.9216e-10
21850.0 1.9808e-10
21870.0 2.0401e-10
21890.0 2.0994e-10
21910.0 2.1606e-10
21930.0 2.2224e-10
21950.0 2.284e-10
21970.0 2.3466e-10
21990.0 2.4108e-10
22010.0 2.4743e-10
22030.0 2.5378e-10
22050.0 2.6024e-10
22070.0 2.6411e-10
22090.0 2.6325e-10
22110.0 2.6238e-10
22130.0 2.615e-10
22150.0 2.6061e-10
22170.0 2.5971e-10
22190.0 2.588e-10
22210.0 2.5788e-10
22230.0 2.5696e-10
22250.0 2.5603e-10
22270.0 2.551e-10
22290.0 2.5416e-10
22310.0 2.5321e-10
22330.0 2.5226e-10
22350.0 2.513e-10
22370.0 2.5034e-10
22390.0 2.4937e-10
22410.0 2.4839e-10
22430.0 2.4741e-10
22450.0 2.4641e-10
22470.0 2.4542e-10
22490.0 2.4441e-10
22510.0 2.4338e-10
22530.0 2.4235e-10
22550.0 2.4131e-10
22570.0 2.4024e-10
22590.0 2.3916e-10
22610.0 2.3807e-10
22630.0 2.3695e-10
22650.0 2.358e-10
22670.0 2.3464e-10
22690.0 2.3346e-10
22710.0 2.3224e-10
22730.0 2.3099e-10
22750.0 2.2973e-10
22770.0 2.2842e-10
22790.0 2.2708e-10
22810.0 2.2571e-10
22830.0 2.2431e-10
22850.0 2.2287e-10
22870.0 2.2139e-10
22890.0 2.1987e-10
22910.0 2.1832e-10
22930.0 2.1672e-10
22950.0 2.1508e-10
22970.0 2.134e-10
22990.0 2.1167e-10
23010.0 2.099e-10
23030.0 2.0808e-10
23050.0 2.062e-10
23070.0 2.0427e-10
23090.0 2.0229e-10
23110.0 2.0229e-10
23130.0 2.0243e-10
23150.0 2.0255e-10
23170.0 2.0265e-10
23190.0 2.0272e-10
23210.0 2.0277e-10
23230.0 2.0279e-10
23250.0 2.0277e-10
23270.0 2.0273e-10
23290.0 2.0266e-10
23310.0 2.0256e-10
23330.0 2.0244e-10
23350.0 2.023e-10
23370.0 2.0215e-10
23390.0 2.0198e-10
23410.0 2.0183e-10
23430.0 2.0167e-10
23450.0 2.0152e-10
23470.0 2.0139e-10
23490.0 2.0128e-10
23510.0 2.0118e-10
23530.0 2.011e-10
23550.0 2.0106e-10
23570.0 2.0104e-10
23590.0 2.0103e-10
23610.0 2.0104e-10
23630.0 2.0107e-10
23650.0 2.0111e-10
23670.0 2.0115e-10
23690.0 2.012e-10
23710.0 2.0125e-10
23730.0 2.0129e-10
23750.0 2.0134e-10
23770.0 2.0138e-10
23790.0 2.0141e-10
23810.0 2.0143e-10
23830.0 2.0145e-10
23850.0 2.0145e-10
23870.0 2.0144e-10
23890.0 2.0143e-10
23910.0 2.0143e-10
23930.0 2.014e-10
