#lamb flux
1010.0 4.2566e-10
1030.0 5.3105e-10
1050.0 6.49e-10
1070.0 7.7759e-10
1090.0 9.1862e-10
1110.0 1.0559e-09
1130.0 1.1858e-09
1150.0 1.3141e-09
1170.0 1.4382e-09
1190.0 1.5454e-09
1210.0 1.6475e-09
1230.0 1.7486e-09
1250.0 1.8429e-09
1270.0 1.9325e-09
1290.0 2.0318e-09
1310.0 2.1364e-09
1330.0 2.2444e-09
1350.0 2.366e-09
1370.0 2.5066e-09
1390.0 2.6607e-09
1410.0 2.8292e-09
1430.0 3.0223e-09
1450.0 3.2338e-09
1470.0 3.4579e-09
1490.0 3.6989e-09
1510.0 3.9617e-09
1530.0 4.2271e-09
1550.0 4.4984e-09
1570.0 4.78e-09
1590.0 5.0649e-09
1610.0 5.343e-09
1630.0 5.6249e-09
1650.0 5.9089e-09
1670.0 6.1833e-09
1690.0 6.4508e-09
1710.0 6.72e-09
1730.0 6.9849e-09
1750.0 7.2329e-09
1770.0 7.4806e-09
1790.0 7.7269e-09
1810.0 7.9617e-09
1830.0 8.1884e-09
1850.0 8.401e-09
1870.0 8.5874e-09
1890.0 8.7693e-09
1910.0 8.9569e-09
1930.0 9.1511e-09
1950.0 9.3405e-09
1970.0 9.5296e-09
1990.0 9.7264e-09
2010.0 9.9205e-09
2030.0 1.0108e-08
2050.0 1.0303e-08
2070.0 1.0506e-08
2090.0 1.0701e-08
2110.0 1.0897e-08
2130.0 1.11e-08
2150.0 1.1302e-08
2170.0 1.1497e-08
2190.0 1.1701e-08
2210.0 1.1893e-08
2230.0 1.206e-08
2250.0 1.2226e-08
2270.0 1.2401e-08
2290.0 1.257e-08
2310.0 1.2732e-08
2330.0 1.2901e-08
2350.0 1.3073e-08
2370.0 1.3237e-08
2390.0 1.3405e-08
2410.0 1.3583e-08
2430.0 1.3759e-08
2450.0 1.394e-08
2470.0 1.4146e-08
2490.0 1.4392e-08
2510.0 1.4681e-08
2530.0 1.5065e-08
2550.0 1.5606e-08
2570.0 1.6339e-08
2590.0 1.7312e-08
2610.0 1.8706e-08
2630.0 2.0551e-08
2650.0 2.2802e-08
2670.0 2.5573e-08
2690.0 2.8917e-08
2710.0 3.257e-08
2730.0 3.6403e-08
2750.0 4.0541e-08
2770.0 4.4646e-08
2790.0 4.847e-08
2810.0 5.2072e-08
2830.0 5.5457e-08
2850.0 5.8327e-08
2870.0 6.0891e-08
2890.0 6.3296e-08
2910.0 6.5564e-08
2930.0 6.7737e-08
2950.0 6.9979e-08
2970.0 7.2314e-08
2990.0 7.4711e-08
3010.0 7.7211e-08
3030.0 7.9879e-08
3050.0 8.2674e-08
3070.0 8.5523e-08
3090.0 8.8536e-08
3110.0 9.1734e-08
3130.0 9.5161e-08
3150.0 9.9167e-08
3170.0 1.042e-07
3190.0 1.1071e-07
3210.0 1.1918e-07
3230.0 1.3035e-07
3250.0 1.4424e-07
3270.0 1.5704e-07
3290.0 1.7804e-07
3310.0 2.224e-07
3330.0 2.3696e-07
3350.0 2.44e-07
3370.0 2.5074e-07
3390.0 2.576e-07
3410.0 2.646e-07
3430.0 2.7169e-07
3450.0 2.788e-07
3470.0 2.8576e-07
3490.0 2.9254e-07
3510.0 2.9904e-07
3530.0 2.9674e-07
3550.0 2.8847e-07
3570.0 2.9216e-07
3590.0 3.0913e-07
3610.0 3.3637e-07
3630.0 3.4547e-07
3650.0 3.3122e-07
3670.0 3.0494e-07
3690.0 2.9046e-07
3710.0 2.9506e-07
3730.0 3.0478e-07
3750.0 3.0989e-07
3770.0 3.2033e-07
3790.0 3.3202e-07
3810.0 3.2661e-07
3830.0 3.045e-07
3850.0 2.8521e-07
3870.0 2.7613e-07
3890.0 2.7235e-07
3910.0 2.6575e-07
3930.0 2.6264e-07
3950.0 2.6983e-07
3970.0 2.7827e-07
3990.0 2.8101e-07
4010.0 2.7028e-07
4030.0 2.5557e-07
4050.0 2.4626e-07
4070.0 2.3837e-07
4090.0 2.3177e-07
4110.0 2.2303e-07
4130.0 2.0957e-07
4150.0 1.962e-07
4170.0 1.8827e-07
4190.0 1.7529e-07
4210.0 1.5877e-07
4230.0 1.4198e-07
4250.0 1.2616e-07
4270.0 1.145e-07
4290.0 1.0555e-07
4310.0 1.0087e-07
4330.0 1.0073e-07
4350.0 1.0073e-07
4370.0 1.017e-07
4390.0 1.0515e-07
4410.0 1.0756e-07
4430.0 1.0351e-07
4450.0 9.4107e-08
4470.0 8.6044e-08
4490.0 8.1513e-08
4510.0 7.8696e-08
4530.0 7.7319e-08
4550.0 7.6172e-08
4570.0 7.5884e-08
4590.0 7.6919e-08
4610.0 7.957e-08
4630.0 8.1155e-08
4650.0 8.2057e-08
4670.0 8.0054e-08
4690.0 7.5432e-08
4710.0 7.0752e-08
4730.0 6.7837e-08
4750.0 6.6023e-08
4770.0 6.617e-08
4790.0 6.592e-08
4810.0 6.4499e-08
4830.0 6.4486e-08
4850.0 6.6557e-08
4870.0 6.7179e-08
4890.0 6.5948e-08
4910.0 6.4547e-08
4930.0 6.0903e-08
4950.0 5.5463e-08
4970.0 5.1859e-08
4990.0 4.8903e-08
5010.0 4.824e-08
5030.0 4.9873e-08
5050.0 5.1171e-08
5070.0 5.3075e-08
5090.0 5.6288e-08
5110.0 5.7164e-08
5130.0 5.7651e-08
5150.0 5.8747e-08
5170.0 5.9178e-08
5190.0 6.0738e-08
5210.0 6.1068e-08
5230.0 6.0421e-08
5250.0 6.0958e-08
5270.0 6.1845e-08
5290.0 6.203e-08
5310.0 6.1554e-08
5330.0 6.04e-08
5350.0 5.951e-08
5370.0 5.8893e-08
5390.0 5.8151e-08
5410.0 5.749e-08
5430.0 5.7517e-08
5450.0 5.8303e-08
5470.0 5.9384e-08
5490.0 6.0868e-08
5510.0 6.2732e-08
5530.0 6.3494e-08
5550.0 6.4509e-08
5570.0 6.4512e-08
5590.0 6.2986e-08
5610.0 6.2512e-08
5630.0 6.3059e-08
5650.0 6.2267e-08
5670.0 6.0882e-08
5690.0 5.8979e-08
5710.0 5.8954e-08
5730.0 5.9508e-08
5750.0 5.6943e-08
5770.0 5.4046e-08
5790.0 4.9471e-08
5810.0 4.3076e-08
5830.0 4.6581e-08
5850.0 5.1874e-08
5870.0 5.313e-08
5890.0 5.3429e-08
5910.0 5.372e-08
5930.0 5.366e-08
5950.0 5.2701e-08
5970.0 5.2056e-08
5990.0 5.1221e-08
6010.0 4.9687e-08
6030.0 4.7932e-08
6050.0 4.7195e-08
6070.0 4.7107e-08
6090.0 4.6306e-08
6110.0 4.4702e-08
6130.0 4.3231e-08
6150.0 4.1464e-08
6170.0 3.9677e-08
6190.0 3.8089e-08
6210.0 3.6707e-08
6230.0 3.6105e-08
6250.0 3.5341e-08
6270.0 3.46e-08
6290.0 3.4246e-08
6310.0 3.3915e-08
6330.0 3.314e-08
6350.0 3.2072e-08
6370.0 3.1411e-08
6390.0 3.0902e-08
6410.0 2.9985e-08
6430.0 2.9217e-08
6450.0 2.8533e-08
6470.0 2.7879e-08
6490.0 2.7425e-08
6510.0 2.7051e-08
6530.0 2.6328e-08
6550.0 2.5742e-08
6570.0 2.5402e-08
6590.0 2.5294e-08
6610.0 2.5125e-08
6630.0 2.4259e-08
6650.0 2.362e-08
6670.0 2.3407e-08
6690.0 2.3055e-08
6710.0 2.2523e-08
6730.0 2.2345e-08
6750.0 2.2519e-08
6770.0 2.3949e-08
6790.0 2.7048e-08
6810.0 2.5626e-08
6830.0 2.2305e-08
6850.0 2.1479e-08
6870.0 2.1147e-08
6890.0 2.1159e-08
6910.0 2.121e-08
6930.0 2.1284e-08
6950.0 2.1172e-08
6970.0 2.0638e-08
6990.0 2.0451e-08
7010.0 2.0765e-08
7030.0 2.0821e-08
7050.0 2.0515e-08
7070.0 2.042e-08
7090.0 2.0657e-08
7110.0 2.1126e-08
7130.0 2.1198e-08
7150.0 2.1253e-08
7170.0 2.1369e-08
7190.0 2.1676e-08
7210.0 2.1863e-08
7230.0 2.2007e-08
7250.0 2.2312e-08
7270.0 2.2509e-08
7290.0 2.2823e-08
7310.0 2.3324e-08
7330.0 2.3162e-08
7350.0 2.2691e-08
7370.0 2.2309e-08
7390.0 2.2165e-08
7410.0 2.2391e-08
7430.0 2.265e-08
7450.0 2.2799e-08
7470.0 2.3042e-08
7490.0 2.2887e-08
7510.0 2.2702e-08
7530.0 2.292e-08
7550.0 2.382e-08
7570.0 2.3744e-08
7590.0 2.2484e-08
7610.0 2.218e-08
7630.0 2.3521e-08
7650.0 2.3927e-08
7670.0 2.4247e-08
7690.0 2.529e-08
7710.0 2.6129e-08
7730.0 2.6342e-08
7750.0 2.7755e-08
7770.0 2.6968e-08
7790.0 2.6258e-08
7810.0 2.7928e-08
7830.0 2.8919e-08
7850.0 2.9782e-08
7870.0 3.0259e-08
7890.0 3.0565e-08
7910.0 3.0335e-08
7930.0 3.0581e-08
7950.0 3.1927e-08
7970.0 3.1945e-08
7990.0 2.974e-08
8010.0 2.9898e-08
8030.0 3.0376e-08
8050.0 3.0959e-08
8070.0 2.8139e-08
8090.0 1.8955e-08
8110.0 1.9639e-08
8130.0 2.7499e-08
8150.0 2.9624e-08
8170.0 3.0816e-08
8190.0 3.1575e-08
8210.0 3.1075e-08
8230.0 3.3518e-08
8250.0 3.4175e-08
8270.0 3.2492e-08
8290.0 3.1294e-08
8310.0 3.075e-08
8330.0 3.2198e-08
8350.0 3.3714e-08
8370.0 3.317e-08
8390.0 3.1655e-08
8410.0 3.1607e-08
8430.0 2.9653e-08
8450.0 3.0174e-08
8470.0 3.2987e-08
8490.0 3.3087e-08
8510.0 3.0668e-08
8530.0 2.8904e-08
8550.0 2.776e-08
8570.0 2.6081e-08
8590.0 2.6831e-08
8610.0 2.8352e-08
8630.0 2.9185e-08
8650.0 2.9677e-08
8670.0 2.8949e-08
8690.0 2.8268e-08
8710.0 2.6405e-08
8730.0 2.5413e-08
8750.0 2.6332e-08
8770.0 2.6695e-08
8790.0 2.6764e-08
8810.0 2.6488e-08
8830.0 2.6973e-08
8850.0 2.8376e-08
8870.0 2.6511e-08
8890.0 2.4937e-08
8910.0 2.4582e-08
8930.0 2.3273e-08
8950.0 2.2309e-08
8970.0 2.2242e-08
8990.0 2.131e-08
9010.0 1.9993e-08
9030.0 1.9545e-08
9050.0 1.9386e-08
9070.0 1.9245e-08
9090.0 1.9103e-08
9110.0 1.8961e-08
9130.0 1.8817e-08
9150.0 1.8673e-08
9170.0 1.8528e-08
9190.0 1.8383e-08
9210.0 1.8238e-08
9230.0 1.8093e-08
9250.0 1.7947e-08
9270.0 1.7802e-08
9290.0 1.7657e-08
9310.0 1.7514e-08
9330.0 1.7372e-08
9350.0 1.7231e-08
9370.0 1.7091e-08
9390.0 1.6951e-08
9410.0 1.6812e-08
9430.0 1.6673e-08
9450.0 1.6535e-08
9470.0 1.6399e-08
9490.0 1.6263e-08
9510.0 1.6128e-08
9530.0 1.5994e-08
9550.0 1.5861e-08
9570.0 1.5729e-08
9590.0 1.5598e-08
9610.0 1.547e-08
9630.0 1.5344e-08
9650.0 1.5218e-08
9670.0 1.5094e-08
9690.0 1.4971e-08
9710.0 1.485e-08
9730.0 1.4729e-08
9750.0 1.461e-08
9770.0 1.4492e-08
9790.0 1.4375e-08
9810.0 1.426e-08
9830.0 1.4146e-08
9850.0 1.4032e-08
9870.0 1.3919e-08
9890.0 1.3809e-08
9910.0 1.3701e-08
9930.0 1.3593e-08
9950.0 1.3487e-08
9970.0 1.3382e-08
9990.0 1.3278e-08
10010.0 1.3175e-08
10030.0 1.3073e-08
10050.0 1.2973e-08
10070.0 1.2874e-08
10090.0 1.2776e-08
10110.0 1.2679e-08
10130.0 1.2584e-08
10150.0 1.2489e-08
10170.0 1.2396e-08
10190.0 1.2304e-08
10210.0 1.2213e-08
10230.0 1.2123e-08
10250.0 1.2035e-08
10270.0 1.1947e-08
10290.0 1.1861e-08
10310.0 1.1775e-08
10330.0 1.1691e-08
10350.0 1.1607e-08
10370.0 1.1525e-08
10390.0 1.1442e-08
10410.0 1.1345e-08
10430.0 1.1243e-08
10450.0 1.1183e-08
10470.0 1.1114e-08
10490.0 1.1043e-08
10510.0 1.0972e-08
10530.0 1.0898e-08
10550.0 1.0824e-08
10570.0 1.0752e-08
10590.0 1.068e-08
10610.0 1.0608e-08
10630.0 1.0538e-08
10650.0 1.0469e-08
10670.0 1.0398e-08
10690.0 1.033e-08
10710.0 1.0263e-08
10730.0 1.0196e-08
10750.0 1.0128e-08
10770.0 1.0063e-08
10790.0 9.9989e-09
10810.0 9.9339e-09
10830.0 9.8703e-09
10850.0 9.8087e-09
10870.0 9.7452e-09
10890.0 9.6822e-09
10910.0 9.6212e-09
10930.0 9.5597e-09
10950.0 9.4966e-09
10970.0 9.4338e-09
10990.0 9.3718e-09
11010.0 8.4242e-09
11030.0 8.3625e-09
11050.0 8.302e-09
11070.0 8.2405e-09
11090.0 8.1757e-09
11110.0 8.1129e-09
11130.0 8.0503e-09
11150.0 7.9854e-09
11170.0 7.9197e-09
11190.0 7.8561e-09
11210.0 7.791e-09
11230.0 7.7243e-09
11250.0 7.6599e-09
11270.0 7.5972e-09
11290.0 7.5335e-09
11310.0 7.4716e-09
11330.0 7.4148e-09
11350.0 7.3591e-09
11370.0 7.3049e-09
11390.0 7.2549e-09
11410.0 7.2079e-09
11430.0 7.161e-09
11450.0 7.117e-09
11470.0 7.0758e-09
11490.0 7.035e-09
11510.0 6.9941e-09
11530.0 6.9551e-09
11550.0 6.9165e-09
11570.0 6.8763e-09
11590.0 6.8359e-09
11610.0 6.796e-09
11630.0 6.754e-09
11650.0 6.71e-09
11670.0 6.6669e-09
11690.0 6.623e-09
11710.0 6.5768e-09
11730.0 6.5304e-09
11750.0 6.4852e-09
11770.0 6.4381e-09
11790.0 6.3903e-09
11810.0 6.3441e-09
11830.0 6.2983e-09
11850.0 6.2508e-09
11870.0 6.2056e-09
11890.0 6.163e-09
11910.0 6.1204e-09
11930.0 6.079e-09
11950.0 6.0409e-09
11970.0 6.0043e-09
11990.0 5.9685e-09
12010.0 5.9358e-09
12030.0 5.9059e-09
12050.0 5.8774e-09
12070.0 5.8506e-09
12090.0 5.8274e-09
12110.0 5.8058e-09
12130.0 5.7855e-09
12150.0 5.7672e-09
12170.0 5.7507e-09
12190.0 5.7342e-09
12210.0 5.7186e-09
12230.0 5.7037e-09
12250.0 5.6884e-09
12270.0 5.672e-09
12290.0 5.6548e-09
12310.0 5.6367e-09
12330.0 5.616e-09
12350.0 5.593e-09
12370.0 5.5685e-09
12390.0 5.5412e-09
12410.0 5.5096e-09
12430.0 5.4769e-09
12450.0 5.4422e-09
12470.0 5.4038e-09
12490.0 5.3632e-09
12510.0 5.3223e-09
12530.0 5.2786e-09
12550.0 5.2321e-09
12570.0 5.1859e-09
12590.0 5.1394e-09
12610.0 5.0902e-09
12630.0 5.0407e-09
12650.0 4.9939e-09
12670.0 4.9459e-09
12690.0 4.8977e-09
12710.0 4.8518e-09
12730.0 4.8076e-09
12750.0 4.7623e-09
12770.0 4.7197e-09
12790.0 4.6801e-09
12810.0 4.6416e-09
12830.0 4.6043e-09
12850.0 4.5709e-09
12870.0 4.54e-09
12890.0 4.5103e-09
12910.0 4.4837e-09
12930.0 4.4603e-09
12950.0 4.4387e-09
12970.0 4.4196e-09
12990.0 4.4041e-09
13010.0 4.3912e-09
13030.0 4.3806e-09
13050.0 4.3726e-09
13070.0 4.367e-09
13090.0 4.3631e-09
13110.0 4.3608e-09
13130.0 4.3596e-09
13150.0 4.359e-09
13170.0 4.3583e-09
13190.0 4.357e-09
13210.0 4.3548e-09
13230.0 4.3508e-09
13250.0 4.3448e-09
13270.0 4.3369e-09
13290.0 4.3263e-09
13310.0 4.3126e-09
13330.0 4.2964e-09
13350.0 4.2779e-09
13370.0 4.2562e-09
13390.0 4.2313e-09
13410.0 4.2056e-09
13430.0 4.1773e-09
13450.0 4.146e-09
13470.0 4.1135e-09
13490.0 4.0803e-09
13510.0 4.0434e-09
13530.0 4.0055e-09
13550.0 3.9679e-09
13570.0 3.9287e-09
13590.0 3.8875e-09
13610.0 3.8468e-09
13630.0 3.8067e-09
13650.0 3.7643e-09
13670.0 3.7219e-09
13690.0 3.6809e-09
13710.0 3.6393e-09
13730.0 3.5957e-09
13750.0 3.5551e-09
13770.0 3.5153e-09
13790.0 3.4748e-09
13810.0 3.4355e-09
13830.0 3.3988e-09
13850.0 3.3619e-09
13870.0 3.3255e-09
13890.0 3.2915e-09
13910.0 3.259e-09
13930.0 3.2265e-09
13950.0 3.1955e-09
13970.0 3.1672e-09
13990.0 3.1391e-09
14010.0 3.1118e-09
14030.0 3.0865e-09
14050.0 3.0625e-09
14070.0 3.0383e-09
14090.0 3.0158e-09
14110.0 2.995e-09
14130.0 2.9748e-09
14150.0 2.9551e-09
14170.0 2.9372e-09
14190.0 2.9201e-09
14210.0 2.9032e-09
14230.0 2.8873e-09
14250.0 2.8725e-09
14270.0 2.8575e-09
14290.0 2.8427e-09
14310.0 2.829e-09
14330.0 2.8156e-09
14350.0 2.8019e-09
14370.0 2.7888e-09
14390.0 2.7763e-09
14410.0 2.7635e-09
14430.0 2.7507e-09
14450.0 2.7386e-09
14470.0 2.7265e-09
14490.0 2.7139e-09
14510.0 2.7019e-09
14530.0 2.6902e-09
14550.0 2.6781e-09
14570.0 2.6659e-09
14590.0 2.6542e-09
14610.0 2.6421e-09
14630.0 2.6295e-09
14650.0 2.6172e-09
14670.0 2.6049e-09
14690.0 2.5921e-09
14710.0 2.5789e-09
14730.0 2.5664e-09
14750.0 2.5534e-09
14770.0 2.5398e-09
14790.0 2.5264e-09
14810.0 2.513e-09
14830.0 2.4986e-09
14850.0 2.4841e-09
14870.0 2.47e-09
14890.0 2.4556e-09
14910.0 2.4408e-09
14930.0 2.4268e-09
14950.0 2.4135e-09
14970.0 2.4005e-09
14990.0 2.3886e-09
15010.0 2.3782e-09
15030.0 2.3687e-09
15050.0 2.3599e-09
15070.0 2.3524e-09
15090.0 2.3456e-09
15110.0 2.3391e-09
15130.0 2.3328e-09
15150.0 2.3269e-09
15170.0 2.3209e-09
15190.0 2.3148e-09
15210.0 2.3089e-09
15230.0 2.3031e-09
15250.0 2.297e-09
15270.0 2.291e-09
15290.0 2.2853e-09
15310.0 2.2794e-09
15330.0 2.2734e-09
15350.0 2.2676e-09
15370.0 2.2618e-09
15390.0 2.2557e-09
15410.0 2.2498e-09
15430.0 2.2441e-09
15450.0 2.2382e-09
15470.0 2.2322e-09
15490.0 2.2264e-09
15510.0 2.2207e-09
15530.0 2.2147e-09
15550.0 2.2089e-09
15570.0 2.2032e-09
15590.0 2.1973e-09
15610.0 2.1913e-09
15630.0 2.1856e-09
15650.0 2.1798e-09
15670.0 2.1739e-09
15690.0 2.1681e-09
15710.0 2.1625e-09
15730.0 2.1566e-09
15750.0 2.1507e-09
15770.0 2.145e-09
15790.0 2.1393e-09
15810.0 2.1333e-09
15830.0 2.1276e-09
15850.0 2.122e-09
15870.0 2.1162e-09
15890.0 2.1104e-09
15910.0 2.1048e-09
15930.0 2.0991e-09
15950.0 2.0932e-09
15970.0 2.0875e-09
15990.0 2.0819e-09
16010.0 2.0761e-09
16030.0 2.0702e-09
16050.0 2.0647e-09
16070.0 2.059e-09
16090.0 2.0532e-09
16110.0 2.0476e-09
16130.0 2.0421e-09
16150.0 2.0362e-09
16170.0 2.0305e-09
16190.0 2.0249e-09
16210.0 2.0193e-09
16230.0 2.0135e-09
16250.0 2.0079e-09
16270.0 2.0024e-09
16290.0 1.9967e-09
16310.0 1.991e-09
16330.0 1.9855e-09
16350.0 1.9799e-09
16370.0 1.974e-09
16390.0 1.9685e-09
16410.0 1.963e-09
16430.0 1.9573e-09
16450.0 1.9517e-09
16470.0 1.9463e-09
16490.0 1.9406e-09
16510.0 1.9349e-09
16530.0 1.9294e-09
16550.0 1.9239e-09
16570.0 1.9181e-09
16590.0 1.9125e-09
16610.0 1.9071e-09
16630.0 1.9015e-09
16650.0 1.8959e-09
16670.0 1.8904e-09
16690.0 1.885e-09
16710.0 1.8792e-09
16730.0 1.8736e-09
16750.0 1.8682e-09
16770.0 1.8626e-09
16790.0 1.8569e-09
16810.0 1.8515e-09
16830.0 1.8461e-09
16850.0 1.8404e-09
16870.0 1.8349e-09
16890.0 1.8295e-09
16910.0 1.8239e-09
16930.0 1.8182e-09
16950.0 1.8128e-09
16970.0 1.8073e-09
16990.0 1.8017e-09
17010.0 1.7962e-09
17030.0 1.7908e-09
17050.0 1.7852e-09
17070.0 1.7796e-09
17090.0 1.7742e-09
17110.0 1.7688e-09
17130.0 1.763e-09
17150.0 1.7575e-09
17170.0 1.7522e-09
17190.0 1.7466e-09
17210.0 1.741e-09
17230.0 1.7357e-09
17250.0 1.7302e-09
17270.0 1.7245e-09
17290.0 1.7191e-09
17310.0 1.7137e-09
17330.0 1.7081e-09
17350.0 1.7024e-09
17370.0 1.6971e-09
17390.0 1.6917e-09
17410.0 1.686e-09
17430.0 1.6806e-09
17450.0 1.6753e-09
17470.0 1.6696e-09
17490.0 1.664e-09
17510.0 1.6586e-09
17530.0 1.6531e-09
17550.0 1.6475e-09
17570.0 1.6421e-09
17590.0 1.6367e-09
17610.0 1.6311e-09
17630.0 1.6256e-09
17650.0 1.6202e-09
17670.0 1.6147e-09
17690.0 1.6089e-09
17710.0 1.6036e-09
17730.0 1.5981e-09
17750.0 1.5925e-09
17770.0 1.587e-09
17790.0 1.5817e-09
17810.0 1.5761e-09
17830.0 1.5705e-09
17850.0 1.5651e-09
17870.0 1.5596e-09
17890.0 1.554e-09
17910.0 1.5484e-09
17930.0 1.5431e-09
17950.0 1.5375e-09
17970.0 1.5319e-09
17990.0 1.5265e-09
18010.0 1.5211e-09
18030.0 1.5154e-09
18050.0 1.5099e-09
18070.0 1.5045e-09
18090.0 1.4989e-09
18110.0 1.4932e-09
18130.0 1.4879e-09
18150.0 1.4824e-09
18170.0 1.4768e-09
18190.0 1.4713e-09
18210.0 1.4659e-09
18230.0 1.4602e-09
18250.0 1.4545e-09
18270.0 1.4491e-09
18290.0 1.4437e-09
18310.0 1.438e-09
18330.0 1.4325e-09
18350.0 1.4271e-09
18370.0 1.4215e-09
18390.0 1.4159e-09
18410.0 1.4104e-09
18430.0 1.4049e-09
18450.0 1.3992e-09
18470.0 1.3936e-09
18490.0 1.3882e-09
18510.0 1.3826e-09
18530.0 1.377e-09
18550.0 1.3716e-09
18570.0 1.3661e-09
18590.0 1.3603e-09
18610.0 1.3548e-09
18630.0 1.3493e-09
18650.0 1.3437e-09
18670.0 1.338e-09
18690.0 1.3326e-09
18710.0 1.3271e-09
18730.0 1.3214e-09
18750.0 1.3159e-09
18770.0 1.3105e-09
18790.0 1.3047e-09
18810.0 1.299e-09
18830.0 1.2936e-09
18850.0 1.288e-09
18870.0 1.2823e-09
18890.0 1.2768e-09
18910.0 1.2713e-09
18930.0 1.2656e-09
18950.0 1.26e-09
18970.0 1.2545e-09
18990.0 1.2489e-09
19010.0 1.2431e-09
19030.0 1.2376e-09
19050.0 1.2321e-09
19070.0 1.2264e-09
19090.0 1.2208e-09
19110.0 1.2154e-09
19130.0 1.2097e-09
19150.0 1.204e-09
19170.0 1.1984e-09
19190.0 1.1929e-09
19210.0 1.1871e-09
19230.0 1.1815e-09
19250.0 1.176e-09
19270.0 1.1704e-09
19290.0 1.1647e-09
19310.0 1.1592e-09
19330.0 1.1536e-09
19350.0 1.1478e-09
19370.0 1.1422e-09
19390.0 1.1367e-09
19410.0 1.131e-09
19430.0 1.1252e-09
19450.0 1.1198e-09
19470.0 1.1142e-09
19490.0 1.1084e-09
19510.0 1.1028e-09
19530.0 1.0973e-09
19550.0 1.0916e-09
19570.0 1.0858e-09
19590.0 1.0803e-09
19610.0 1.0747e-09
19630.0 1.0689e-09
19650.0 1.0633e-09
19670.0 1.0578e-09
19690.0 1.0521e-09
19710.0 1.0463e-09
19730.0 1.0408e-09
19750.0 1.0352e-09
19770.0 1.0293e-09
19790.0 1.0237e-09
19810.0 1.0182e-09
19830.0 1.0125e-09
19850.0 1.0068e-09
19870.0 1.0014e-09
19890.0 9.9579e-10
19910.0 9.9019e-10
19930.0 9.8499e-10
19950.0 9.8009e-10
19970.0 9.754e-10
19990.0 9.7124e-10
20010.0 9.6782e-10
20030.0 9.6483e-10
20050.0 9.6236e-10
20070.0 9.6044e-10
20090.0 9.5889e-10
20110.0 9.5752e-10
20130.0 9.5636e-10
20150.0 9.5533e-10
20170.0 9.5429e-10
20190.0 9.5323e-10
20210.0 9.5217e-10
20230.0 9.5107e-10
20250.0 9.4986e-10
20270.0 9.4861e-10
20290.0 9.4733e-10
20310.0 9.4593e-10
20330.0 9.4439e-10
20350.0 9.4288e-10
20370.0 9.4128e-10
20390.0 9.3956e-10
20410.0 9.3779e-10
20430.0 9.3604e-10
20450.0 9.3413e-10
20470.0 9.3219e-10
20490.0 9.303e-10
20510.0 9.2839e-10
20530.0 9.2642e-10
20550.0 9.2452e-10
20570.0 9.2272e-10
20590.0 9.2089e-10
20610.0 9.1909e-10
20630.0 9.174e-10
20650.0 9.1572e-10
20670.0 9.1399e-10
20690.0 9.1234e-10
20710.0 9.1071e-10
20730.0 9.09e-10
20750.0 9.0722e-10
20770.0 9.0545e-10
20790.0 9.0354e-10
20810.0 9.0145e-10
20830.0 8.9928e-10
20850.0 8.97e-10
20870.0 8.9445e-10
20890.0 8.9172e-10
20910.0 8.8898e-10
20930.0 8.8602e-10
20950.0 8.8286e-10
20970.0 8.7968e-10
20990.0 8.7646e-10
21010.0 8.73e-10
21030.0 8.6954e-10
21050.0 8.6617e-10
21070.0 8.6273e-10
21090.0 8.5918e-10
21110.0 8.5583e-10
21130.0 8.5255e-10
21150.0 8.4919e-10
21170.0 8.459e-10
21190.0 8.4276e-10
21210.0 8.3952e-10
21230.0 8.3622e-10
21250.0 8.3306e-10
21270.0 8.299e-10
21290.0 8.2658e-10
21310.0 8.2324e-10
21330.0 8.2e-10
21350.0 8.1657e-10
21370.0 8.13e-10
21390.0 8.0932e-10
21410.0 8.0556e-10
21430.0 8.0148e-10
21450.0 7.9743e-10
21470.0 7.9341e-10
21490.0 7.8919e-10
21510.0 7.8482e-10
21530.0 7.8057e-10
21550.0 7.7622e-10
21570.0 7.7164e-10
21590.0 7.6713e-10
21610.0 7.627e-10
21630.0 7.5811e-10
21650.0 7.5337e-10
21670.0 7.4894e-10
21690.0 7.4445e-10
21710.0 7.3983e-10
21730.0 7.3531e-10
21750.0 7.3095e-10
21770.0 7.2634e-10
21790.0 7.2177e-10
21810.0 7.1737e-10
21830.0 7.1293e-10
21850.0 7.0833e-10
21870.0 7.0386e-10
21890.0 6.9954e-10
21910.0 6.9504e-10
21930.0 6.9056e-10
21950.0 6.8626e-10
21970.0 6.8194e-10
21990.0 6.7746e-10
22010.0 6.7325e-10
22030.0 6.6919e-10
22050.0 6.6509e-10
22070.0 6.6114e-10
22090.0 6.5758e-10
22110.0 6.5406e-10
22130.0 6.506e-10
22150.0 6.474e-10
22170.0 6.444e-10
22190.0 6.4141e-10
22210.0 6.386e-10
22230.0 6.3607e-10
22250.0 6.336e-10
22270.0 6.312e-10
22290.0 6.2898e-10
22310.0 6.2686e-10
22330.0 6.247e-10
22350.0 6.2264e-10
22370.0 6.2068e-10
22390.0 6.1869e-10
22410.0 6.1664e-10
22430.0 6.1469e-10
22450.0 6.1274e-10
22470.0 6.107e-10
22490.0 6.0866e-10
22510.0 6.0667e-10
22530.0 6.0458e-10
22550.0 6.0243e-10
22570.0 6.0036e-10
22590.0 5.9829e-10
22610.0 5.9616e-10
22630.0 5.9407e-10
22650.0 5.9211e-10
