#lamb flux
1010.0 9.1455e-08
1030.0 9.7367e-08
1050.0 1.042e-07
1070.0 1.1189e-07
1090.0 1.2064e-07
1110.0 1.2963e-07
1130.0 1.3871e-07
1150.0 1.4824e-07
1170.0 1.581e-07
1190.0 1.675e-07
1210.0 1.7705e-07
1230.0 1.8696e-07
1250.0 1.9671e-07
1270.0 2.0623e-07
1290.0 2.1633e-07
1310.0 2.2647e-07
1330.0 2.3627e-07
1350.0 2.4622e-07
1370.0 2.5655e-07
1390.0 2.6668e-07
1410.0 2.766e-07
1430.0 2.87e-07
1450.0 2.9747e-07
1470.0 3.0768e-07
1490.0 3.1804e-07
1510.0 3.2902e-07
1530.0 3.3951e-07
1550.0 3.4992e-07
1570.0 3.607e-07
1590.0 3.7153e-07
1610.0 3.8194e-07
1630.0 3.9266e-07
1650.0 4.0365e-07
1670.0 4.1429e-07
1690.0 4.2479e-07
1710.0 4.3562e-07
1730.0 4.4645e-07
1750.0 4.566e-07
1770.0 4.6694e-07
1790.0 4.7737e-07
1810.0 4.8735e-07
1830.0 4.9702e-07
1850.0 5.0712e-07
1870.0 5.1678e-07
1890.0 5.259e-07
1910.0 5.3502e-07
1930.0 5.4415e-07
1950.0 5.526e-07
1970.0 5.607e-07
1990.0 5.6892e-07
2010.0 5.7673e-07
2030.0 5.8395e-07
2050.0 5.9123e-07
2070.0 5.9852e-07
2090.0 6.0502e-07
2110.0 6.113e-07
2130.0 6.1767e-07
2150.0 6.2368e-07
2170.0 6.2914e-07
2190.0 6.3481e-07
2210.0 6.4044e-07
2230.0 6.4562e-07
2250.0 6.5072e-07
2270.0 6.5619e-07
2290.0 6.6139e-07
2310.0 6.6626e-07
2330.0 6.7148e-07
2350.0 6.7687e-07
2370.0 6.8203e-07
2390.0 6.8743e-07
2410.0 6.934e-07
2430.0 6.9933e-07
2450.0 7.0535e-07
2470.0 7.1202e-07
2490.0 7.1958e-07
2510.0 7.282e-07
2530.0 7.4035e-07
2550.0 7.6007e-07
2570.0 7.9186e-07
2590.0 8.4109e-07
2610.0 9.2127e-07
2630.0 1.0368e-06
2650.0 1.1826e-06
2670.0 1.3612e-06
2690.0 1.5674e-06
2710.0 1.775e-06
2730.0 1.9709e-06
2750.0 2.1585e-06
2770.0 2.3221e-06
2790.0 2.4594e-06
2810.0 2.582e-06
2830.0 2.6994e-06
2850.0 2.8064e-06
2870.0 2.9129e-06
2890.0 3.0258e-06
2910.0 3.1429e-06
2930.0 3.2605e-06
2950.0 3.3866e-06
2970.0 3.5201e-06
2990.0 3.6547e-06
3010.0 1.2932e-05
3030.0 1.3426e-05
3050.0 1.3917e-05
3070.0 1.436e-05
3090.0 1.4736e-05
3110.0 1.4941e-05
3130.0 1.4852e-05
3150.0 1.4339e-05
3170.0 1.3136e-05
3190.0 1.1221e-05
3210.0 8.6293e-06
3230.0 5.7209e-06
3250.0 8.7704e-06
3270.0 5.4848e-06
3290.0 1.2625e-05
3310.0 4.977e-06
3330.0 4.927e-06
3350.0 5.9008e-06
3370.0 7.0655e-06
3390.0 8.3391e-06
3410.0 9.6153e-06
3430.0 1.096e-05
3450.0 1.2318e-05
3470.0 1.357e-05
3490.0 1.4447e-05
3510.0 1.7348e-05
3530.0 2.2464e-05
3550.0 2.1883e-05
3570.0 1.8045e-05
3590.0 2.4426e-05
3610.0 1.5808e-05
3630.0 2.5743e-05
3650.0 2.9986e-05
3670.0 3.8128e-05
3690.0 3.5401e-05
3710.0 2.3705e-05
3730.0 3.0594e-05
3750.0 3.1327e-05
3770.0 3.3622e-05
3790.0 3.2626e-05
3810.0 3.3587e-05
3830.0 5.2788e-05
3850.0 6.4797e-05
3870.0 7.9905e-05
3890.0 7.7654e-05
3910.0 6.9404e-05
3930.0 7.0298e-05
3950.0 7.5933e-05
3970.0 8.3725e-05
3990.0 5.3685e-05
4010.0 2.906e-05
4030.0 5.1676e-05
4050.0 6.8354e-05
4070.0 7.3125e-05
4090.0 5.1148e-05
4110.0 3.2375e-05
4130.0 5.3247e-05
4150.0 5.4362e-05
4170.0 5.0601e-05
4190.0 4.5915e-05
4210.0 6.4989e-05
4230.0 4.7879e-05
4250.0 5.1874e-05
4270.0 5.1535e-05
4290.0 4.8826e-05
4310.0 6.2591e-05
4330.0 6.7633e-05
4350.0 5.6351e-05
4370.0 4.7571e-05
4390.0 5.7978e-05
4410.0 5.9379e-05
4430.0 4.3659e-05
4450.0 3.9615e-05
4470.0 4.8958e-05
4490.0 3.7457e-05
4510.0 5.2284e-05
4530.0 5.4339e-05
4550.0 6.4486e-05
4570.0 9.0911e-05
4590.0 8.9905e-05
4610.0 7.1284e-05
4630.0 0.00011376
4650.0 0.00015161
4670.0 0.00014458
4690.0 0.00010224
4710.0 0.00010842
4730.0 0.00012281
4750.0 0.00010117
4770.0 7.7341e-05
4790.0 5.2197e-05
4810.0 7.1247e-05
4830.0 8.3911e-05
4850.0 7.3757e-05
4870.0 3.1006e-05
4890.0 8.3696e-05
4910.0 0.00010973
4930.0 0.00011926
4950.0 0.00012289
4970.0 8.6321e-05
4990.0 0.00010046
5010.0 0.00011668
5030.0 0.00012506
5050.0 0.00011675
5070.0 8.2562e-05
5090.0 6.6985e-05
5110.0 6.4757e-05
5130.0 6.1527e-05
5150.0 6.4088e-05
5170.0 5.7188e-05
5190.0 6.8181e-05
5210.0 6.9258e-05
5230.0 7.6774e-05
5250.0 9.1232e-05
5270.0 7.5699e-05
5290.0 7.8784e-05
5310.0 0.00011589
5330.0 0.00013333
5350.0 0.00011198
5370.0 0.00010076
5390.0 0.000117
5410.0 0.00013973
5430.0 0.00014898
5450.0 0.00015683
5470.0 0.00015801
5490.0 0.00016285
5510.0 0.00019509
5530.0 0.00020281
5550.0 0.00021431
5570.0 0.0002252
5590.0 0.00022152
5610.0 0.00020756
5630.0 0.0002028
5650.0 0.00020991
5670.0 0.00020527
5690.0 0.00017588
5710.0 0.00017412
5730.0 0.00017453
5750.0 0.00018164
5770.0 0.00015657
5790.0 0.00014949
5810.0 0.00015328
5830.0 0.00016557
5850.0 0.00015428
5870.0 0.00015516
5890.0 0.0001811
5910.0 0.00016911
5930.0 0.00013978
5950.0 0.00012638
5970.0 0.00013785
5990.0 0.00012529
6010.0 0.00011458
6030.0 0.00011236
6050.0 0.00010291
6070.0 7.974e-05
6090.0 7.5834e-05
6110.0 9.7287e-05
6130.0 0.00010918
6150.0 0.00011277
6170.0 0.00010967
6190.0 0.0001046
6210.0 0.00010906
6230.0 0.00013235
6250.0 0.00012229
6270.0 0.00010995
6290.0 9.9948e-05
6310.0 9.0529e-05
6330.0 8.3979e-05
6350.0 7.5058e-05
6370.0 7.6075e-05
6390.0 8.8522e-05
6410.0 0.00010991
6430.0 0.00012992
6450.0 0.00013042
6470.0 0.00013188
6490.0 0.00016106
6510.0 0.00018491
6530.0 0.00017571
6550.0 0.00016672
6570.0 0.00016913
6590.0 0.00016669
6610.0 0.00017643
6630.0 0.00016452
6650.0 0.00014295
6670.0 0.00013186
6690.0 0.00013072
6710.0 0.00015473
6730.0 0.00013778
6750.0 0.00011332
6770.0 0.0001023
6790.0 0.00010868
6810.0 0.00012481
6830.0 0.00012423
6850.0 0.00011142
6870.0 0.0001154
6890.0 0.00011469
6910.0 0.00010778
6930.0 0.00011966
6950.0 0.00011132
6970.0 0.0001037
6990.0 0.00010337
7010.0 0.00010413
7030.0 0.00010115
7050.0 9.6849e-05
7070.0 0.00010388
7090.0 9.675e-05
7110.0 8.2032e-05
7130.0 7.046e-05
7150.0 6.9193e-05
7170.0 8.7364e-05
7190.0 9.2621e-05
7210.0 8.7822e-05
7230.0 9.2362e-05
7250.0 8.9708e-05
7270.0 8.7506e-05
7290.0 9.4795e-05
7310.0 0.00010391
7330.0 0.00010124
7350.0 9.393e-05
7370.0 8.6892e-05
7390.0 8.7153e-05
7410.0 0.00010014
7430.0 0.00011275
7450.0 0.00012004
7470.0 0.00012176
7490.0 0.00013545
7510.0 0.00013383
7530.0 0.00012115
7550.0 0.00011467
7570.0 9.9073e-05
7590.0 9.4304e-05
7610.0 9.107e-05
7630.0 8.3875e-05
7650.0 9.0086e-05
7670.0 9.9782e-05
7690.0 0.00010861
7710.0 0.0001239
7730.0 0.00012993
7750.0 0.00013497
7770.0 0.00014027
7790.0 0.00015212
7810.0 0.00015321
7830.0 0.00013747
7850.0 0.000138
7870.0 0.00013285
7890.0 0.000136
7910.0 0.00012806
7930.0 0.0001271
7950.0 0.00010671
7970.0 0.00010703
7990.0 0.00010341
8010.0 0.00011232
8030.0 0.00011182
8050.0 0.00011874
8070.0 0.00011387
8090.0 0.0001143
8110.0 0.00011248
8130.0 0.00011114
8150.0 0.0001043
8170.0 0.00010227
8190.0 0.00010194
8210.0 0.00010286
8230.0 8.9918e-05
8250.0 8.2157e-05
8270.0 7.2562e-05
8290.0 6.1654e-05
8310.0 5.4275e-05
8330.0 4.2963e-05
8350.0 3.4761e-05
8370.0 3.3539e-05
8390.0 3.2494e-05
8410.0 3.3984e-05
8430.0 4.3683e-05
8450.0 4.7541e-05
8470.0 5.1134e-05
8490.0 5.9797e-05
8510.0 6.5029e-05
8530.0 7.3895e-05
8550.0 8.7352e-05
8570.0 9.5886e-05
8590.0 0.00010078
8610.0 0.00011185
8630.0 0.00012716
8650.0 0.00013036
8670.0 0.00013298
8690.0 0.0001379
8710.0 0.00013512
8730.0 0.00013077
8750.0 0.00012041
8770.0 0.00012036
8790.0 0.00011857
8810.0 0.00010896
8830.0 0.00010901
8850.0 9.9767e-05
8870.0 9.506e-05
8890.0 8.5102e-05
8910.0 9.4795e-05
8930.0 8.5683e-05
8950.0 8.5843e-05
8970.0 8.7595e-05
8990.0 8.5006e-05
9010.0 8.7273e-05
9030.0 8.2846e-05
9050.0 8.2445e-05
9070.0 8.2481e-05
9090.0 8.25e-05
9110.0 8.2575e-05
9130.0 8.257e-05
9150.0 8.2523e-05
9170.0 8.2252e-05
9190.0 8.165e-05
9210.0 8.2941e-05
9230.0 8.2575e-05
9250.0 8.2365e-05
9270.0 8.2187e-05
9290.0 8.2028e-05
9310.0 8.1881e-05
9330.0 8.1737e-05
9350.0 8.1593e-05
9370.0 8.1445e-05
9390.0 8.1289e-05
9410.0 8.1129e-05
9430.0 8.0964e-05
9450.0 8.0789e-05
9470.0 8.0609e-05
9490.0 8.0426e-05
9510.0 8.0237e-05
9530.0 8.0041e-05
9550.0 7.9847e-05
9570.0 7.9649e-05
9590.0 7.9446e-05
9610.0 7.9241e-05
9630.0 7.9037e-05
9650.0 7.8832e-05
9670.0 7.8621e-05
9690.0 7.8414e-05
9710.0 7.8208e-05
9730.0 7.7998e-05
9750.0 7.779e-05
9770.0 7.7591e-05
9790.0 7.7387e-05
9810.0 7.7182e-05
9830.0 7.6985e-05
9850.0 7.679e-05
9870.0 7.6593e-05
9890.0 7.6401e-05
9910.0 7.6216e-05
9930.0 7.603e-05
9950.0 7.5729e-05
9970.0 7.559e-05
9990.0 7.5452e-05
10010.0 7.5305e-05
10030.0 7.5155e-05
10050.0 7.4979e-05
10070.0 7.4659e-05
10090.0 7.457e-05
10110.0 7.448e-05
10130.0 7.4377e-05
10150.0 7.427e-05
10170.0 7.4157e-05
10190.0 7.4036e-05
10210.0 7.3924e-05
10230.0 7.3818e-05
10250.0 7.3709e-05
10270.0 7.3608e-05
10290.0 7.3516e-05
10310.0 7.3425e-05
10330.0 7.3335e-05
10350.0 7.3257e-05
10370.0 7.3185e-05
10390.0 7.3114e-05
10410.0 7.3048e-05
10430.0 7.2994e-05
10450.0 7.294e-05
10470.0 7.289e-05
10490.0 7.2848e-05
10510.0 7.2812e-05
10530.0 7.2775e-05
10550.0 7.2745e-05
10570.0 7.2724e-05
10590.0 7.2705e-05
10610.0 7.2688e-05
10630.0 7.268e-05
10650.0 7.2677e-05
10670.0 7.2673e-05
10690.0 7.2676e-05
10710.0 7.2685e-05
10730.0 7.2696e-05
10750.0 7.2708e-05
10770.0 7.273e-05
10790.0 7.2754e-05
10810.0 7.2778e-05
10830.0 7.2805e-05
10850.0 7.2832e-05
10870.0 7.2842e-05
10890.0 7.2826e-05
10910.0 7.2765e-05
10930.0 7.2619e-05
10950.0 7.2328e-05
10970.0 7.1861e-05
10990.0 7.1203e-05
11010.0 7.2436e-05
11030.0 7.1173e-05
11050.0 6.9688e-05
11070.0 6.7969e-05
11090.0 6.5976e-05
11110.0 6.3987e-05
11130.0 6.1998e-05
11150.0 5.9961e-05
11170.0 5.7982e-05
11190.0 5.618e-05
11210.0 5.4442e-05
11230.0 5.2788e-05
11250.0 5.1325e-05
11270.0 5.0018e-05
11290.0 4.8795e-05
11310.0 4.7707e-05
11330.0 4.6791e-05
11350.0 4.5943e-05
11370.0 4.5155e-05
11390.0 4.4446e-05
11410.0 4.378e-05
11430.0 4.3086e-05
11450.0 4.24e-05
11470.0 4.1715e-05
11490.0 4.0984e-05
11510.0 4.0189e-05
11530.0 3.9389e-05
11550.0 3.8559e-05
11570.0 3.7659e-05
11590.0 3.6739e-05
11610.0 3.5829e-05
11630.0 3.4869e-05
11650.0 3.3879e-05
11670.0 3.2939e-05
11690.0 3.201e-05
11710.0 3.1065e-05
11730.0 3.0156e-05
11750.0 2.931e-05
11770.0 2.8462e-05
11790.0 2.7638e-05
11810.0 2.6876e-05
11830.0 2.6148e-05
11850.0 2.5416e-05
11870.0 2.4739e-05
11890.0 2.4113e-05
11910.0 2.3491e-05
11930.0 2.2885e-05
11950.0 2.2323e-05
11970.0 2.1771e-05
11990.0 2.121e-05
12010.0 2.0679e-05
12030.0 2.0173e-05
12050.0 1.9665e-05
12070.0 1.9164e-05
12090.0 1.8715e-05
12110.0 1.8283e-05
12130.0 1.7869e-05
12150.0 1.7502e-05
12170.0 1.7189e-05
12190.0 1.6907e-05
12210.0 1.6689e-05
12230.0 1.6545e-05
12250.0 1.6469e-05
12270.0 1.647e-05
12290.0 1.6552e-05
12310.0 1.6709e-05
12330.0 1.6951e-05
12350.0 1.7268e-05
12370.0 1.7641e-05
12390.0 1.8073e-05
12410.0 1.8575e-05
12430.0 1.9083e-05
12450.0 1.9602e-05
12470.0 2.014e-05
12490.0 2.0667e-05
12510.0 2.115e-05
12530.0 2.1617e-05
12550.0 2.2052e-05
12570.0 2.2429e-05
12590.0 2.2756e-05
12610.0 2.3043e-05
12630.0 2.3277e-05
12650.0 2.3454e-05
12670.0 2.3591e-05
12690.0 2.3685e-05
12710.0 2.3738e-05
12730.0 2.3758e-05
12750.0 2.3742e-05
12770.0 2.3696e-05
12790.0 2.3626e-05
12810.0 2.3529e-05
12830.0 2.3401e-05
12850.0 2.3256e-05
12870.0 2.3089e-05
12890.0 2.2887e-05
12910.0 2.2661e-05
12930.0 2.2418e-05
12950.0 2.2134e-05
12970.0 2.1812e-05
12990.0 2.1479e-05
13010.0 2.1119e-05
13030.0 2.072e-05
13050.0 2.0307e-05
13070.0 1.9897e-05
13090.0 1.9459e-05
13110.0 1.9014e-05
13130.0 1.859e-05
13150.0 1.8179e-05
13170.0 1.7768e-05
13190.0 1.7402e-05
13210.0 1.7083e-05
13230.0 1.6795e-05
13250.0 1.6552e-05
13270.0 1.6367e-05
13290.0 1.6226e-05
13310.0 1.6127e-05
13330.0 1.6077e-05
13350.0 1.6063e-05
13370.0 1.6077e-05
13390.0 1.6113e-05
13410.0 1.6157e-05
13430.0 1.6203e-05
13450.0 1.624e-05
13470.0 1.626e-05
13490.0 1.626e-05
13510.0 1.623e-05
13530.0 1.6171e-05
13550.0 1.6088e-05
13570.0 1.5978e-05
13590.0 1.5842e-05
13610.0 1.5694e-05
13630.0 1.5541e-05
13650.0 1.5374e-05
13670.0 1.521e-05
13690.0 1.5055e-05
13710.0 1.4906e-05
13730.0 1.476e-05
13750.0 1.4634e-05
13770.0 1.4519e-05
13790.0 1.441e-05
13810.0 1.4307e-05
13830.0 1.4214e-05
13850.0 1.4118e-05
13870.0 1.4019e-05
13890.0 1.3919e-05
13910.0 1.3815e-05
13930.0 1.37e-05
13950.0 1.3579e-05
13970.0 1.3458e-05
13990.0 1.3331e-05
14010.0 1.3201e-05
14030.0 1.3076e-05
14050.0 1.2956e-05
14070.0 1.2838e-05
14090.0 1.2732e-05
14110.0 1.264e-05
14130.0 1.2559e-05
14150.0 1.249e-05
14170.0 1.2437e-05
14190.0 1.2397e-05
14210.0 1.237e-05
14230.0 1.2357e-05
14250.0 1.2355e-05
14270.0 1.2367e-05
14290.0 1.2394e-05
14310.0 1.243e-05
14330.0 1.2478e-05
14350.0 1.2541e-05
14370.0 1.2612e-05
14390.0 1.2688e-05
14410.0 1.2775e-05
14430.0 1.2868e-05
14450.0 1.2959e-05
14470.0 1.3052e-05
14490.0 1.3151e-05
14510.0 1.3244e-05
14530.0 1.3332e-05
14550.0 1.3424e-05
14570.0 1.3518e-05
14590.0 1.361e-05
14610.0 1.3711e-05
14630.0 1.3828e-05
14650.0 1.3953e-05
14670.0 1.4091e-05
14690.0 1.4255e-05
14710.0 1.4444e-05
14730.0 1.4642e-05
14750.0 1.4867e-05
14770.0 1.5122e-05
14790.0 1.539e-05
14810.0 1.5666e-05
14830.0 1.5977e-05
14850.0 1.6291e-05
14870.0 1.6592e-05
14890.0 1.6894e-05
14910.0 1.7189e-05
14930.0 1.7448e-05
14950.0 1.7668e-05
14970.0 1.7857e-05
14990.0 1.7994e-05
15010.0 1.8075e-05
15030.0 1.8112e-05
15050.0 1.8109e-05
15070.0 1.8069e-05
15090.0 1.8007e-05
15110.0 1.7929e-05
15130.0 1.7842e-05
15150.0 1.7752e-05
15170.0 1.7658e-05
15190.0 1.7562e-05
15210.0 1.7467e-05
15230.0 1.7372e-05
15250.0 1.7276e-05
15270.0 1.718e-05
15290.0 1.7086e-05
15310.0 1.6992e-05
15330.0 1.6897e-05
15350.0 1.6803e-05
15370.0 1.671e-05
15390.0 1.6616e-05
15410.0 1.6522e-05
15430.0 1.643e-05
15450.0 1.6337e-05
15470.0 1.6244e-05
15490.0 1.6153e-05
15510.0 1.6062e-05
15530.0 1.5971e-05
15550.0 1.588e-05
15570.0 1.5791e-05
15590.0 1.57e-05
15610.0 1.561e-05
15630.0 1.5521e-05
15650.0 1.5433e-05
15670.0 1.5344e-05
15690.0 1.5256e-05
15710.0 1.517e-05
15730.0 1.5083e-05
15750.0 1.4996e-05
15770.0 1.4911e-05
15790.0 1.4826e-05
15810.0 1.474e-05
15830.0 1.4655e-05
15850.0 1.4572e-05
15870.0 1.4488e-05
15890.0 1.4405e-05
15910.0 1.4324e-05
15930.0 1.4242e-05
15950.0 1.4159e-05
15970.0 1.4079e-05
15990.0 1.3999e-05
16010.0 1.3918e-05
16030.0 1.3838e-05
16050.0 1.376e-05
16070.0 1.3682e-05
16090.0 1.3603e-05
16110.0 1.3526e-05
16130.0 1.3451e-05
16150.0 1.3373e-05
16170.0 1.3297e-05
16190.0 1.3222e-05
16210.0 1.3147e-05
16230.0 1.3072e-05
16250.0 1.2999e-05
16270.0 1.2926e-05
16290.0 1.2853e-05
16310.0 1.278e-05
16330.0 1.2709e-05
16350.0 1.2638e-05
16370.0 1.2566e-05
16390.0 1.2496e-05
16410.0 1.2427e-05
16430.0 1.2357e-05
16450.0 1.2288e-05
16470.0 1.2221e-05
16490.0 1.2152e-05
16510.0 1.2084e-05
16530.0 1.2017e-05
16550.0 1.1951e-05
16570.0 1.1884e-05
16590.0 1.1818e-05
16610.0 1.1754e-05
16630.0 1.1689e-05
16650.0 1.1624e-05
16670.0 1.1561e-05
16690.0 1.1498e-05
16710.0 1.1434e-05
16730.0 1.1372e-05
16750.0 1.131e-05
16770.0 1.1248e-05
16790.0 1.1186e-05
16810.0 1.1126e-05
16830.0 1.1066e-05
16850.0 1.1005e-05
16870.0 1.0945e-05
16890.0 1.0887e-05
16910.0 1.0827e-05
16930.0 1.0768e-05
16950.0 1.0711e-05
16970.0 1.0653e-05
16990.0 1.0595e-05
17010.0 1.0538e-05
17030.0 1.0482e-05
17050.0 1.0425e-05
17070.0 1.0369e-05
17090.0 1.0314e-05
17110.0 1.0259e-05
17130.0 1.0203e-05
17150.0 1.0148e-05
17170.0 1.0095e-05
17190.0 1.0041e-05
17210.0 9.9866e-06
17230.0 9.9343e-06
17250.0 9.8813e-06
17270.0 9.8276e-06
17290.0 9.7755e-06
17310.0 9.7241e-06
17330.0 9.6717e-06
17350.0 9.6195e-06
17370.0 9.5695e-06
17390.0 9.5187e-06
17410.0 9.4675e-06
17430.0 9.4176e-06
17450.0 9.3685e-06
17470.0 9.3176e-06
17490.0 9.2677e-06
17510.0 9.2193e-06
17530.0 9.1704e-06
17550.0 9.1209e-06
17570.0 9.0731e-06
17590.0 9.0258e-06
17610.0 8.9772e-06
17630.0 8.9294e-06
17650.0 8.8828e-06
17670.0 8.8356e-06
17690.0 8.7873e-06
17710.0 8.7414e-06
17730.0 8.6956e-06
17750.0 8.6488e-06
17770.0 8.6028e-06
17790.0 8.5583e-06
17810.0 8.5124e-06
17830.0 8.4664e-06
17850.0 8.4219e-06
17870.0 8.3776e-06
17890.0 8.3321e-06
17910.0 8.2874e-06
17930.0 8.2444e-06
17950.0 8.2004e-06
17970.0 8.1562e-06
17990.0 8.1134e-06
18010.0 8.0707e-06
18030.0 8.0264e-06
18050.0 7.9835e-06
18070.0 7.9416e-06
18090.0 7.8989e-06
18110.0 7.8559e-06
18130.0 7.8147e-06
18150.0 7.7733e-06
18170.0 7.7309e-06
18190.0 7.6896e-06
18210.0 7.6492e-06
18230.0 7.6074e-06
18250.0 7.5656e-06
18270.0 7.5257e-06
18290.0 7.4855e-06
18310.0 7.4445e-06
18330.0 7.4045e-06
18350.0 7.3656e-06
18370.0 7.3252e-06
18390.0 7.2851e-06
18410.0 7.2464e-06
18430.0 7.2073e-06
18450.0 7.167e-06
18470.0 7.1284e-06
18490.0 7.0905e-06
18510.0 7.0515e-06
18530.0 7.0128e-06
18550.0 6.9756e-06
18570.0 6.9375e-06
18590.0 6.8986e-06
18610.0 6.8612e-06
18630.0 6.8242e-06
18650.0 6.7863e-06
18670.0 6.7484e-06
18690.0 6.7125e-06
18710.0 6.6756e-06
18730.0 6.6383e-06
18750.0 6.6021e-06
18770.0 6.5665e-06
18790.0 6.5291e-06
18810.0 6.4926e-06
18830.0 6.4575e-06
18850.0 6.4216e-06
18870.0 6.3853e-06
18890.0 6.3503e-06
18910.0 6.3157e-06
18930.0 6.2798e-06
18950.0 6.2446e-06
18970.0 6.2105e-06
18990.0 6.1756e-06
19010.0 6.1396e-06
19030.0 6.1059e-06
19050.0 6.0721e-06
19070.0 6.0374e-06
19090.0 6.0033e-06
19110.0 5.9705e-06
19130.0 5.9362e-06
19150.0 5.902e-06
19170.0 5.869e-06
19190.0 5.836e-06
19210.0 5.8019e-06
19230.0 5.7686e-06
19250.0 5.7367e-06
19270.0 5.7037e-06
19290.0 5.6706e-06
19310.0 5.6388e-06
19330.0 5.6068e-06
19350.0 5.5733e-06
19370.0 5.5412e-06
19390.0 5.5099e-06
19410.0 5.4776e-06
19430.0 5.4452e-06
19450.0 5.4145e-06
19470.0 5.3833e-06
19490.0 5.3512e-06
19510.0 5.3201e-06
19530.0 5.2897e-06
19550.0 5.258e-06
19570.0 5.2262e-06
19590.0 5.1962e-06
19610.0 5.1657e-06
19630.0 5.1346e-06
19650.0 5.1044e-06
19670.0 5.0749e-06
19690.0 5.044e-06
19710.0 5.0135e-06
19730.0 4.9842e-06
19750.0 4.9543e-06
19770.0 4.9234e-06
19790.0 4.8941e-06
19810.0 4.8652e-06
19830.0 4.8351e-06
19850.0 4.8051e-06
19870.0 4.7757e-06
19890.0 4.7443e-06
19910.0 4.7098e-06
19930.0 4.6733e-06
19950.0 4.632e-06
19970.0 4.5817e-06
19990.0 4.5223e-06
20010.0 4.4564e-06
20030.0 4.3785e-06
20050.0 4.2903e-06
20070.0 4.1983e-06
20090.0 4.1033e-06
20110.0 4.0007e-06
20130.0 3.9021e-06
20150.0 3.8095e-06
20170.0 3.7184e-06
20190.0 3.6309e-06
20210.0 3.5527e-06
20230.0 3.4804e-06
20250.0 3.4116e-06
20270.0 3.3514e-06
20290.0 3.2996e-06
20310.0 3.2534e-06
20330.0 3.2137e-06
20350.0 3.1843e-06
20370.0 3.1619e-06
20390.0 3.1467e-06
20410.0 3.1399e-06
20430.0 3.1408e-06
20450.0 3.1499e-06
20470.0 3.1674e-06
20490.0 3.192e-06
20510.0 3.2242e-06
20530.0 3.2652e-06
20550.0 3.3122e-06
20570.0 3.3633e-06
20590.0 3.4217e-06
20610.0 3.4848e-06
20630.0 3.5488e-06
20650.0 3.6155e-06
20670.0 3.6865e-06
20690.0 3.754e-06
20710.0 3.8187e-06
20730.0 3.8829e-06
20750.0 3.9436e-06
20770.0 3.9974e-06
20790.0 4.0478e-06
20810.0 4.0944e-06
20830.0 4.1349e-06
20850.0 4.1702e-06
20870.0 4.2029e-06
20890.0 4.2316e-06
20910.0 4.2559e-06
20930.0 4.2783e-06
20950.0 4.2991e-06
20970.0 4.3175e-06
20990.0 4.334e-06
21010.0 4.3496e-06
21030.0 4.3631e-06
21050.0 4.374e-06
21070.0 4.3827e-06
21090.0 4.3886e-06
21110.0 4.3911e-06
21130.0 4.3903e-06
21150.0 4.386e-06
21170.0 4.3782e-06
21190.0 4.3675e-06
21210.0 4.3534e-06
21230.0 4.3362e-06
21250.0 4.3174e-06
21270.0 4.297e-06
21290.0 4.2746e-06
21310.0 4.2517e-06
21330.0 4.2297e-06
21350.0 4.207e-06
21370.0 4.1848e-06
21390.0 4.1645e-06
21410.0 4.1456e-06
21430.0 4.1274e-06
21450.0 4.1119e-06
21470.0 4.099e-06
21490.0 4.0881e-06
21510.0 4.0795e-06
21530.0 4.0737e-06
21550.0 4.0704e-06
21570.0 4.0696e-06
21590.0 4.0715e-06
21610.0 4.0761e-06
21630.0 4.0835e-06
21650.0 4.0942e-06
21670.0 4.1071e-06
21690.0 4.1229e-06
21710.0 4.1423e-06
21730.0 4.1645e-06
21750.0 4.1888e-06
21770.0 4.2178e-06
21790.0 4.25e-06
21810.0 4.2841e-06
21830.0 4.3216e-06
21850.0 4.3636e-06
21870.0 4.4073e-06
21890.0 4.4523e-06
21910.0 4.5014e-06
21930.0 4.5528e-06
21950.0 4.6041e-06
21970.0 4.6575e-06
21990.0 4.7143e-06
22010.0 4.7689e-06
22030.0 4.8226e-06
22050.0 4.8771e-06
22070.0 4.9303e-06
22090.0 4.9789e-06
22110.0 5.0261e-06
22130.0 5.0708e-06
22150.0 5.11e-06
22170.0 5.144e-06
22190.0 5.1739e-06
22210.0 5.1971e-06
22230.0 5.2127e-06
22250.0 5.2217e-06
22270.0 5.2231e-06
22290.0 5.2167e-06
22310.0 5.2027e-06
22330.0 5.1796e-06
22350.0 5.1484e-06
22370.0 5.1104e-06
22390.0 5.0638e-06
22410.0 5.0078e-06
22430.0 4.9477e-06
22450.0 4.8818e-06
22470.0 4.8076e-06
22490.0 4.7292e-06
22510.0 4.6495e-06
22530.0 4.5629e-06
22550.0 4.4719e-06
22570.0 4.383e-06
22590.0 4.2931e-06
22610.0 4.1999e-06
22630.0 4.1082e-06
