#lamb flux
1010.0 0.0014783
1030.0 0.0019574
1050.0 0.0025339
1070.0 0.0032076
1090.0 0.0039924
1110.0 0.0048187
1130.0 0.0056581
1150.0 0.0065231
1170.0 0.0073835
1190.0 0.0081499
1210.0 0.0088529
1230.0 0.0094877
1250.0 0.0099949
1270.0 0.010358
1290.0 0.010631
1310.0 0.010767
1330.0 0.010747
1350.0 0.010615
1370.0 0.010391
1390.0 0.010062
1410.0 0.0096482
1430.0 0.009202
1450.0 0.0087183
1470.0 0.0082032
1490.0 0.0076886
1510.0 0.0071989
1530.0 0.0067119
1550.0 0.0062463
1570.0 0.0058167
1590.0 0.005417
1610.0 0.0050408
1630.0 0.0047026
1650.0 0.0043993
1670.0 0.0041212
1690.0 0.0038702
1710.0 0.0036492
1730.0 0.0034522
1750.0 0.0032773
1770.0 0.0031254
1790.0 0.0029931
1810.0 0.0028746
1830.0 0.0027701
1850.0 0.0026851
1870.0 0.0026099
1890.0 0.0025444
1910.0 0.002491
1930.0 0.0024496
1950.0 0.0024169
1970.0 0.0023954
1990.0 0.0023883
2010.0 0.0023944
2030.0 0.0024149
2050.0 0.0024549
2070.0 0.0025171
2090.0 0.0026007
2110.0 0.0027119
2130.0 0.0028559
2150.0 0.0030347
2170.0 0.0032512
2190.0 0.0035136
2210.0 0.003825
2230.0 0.0041865
2250.0 0.0046036
2270.0 0.0050833
2290.0 0.0056227
2310.0 0.0062218
2330.0 0.0068875
2350.0 0.0076175
2370.0 0.0084042
2390.0 0.0092481
2410.0 0.010147
2430.0 0.011081
2450.0 0.012037
2470.0 0.013003
2490.0 0.013956
2510.0 0.014881
2530.0 0.015784
2550.0 0.01669
2570.0 0.01766
2590.0 0.018786
2610.0 0.020258
2630.0 0.022266
2650.0 0.02491
2670.0 0.02841
2690.0 0.032975
2710.0 0.038388
2730.0 0.044478
2750.0 0.051427
2770.0 0.058687
2790.0 0.065708
2810.0 0.072461
2830.0 0.078857
2850.0 0.084188
2870.0 0.088756
2890.0 0.09281
2910.0 0.096335
2930.0 0.099373
2950.0 0.10226
2970.0 0.10503
2990.0 0.10759
3010.0 0.11002
3030.0 0.11247
3050.0 0.11483
3070.0 0.11694
3090.0 0.11899
3110.0 0.12089
3130.0 0.12249
3150.0 0.12379
3170.0 0.12488
3190.0 0.12565
3210.0 0.12623
3230.0 0.12678
3250.0 0.12744
3270.0 0.12821
3290.0 0.12914
3310.0 0.13024
3330.0 0.13138
3350.0 0.13246
3370.0 0.13351
3390.0 0.13448
3410.0 0.13525
3430.0 0.1359
3450.0 0.13642
3470.0 0.13992
3490.0 0.13779
3510.0 0.12691
3530.0 0.14115
3550.0 0.16143
3570.0 0.17935
3590.0 0.20312
3610.0 0.21904
3630.0 0.22844
3650.0 0.2061
3670.0 0.18021
3690.0 0.17096
3710.0 0.18475
3730.0 0.2137
3750.0 0.22263
3770.0 0.2244
3790.0 0.22817
3810.0 0.21395
3830.0 0.19249
3850.0 0.17448
3870.0 0.16282
3890.0 0.18037
3910.0 0.19423
3930.0 0.19729
3950.0 0.1981
3970.0 0.20759
3990.0 0.2212
4010.0 0.22346
4030.0 0.21245
4050.0 0.19419
4070.0 0.19181
4090.0 0.20088
4110.0 0.21053
4130.0 0.20461
4150.0 0.19896
4170.0 0.1973
4190.0 0.20614
4210.0 0.2035
4230.0 0.1889
4250.0 0.16944
4270.0 0.15153
4290.0 0.13794
4310.0 0.12856
4330.0 0.12651
4350.0 0.13888
4370.0 0.14266
4390.0 0.14756
4410.0 0.15675
4430.0 0.16149
4450.0 0.157
4470.0 0.15319
4490.0 0.15636
4510.0 0.15931
4530.0 0.16235
4550.0 0.16497
4570.0 0.16541
4590.0 0.17128
4610.0 0.17517
4630.0 0.18124
4650.0 0.18486
4670.0 0.18236
4690.0 0.17079
4710.0 0.15588
4730.0 0.14978
4750.0 0.14845
4770.0 0.14245
4790.0 0.13546
4810.0 0.13205
4830.0 0.13401
4850.0 0.13012
4870.0 0.12931
4890.0 0.12574
4910.0 0.11703
4930.0 0.11889
4950.0 0.11071
4970.0 0.10031
4990.0 0.098175
5010.0 0.09128
5030.0 0.086399
5050.0 0.0864
5070.0 0.093802
5090.0 0.097516
5110.0 0.10795
5130.0 0.11094
5150.0 0.11472
5170.0 0.11781
5190.0 0.11614
5210.0 0.11635
5230.0 0.11827
5250.0 0.11854
5270.0 0.1211
5290.0 0.12056
5310.0 0.11804
5330.0 0.11211
5350.0 0.10596
5370.0 0.099597
5390.0 0.10112
5410.0 0.10279
5430.0 0.10278
5450.0 0.10349
5470.0 0.10273
5490.0 0.10142
5510.0 0.10024
5530.0 0.09843
5550.0 0.09876
5570.0 0.099717
5590.0 0.10098
5610.0 0.099881
5630.0 0.097671
5650.0 0.096767
5670.0 0.094598
5690.0 0.092081
5710.0 0.088967
5730.0 0.087895
5750.0 0.087586
5770.0 0.085823
5790.0 0.08396
5810.0 0.083398
5830.0 0.084834
5850.0 0.086307
5870.0 0.086004
5890.0 0.084876
5910.0 0.084815
5930.0 0.085435
5950.0 0.085032
5970.0 0.084
5990.0 0.083082
6010.0 0.084609
6030.0 0.084568
6050.0 0.082783
6070.0 0.082834
6090.0 0.082647
6110.0 0.08275
6130.0 0.082512
6150.0 0.08008
6170.0 0.074369
6190.0 0.068783
6210.0 0.066433
6230.0 0.065394
6250.0 0.065725
6270.0 0.068024
6290.0 0.06998
6310.0 0.072164
6330.0 0.074209
6350.0 0.075072
6370.0 0.075199
6390.0 0.073287
6410.0 0.071816
6430.0 0.069596
6450.0 0.067977
6470.0 0.067004
6490.0 0.066984
6510.0 0.066915
6530.0 0.066626
6550.0 0.065295
6570.0 0.064328
6590.0 0.063786
6610.0 0.062303
6630.0 0.061509
6650.0 0.060368
6670.0 0.058528
6690.0 0.056757
6710.0 0.05547
6730.0 0.054839
6750.0 0.053927
6770.0 0.053383
6790.0 0.053343
6810.0 0.052501
6830.0 0.051981
6850.0 0.051258
6870.0 0.050018
6890.0 0.049893
6910.0 0.049368
6930.0 0.048478
6950.0 0.048422
6970.0 0.04791
6990.0 0.047826
7010.0 0.047158
7030.0 0.046655
7050.0 0.04635
7070.0 0.045455
7090.0 0.044017
7110.0 0.042979
7130.0 0.043161
7150.0 0.043586
7170.0 0.043823
7190.0 0.044595
7210.0 0.045132
7230.0 0.045657
7250.0 0.046221
7270.0 0.0453
7290.0 0.044986
7310.0 0.044066
7330.0 0.042523
7350.0 0.041729
7370.0 0.040975
7390.0 0.040587
7410.0 0.040762
7430.0 0.040459
7450.0 0.039836
7470.0 0.039086
7490.0 0.037817
7510.0 0.035444
7530.0 0.036608
7550.0 0.036793
7570.0 0.036219
7590.0 0.033592
7610.0 0.034272
7630.0 0.034029
7650.0 0.034323
7670.0 0.034327
7690.0 0.03501
7710.0 0.034513
7730.0 0.035905
7750.0 0.036616
7770.0 0.03827
7790.0 0.03971
7810.0 0.040681
7830.0 0.042159
7850.0 0.042063
7870.0 0.042747
7890.0 0.04223
7910.0 0.040924
7930.0 0.040325
7950.0 0.039899
7970.0 0.039555
7990.0 0.039595
8010.0 0.036084
8030.0 0.035862
8050.0 0.035135
8070.0 0.034797
8090.0 0.033679
8110.0 0.033931
8130.0 0.034469
8150.0 0.035142
8170.0 0.03484
8190.0 0.035461
8210.0 0.035004
8230.0 0.033316
8250.0 0.032831
8270.0 0.032253
8290.0 0.031686
8310.0 0.030413
8330.0 0.030733
8350.0 0.030645
8370.0 0.030729
8390.0 0.031246
8410.0 0.031006
8430.0 0.03133
8450.0 0.031658
8470.0 0.031964
8490.0 0.032376
8510.0 0.031753
8530.0 0.030577
8550.0 0.030813
8570.0 0.030798
8590.0 0.029831
8610.0 0.030453
8630.0 0.030012
8650.0 0.02944
8670.0 0.029237
8690.0 0.029156
8710.0 0.027924
8730.0 0.028381
8750.0 0.027437
8770.0 0.027346
8790.0 0.026562
8810.0 0.026212
8830.0 0.026264
8850.0 0.025193
8870.0 0.023949
8890.0 0.023637
8910.0 0.02232
8930.0 0.02063
8950.0 0.02062
8970.0 0.019865
8990.0 0.019703
9010.0 0.0195
9030.0 0.019361
9050.0 0.019224
9070.0 0.019086
9090.0 0.018947
9110.0 0.018807
9130.0 0.018666
9150.0 0.018527
9170.0 0.018387
9190.0 0.018247
9210.0 0.018106
9230.0 0.017964
9250.0 0.017823
9270.0 0.017681
9290.0 0.01754
9310.0 0.017398
9330.0 0.017257
9350.0 0.017116
9370.0 0.016975
9390.0 0.016835
9410.0 0.016695
9430.0 0.016555
9450.0 0.016415
9470.0 0.016287
9490.0 0.016154
9510.0 0.01601
9530.0 0.015869
9550.0 0.01573
9570.0 0.015593
9590.0 0.015457
9610.0 0.015322
9630.0 0.01519
9650.0 0.015057
9670.0 0.014925
9690.0 0.014795
9710.0 0.014666
9730.0 0.014537
9750.0 0.01441
9770.0 0.014284
9790.0 0.014159
9810.0 0.014035
9830.0 0.01391
9850.0 0.01377
9870.0 0.013645
9890.0 0.013536
9910.0 0.013425
9930.0 0.01329
9950.0 0.013174
9970.0 0.01307
9990.0 0.012963
10010.0 0.012855
10030.0 0.012747
10050.0 0.012639
10070.0 0.012533
10090.0 0.012428
10110.0 0.012322
10130.0 0.012217
10150.0 0.012115
10170.0 0.012014
10190.0 0.011913
10210.0 0.011815
10230.0 0.011719
10250.0 0.011623
10270.0 0.011528
10290.0 0.011436
10310.0 0.011343
10330.0 0.011251
10350.0 0.011162
10370.0 0.011075
10390.0 0.010987
10410.0 0.0109
10430.0 0.010815
10450.0 0.010733
10470.0 0.010651
10490.0 0.010572
10510.0 0.010494
10530.0 0.010414
10550.0 0.010337
10570.0 0.010262
10590.0 0.010187
10610.0 0.010113
10630.0 0.010042
10650.0 0.0099712
10670.0 0.0098998
10690.0 0.0098307
10710.0 0.0097639
10730.0 0.0096967
10750.0 0.0096291
10770.0 0.0095656
10790.0 0.0095026
10810.0 0.009439
10830.0 0.0093775
10850.0 0.0093184
10870.0 0.0092578
10890.0 0.0091985
10910.0 0.0091423
10930.0 0.0090873
10950.0 0.0090327
10970.0 0.0089813
10990.0 0.0089334
11010.0 0.0095108
11030.0 0.0094746
11050.0 0.0094394
11070.0 0.0094029
11090.0 0.0093623
11110.0 0.0093211
11130.0 0.009278
11150.0 0.0092306
11170.0 0.0091805
11190.0 0.0091309
11210.0 0.0090786
11230.0 0.0090239
11250.0 0.0089708
11270.0 0.0089192
11290.0 0.0088663
11310.0 0.008815
11330.0 0.0087691
11350.0 0.0087241
11370.0 0.0086805
11390.0 0.008641
11410.0 0.0086043
11430.0 0.0085669
11450.0 0.0085317
11470.0 0.0084986
11490.0 0.0084648
11510.0 0.008429
11530.0 0.0083945
11550.0 0.0083592
11570.0 0.0083204
11590.0 0.0082806
11610.0 0.008241
11630.0 0.0081981
11650.0 0.0081524
11670.0 0.0081088
11690.0 0.0080648
11710.0 0.0080186
11730.0 0.0079733
11750.0 0.0079309
11770.0 0.0078869
11790.0 0.0078429
11810.0 0.0078017
11830.0 0.0077616
11850.0 0.0077196
11870.0 0.0076804
11890.0 0.0076444
11910.0 0.0076083
11930.0 0.0075735
11950.0 0.007543
11970.0 0.0075147
11990.0 0.0074878
12010.0 0.0074657
12030.0 0.0074485
12050.0 0.0074345
12070.0 0.0074249
12090.0 0.0074215
12110.0 0.0074224
12130.0 0.0074275
12150.0 0.0074373
12170.0 0.007451
12190.0 0.007468
12210.0 0.007488
12230.0 0.00751
12250.0 0.0075336
12270.0 0.0075584
12290.0 0.0075831
12310.0 0.0076073
12330.0 0.0076309
12350.0 0.0076531
12370.0 0.0076732
12390.0 0.0076911
12410.0 0.0077061
12430.0 0.0077178
12450.0 0.007726
12470.0 0.0077297
12490.0 0.0077288
12510.0 0.0077238
12530.0 0.0077131
12550.0 0.0076961
12570.0 0.0076745
12590.0 0.0076478
12610.0 0.0076137
12630.0 0.0075739
12650.0 0.007532
12670.0 0.007484
12690.0 0.0074305
12710.0 0.0073756
12730.0 0.0073185
12750.0 0.0072551
12770.0 0.0071915
12790.0 0.007129
12810.0 0.0070645
12830.0 0.0069982
12850.0 0.0069362
12870.0 0.0068758
12890.0 0.0068146
12910.0 0.0067567
12930.0 0.0067034
12950.0 0.0066504
12970.0 0.0065993
12990.0 0.0065539
13010.0 0.006511
13030.0 0.0064692
13050.0 0.0064307
13070.0 0.0063957
13090.0 0.006361
13110.0 0.0063277
13130.0 0.006297
13150.0 0.0062673
13170.0 0.0062371
13190.0 0.0062089
13210.0 0.0061823
13230.0 0.0061554
13250.0 0.0061287
13270.0 0.0061033
13290.0 0.0060777
13310.0 0.0060509
13330.0 0.0060244
13350.0 0.0059977
13370.0 0.0059692
13390.0 0.0059388
13410.0 0.0059088
13430.0 0.0058767
13450.0 0.0058419
13470.0 0.0058062
13490.0 0.0057697
13510.0 0.0057293
13530.0 0.0056877
13550.0 0.0056461
13570.0 0.0056026
13590.0 0.0055566
13610.0 0.0055109
13630.0 0.0054652
13650.0 0.0054168
13670.0 0.0053679
13690.0 0.0053197
13710.0 0.0052701
13730.0 0.0052178
13750.0 0.0051675
13770.0 0.0051172
13790.0 0.005065
13810.0 0.0050129
13830.0 0.0049627
13850.0 0.004911
13870.0 0.0048587
13890.0 0.0048083
13910.0 0.0047588
13930.0 0.0047082
13950.0 0.0046587
13970.0 0.0046121
13990.0 0.0045651
14010.0 0.0045183
14030.0 0.0044738
14050.0 0.0044303
14070.0 0.0043856
14090.0 0.0043426
14110.0 0.0043012
14130.0 0.0042595
14150.0 0.0042175
14170.0 0.0041774
14190.0 0.0041377
14210.0 0.0040972
14230.0 0.0040576
14250.0 0.0040193
14270.0 0.0039803
14290.0 0.0039414
14310.0 0.0039047
14330.0 0.0038687
14350.0 0.0038327
14370.0 0.0037984
14390.0 0.0037659
14410.0 0.0037336
14430.0 0.0037023
14450.0 0.0036728
14470.0 0.0036442
14490.0 0.0036155
14510.0 0.0035883
14530.0 0.0035622
14550.0 0.0035359
14570.0 0.00351
14590.0 0.003485
14610.0 0.0034599
14630.0 0.0034343
14650.0 0.0034094
14670.0 0.0033848
14690.0 0.0033599
14710.0 0.0033349
14730.0 0.003311
14750.0 0.0032869
14770.0 0.0032627
14790.0 0.0032391
14810.0 0.0032161
14830.0 0.0031925
14850.0 0.0031693
14870.0 0.0031469
14890.0 0.0031245
14910.0 0.0031019
14930.0 0.0030802
14950.0 0.0030593
14970.0 0.0030385
14990.0 0.0030186
15010.0 0.0029999
15030.0 0.0029819
15050.0 0.0029643
15070.0 0.002948
15090.0 0.0029323
15110.0 0.0029166
15130.0 0.0029013
15150.0 0.0028865
15170.0 0.0028716
15190.0 0.0028566
15210.0 0.002842
15230.0 0.0028275
15250.0 0.0028128
15270.0 0.0027982
15290.0 0.0027841
15310.0 0.0027698
15330.0 0.0027555
15350.0 0.0027416
15370.0 0.0027277
15390.0 0.0027136
15410.0 0.0026998
15430.0 0.0026863
15450.0 0.0026727
15470.0 0.0026591
15490.0 0.0026458
15510.0 0.0026327
15530.0 0.0026194
15550.0 0.0026064
15570.0 0.0025936
15590.0 0.0025806
15610.0 0.0025677
15630.0 0.0025552
15650.0 0.0025428
15670.0 0.0025302
15690.0 0.002518
15710.0 0.002506
15730.0 0.0024938
15750.0 0.0024817
15770.0 0.00247
15790.0 0.0024583
15810.0 0.0024464
15830.0 0.0024349
15850.0 0.0024237
15870.0 0.0024123
15890.0 0.0024011
15910.0 0.0023901
15930.0 0.0023792
15950.0 0.0023682
15970.0 0.0023574
15990.0 0.0023469
16010.0 0.0023363
16030.0 0.0023257
16050.0 0.0023156
16070.0 0.0023054
16090.0 0.0022952
16110.0 0.0022853
16130.0 0.0022756
16150.0 0.0022656
16170.0 0.0022558
16190.0 0.0022464
16210.0 0.0022369
16230.0 0.0022274
16250.0 0.0022183
16270.0 0.0022093
16290.0 0.0022001
16310.0 0.0021911
16330.0 0.0021824
16350.0 0.0021737
16370.0 0.0021647
16390.0 0.0021563
16410.0 0.002148
16430.0 0.0021395
16450.0 0.0021312
16470.0 0.0021232
16490.0 0.0021151
16510.0 0.002107
16530.0 0.0020992
16550.0 0.0020915
16570.0 0.0020836
16590.0 0.0020759
16610.0 0.0020686
16630.0 0.0020611
16650.0 0.0020537
16670.0 0.0020465
16690.0 0.0020394
16710.0 0.0020321
16730.0 0.0020251
16750.0 0.0020183
16770.0 0.0020114
16790.0 0.0020045
16810.0 0.0019979
16830.0 0.0019913
16850.0 0.0019847
16870.0 0.0019782
16890.0 0.0019719
16910.0 0.0019655
16930.0 0.0019591
16950.0 0.001953
16970.0 0.0019469
16990.0 0.0019408
17010.0 0.0019348
17030.0 0.001929
17050.0 0.0019231
17070.0 0.0019172
17090.0 0.0019115
17110.0 0.0019059
17130.0 0.0019001
17150.0 0.0018945
17170.0 0.0018891
17190.0 0.0018836
17210.0 0.0018782
17230.0 0.001873
17250.0 0.0018677
17270.0 0.0018622
17290.0 0.0018571
17310.0 0.001852
17330.0 0.0018468
17350.0 0.0018416
17370.0 0.0018368
17390.0 0.0018318
17410.0 0.0018268
17430.0 0.0018219
17450.0 0.0018172
17470.0 0.0018122
17490.0 0.0018073
17510.0 0.0018027
17530.0 0.001798
17550.0 0.0017932
17570.0 0.0017886
17590.0 0.0017841
17610.0 0.0017794
17630.0 0.0017748
17650.0 0.0017703
17670.0 0.0017658
17690.0 0.0017611
17710.0 0.0017567
17730.0 0.0017523
17750.0 0.0017478
17770.0 0.0017434
17790.0 0.0017392
17810.0 0.0017347
17830.0 0.0017302
17850.0 0.0017259
17870.0 0.0017216
17890.0 0.0017171
17910.0 0.0017128
17930.0 0.0017086
17950.0 0.0017043
17970.0 0.0016999
17990.0 0.0016957
18010.0 0.0016915
18030.0 0.001687
18050.0 0.0016827
18070.0 0.0016785
18090.0 0.0016742
18110.0 0.0016698
18130.0 0.0016656
18150.0 0.0016614
18170.0 0.001657
18190.0 0.0016527
18210.0 0.0016485
18230.0 0.0016441
18250.0 0.0016396
18270.0 0.0016354
18290.0 0.0016311
18310.0 0.0016266
18330.0 0.0016222
18350.0 0.001618
18370.0 0.0016135
18390.0 0.001609
18410.0 0.0016047
18430.0 0.0016002
18450.0 0.0015955
18470.0 0.0015911
18490.0 0.0015867
18510.0 0.0015821
18530.0 0.0015775
18550.0 0.0015731
18570.0 0.0015684
18590.0 0.0015636
18610.0 0.001559
18630.0 0.0015544
18650.0 0.0015496
18670.0 0.0015447
18690.0 0.0015401
18710.0 0.0015353
18730.0 0.0015304
18750.0 0.0015256
18770.0 0.0015209
18790.0 0.0015157
18810.0 0.0015107
18830.0 0.0015058
18850.0 0.0015008
18870.0 0.0014956
18890.0 0.0014906
18910.0 0.0014855
18930.0 0.0014802
18950.0 0.001475
18970.0 0.0014699
18990.0 0.0014646
19010.0 0.001459
19030.0 0.0014537
19050.0 0.0014484
19070.0 0.0014429
19090.0 0.0014374
19110.0 0.0014321
19130.0 0.0014264
19150.0 0.0014206
19170.0 0.0014151
19190.0 0.0014095
19210.0 0.0014035
19230.0 0.0013977
19250.0 0.0013921
19270.0 0.0013862
19290.0 0.0013802
19310.0 0.0013744
19330.0 0.0013684
19350.0 0.0013622
19370.0 0.0013561
19390.0 0.0013501
19410.0 0.0013439
19430.0 0.0013375
19450.0 0.0013314
19470.0 0.0013252
19490.0 0.0013187
19510.0 0.0013123
19530.0 0.0013061
19550.0 0.0012994
19570.0 0.0012928
19590.0 0.0012864
19610.0 0.0012798
19630.0 0.001273
19650.0 0.0012664
19670.0 0.0012598
19690.0 0.0012529
19710.0 0.001246
19730.0 0.0012393
19750.0 0.0012324
19770.0 0.0012253
19790.0 0.0012183
19810.0 0.0012115
19830.0 0.0012043
19850.0 0.0011972
19870.0 0.0011903
19890.0 0.0011831
19910.0 0.0011758
19930.0 0.0011688
19950.0 0.0011618
19970.0 0.0011548
19990.0 0.0011479
20010.0 0.0011415
20030.0 0.001135
20050.0 0.0011286
20070.0 0.0011225
20090.0 0.0011166
20110.0 0.0011104
20130.0 0.0011044
20150.0 0.0010986
20170.0 0.0010926
20190.0 0.0010866
20210.0 0.0010808
20230.0 0.0010749
20250.0 0.0010689
20270.0 0.0010631
20290.0 0.0010574
20310.0 0.0010516
20330.0 0.0010458
20350.0 0.0010403
20370.0 0.0010349
20390.0 0.0010294
20410.0 0.0010242
20430.0 0.0010192
20450.0 0.0010141
20470.0 0.0010092
20490.0 0.0010046
20510.0 0.0010002
20530.0 0.0009958
20550.0 0.00099171
20570.0 0.00098787
20590.0 0.0009842
20610.0 0.00098077
20630.0 0.0009776
20650.0 0.00097466
20670.0 0.00097194
20690.0 0.00096945
20710.0 0.00096715
20730.0 0.00096502
20750.0 0.00096303
20770.0 0.00096108
20790.0 0.00095918
20810.0 0.00095729
20830.0 0.0009553
20850.0 0.00095317
20870.0 0.0009509
20890.0 0.00094837
20910.0 0.00094554
20930.0 0.0009424
20950.0 0.00093889
20970.0 0.00093502
20990.0 0.00093077
21010.0 0.00092605
21030.0 0.00092094
21050.0 0.00091549
21070.0 0.00090963
21090.0 0.0009033
21110.0 0.00089679
21130.0 0.00089004
21150.0 0.00088292
21170.0 0.00087562
21190.0 0.0008683
21210.0 0.00086072
21230.0 0.00085294
21250.0 0.00084529
21270.0 0.00083762
21290.0 0.00082979
21310.0 0.000822
21330.0 0.00081441
21350.0 0.00080668
21370.0 0.00079888
21390.0 0.00079123
21410.0 0.00078358
21430.0 0.00077565
21450.0 0.00076782
21470.0 0.00076008
21490.0 0.00075215
21510.0 0.00074409
21530.0 0.00073615
21550.0 0.00072811
21570.0 0.00071982
21590.0 0.00071159
21610.0 0.00070343
21630.0 0.0006951
21650.0 0.0006866
21670.0 0.00067844
21690.0 0.00067023
21710.0 0.00066191
21730.0 0.00065376
21750.0 0.00064582
21770.0 0.00063768
21790.0 0.00062968
21810.0 0.00062195
21830.0 0.00061428
21850.0 0.00060657
21870.0 0.00059909
21890.0 0.00059186
21910.0 0.00058456
21930.0 0.00057737
21950.0 0.0005704
21970.0 0.00056346
21990.0 0.00055642
22010.0 0.00054962
22030.0 0.00054291
22050.0 0.00053613
22070.0 0.00052937
22090.0 0.0005228
22110.0 0.00051615
22130.0 0.00050941
22150.0 0.00050278
22170.0 0.00049621
22190.0 0.00048946
22210.0 0.00048273
22230.0 0.0004762
22250.0 0.00046958
22270.0 0.00046289
22290.0 0.00045635
22310.0 0.00044989
22330.0 0.00044328
22350.0 0.00043678
22370.0 0.00043046
22390.0 0.00042413
22410.0 0.00041776
22430.0 0.00041167
22450.0 0.0004057
22470.0 0.00039971
22490.0 0.00039389
22510.0 0.00038831
22530.0 0.00038273
22550.0 0.00037723
22570.0 0.00037202
22590.0 0.00036694
22610.0 0.00036191
22630.0 0.00035706
22650.0 0.00035245
22670.0 0.00034787
22690.0 0.0003434
22710.0 0.00033912
22730.0 0.00033495
22750.0 0.00033078
22770.0 0.0003268
22790.0 0.00032297
22810.0 0.0003192
22830.0 0.00031551
22850.0 0.00031201
22870.0 0.0003086
22890.0 0.00030525
22910.0 0.00030208
22930.0 0.00029906
22950.0 0.00029614
22970.0 0.00029335
22990.0 0.00029077
23010.0 0.00028833
23030.0 0.00028603
23050.0 0.00028391
23070.0 0.00028197
23090.0 0.00028017
23110.0 0.00027855
23130.0 0.00027711
23150.0 0.00027582
23170.0 0.00027471
23190.0 0.00027374
23210.0 0.0002729
23230.0 0.00027222
23250.0 0.00027165
23270.0 0.00027114
23290.0 0.00027073
23310.0 0.00027042
23330.0 0.0002701
23350.0 0.00026977
23370.0 0.00026946
23390.0 0.00026911
23410.0 0.00026869
23430.0 0.00026819
23450.0 0.00026872
23470.0 0.00026942
23490.0 0.0002701
23510.0 0.00027077
23530.0 0.00027145
23550.0 0.00027213
23570.0 0.00027284
23590.0 0.00027358
23610.0 0.00027438
23630.0 0.00027523
23650.0 0.00027617
23670.0 0.0002772
23690.0 0.00027831
23710.0 0.00027953
23730.0 0.00028086
23750.0 0.00028226
23770.0 0.00028375
23790.0 0.00028537
23810.0 0.00028707
23830.0 0.00028885
23850.0 0.00029077
23870.0 0.00029284
23890.0 0.00029498
23910.0 0.00029726
23930.0 0.00029973
23950.0 0.00030231
23970.0 0.00030497
23990.0 0.00030782
24010.0 0.00031078
24030.0 0.00031376
24050.0 0.00031678
24070.0 0.00031991
24090.0 0.00032294
24110.0 0.00032589
24130.0 0.00032881
24150.0 0.00033166
24170.0 0.00033436
24190.0 0.000337
24210.0 0.00033959
24230.0 0.0003421
