#lamb flux
1010.0 2.5959e-06
1030.0 2.6066e-06
1050.0 2.6184e-06
1070.0 2.6798e-06
1090.0 2.8486e-06
1110.0 2.9797e-06
1130.0 3.0733e-06
1150.0 3.1483e-06
1170.0 3.2031e-06
1190.0 3.2191e-06
1210.0 3.2228e-06
1230.0 3.2217e-06
1250.0 3.208e-06
1270.0 3.1835e-06
1290.0 3.1675e-06
1310.0 3.1504e-06
1330.0 3.1281e-06
1350.0 3.1127e-06
1370.0 3.1091e-06
1390.0 3.1107e-06
1410.0 3.1205e-06
1430.0 3.1508e-06
1450.0 3.1983e-06
1470.0 3.2617e-06
1490.0 3.35e-06
1510.0 3.4718e-06
1530.0 3.6174e-06
1550.0 3.7956e-06
1570.0 4.017e-06
1590.0 4.2824e-06
1610.0 4.5915e-06
1630.0 4.9621e-06
1650.0 5.3991e-06
1670.0 5.9008e-06
1690.0 6.4773e-06
1710.0 7.1461e-06
1730.0 7.9115e-06
1750.0 8.7674e-06
1770.0 9.7405e-06
1790.0 1.0839e-05
1810.0 1.2058e-05
1830.0 1.3404e-05
1850.0 1.4908e-05
1870.0 1.6546e-05
1890.0 1.8312e-05
1910.0 2.0224e-05
1930.0 2.2279e-05
1950.0 2.4436e-05
1970.0 2.6693e-05
1990.0 2.906e-05
2010.0 3.1488e-05
2030.0 3.3939e-05
2050.0 3.6427e-05
2070.0 3.8925e-05
2090.0 4.1346e-05
2110.0 4.3698e-05
2130.0 4.5979e-05
2150.0 4.8126e-05
2170.0 5.0098e-05
2190.0 5.1937e-05
2210.0 5.3607e-05
2230.0 5.5057e-05
2250.0 5.631e-05
2270.0 5.7406e-05
2290.0 5.8284e-05
2310.0 5.894e-05
2330.0 5.9448e-05
2350.0 5.9799e-05
2370.0 5.9971e-05
2390.0 6.0027e-05
2410.0 6.0024e-05
2430.0 5.9925e-05
2450.0 5.9768e-05
2470.0 5.9631e-05
2490.0 5.9548e-05
2510.0 5.9492e-05
2530.0 5.9637e-05
2550.0 6.0194e-05
2570.0 6.1329e-05
2590.0 6.3275e-05
2610.0 6.6702e-05
2630.0 7.1723e-05
2650.0 7.8059e-05
2670.0 8.5912e-05
2690.0 9.5188e-05
2710.0 0.00010483
2730.0 0.00011442
2750.0 0.00012451
2770.0 0.00013442
2790.0 0.00014392
2810.0 0.00015364
2830.0 0.00016414
2850.0 0.00017438
2870.0 0.0001849
2890.0 0.00019623
2910.0 0.00020798
2930.0 0.00021971
2950.0 0.0002323
2970.0 0.00024566
2990.0 0.00025916
3010.0 0.0002731
3030.0 0.00028802
3050.0 0.00030341
3070.0 0.00031841
3090.0 0.00033372
3110.0 0.00034858
3130.0 0.00036188
3150.0 0.00037326
3170.0 0.00038233
3190.0 0.00038868
3210.0 0.00039322
3230.0 0.00039701
3250.0 0.00040146
3270.0 0.00040823
3290.0 0.00041823
3310.0 0.00043229
3330.0 0.00045
3350.0 0.00047022
3370.0 0.0004926
3390.0 0.00051559
3410.0 0.00053899
3430.0 0.00058633
3450.0 0.00062135
3470.0 0.00065228
3490.0 0.00066226
3510.0 0.00065359
3530.0 0.00074058
3550.0 0.000881
3570.0 0.0009686
3590.0 0.0010351
3610.0 0.0010438
3630.0 0.00099009
3650.0 0.0010641
3670.0 0.0012728
3690.0 0.0014303
3710.0 0.0014934
3730.0 0.0015287
3750.0 0.0016083
3770.0 0.001612
3790.0 0.001545
3810.0 0.0014541
3830.0 0.0013563
3850.0 0.0013526
3870.0 0.0014352
3890.0 0.0015162
3910.0 0.0015789
3930.0 0.0015979
3950.0 0.0017052
3970.0 0.0018217
3990.0 0.001755
4010.0 0.0015676
4030.0 0.0013923
4050.0 0.0013402
4070.0 0.0013952
4090.0 0.0014065
4110.0 0.001367
4130.0 0.0013498
4150.0 0.0013856
4170.0 0.0015295
4190.0 0.0016563
4210.0 0.0016044
4230.0 0.0014976
4250.0 0.00144
4270.0 0.0014073
4290.0 0.0014323
4310.0 0.0014752
4330.0 0.0014049
4350.0 0.0012358
4370.0 0.001094
4390.0 0.00099666
4410.0 0.00092004
4430.0 0.00092039
4450.0 0.0010011
4470.0 0.0010826
4490.0 0.0011781
4510.0 0.0013328
4530.0 0.0016305
4550.0 0.0019679
4570.0 0.0021705
4590.0 0.0023211
4610.0 0.0024958
4630.0 0.0025803
4650.0 0.0024036
4670.0 0.0020165
4690.0 0.0017139
4710.0 0.00161
4730.0 0.0015563
4750.0 0.0013946
4770.0 0.0012655
4790.0 0.0013142
4810.0 0.0014282
4830.0 0.0014221
4850.0 0.0013109
4870.0 0.0012841
4890.0 0.0013396
4910.0 0.0014015
4930.0 0.0013999
4950.0 0.0013611
4970.0 0.0012965
4990.0 0.0011917
5010.0 0.0010945
5030.0 0.0010393
5050.0 0.0010138
5070.0 0.00099655
5090.0 0.00098058
5110.0 0.00097914
5130.0 0.00099421
5150.0 0.0010501
5170.0 0.0011596
5190.0 0.0012926
5210.0 0.0014319
5230.0 0.0015167
5250.0 0.0015607
5270.0 0.0016404
5290.0 0.0017179
5310.0 0.0017362
5330.0 0.001671
5350.0 0.0015954
5370.0 0.0015951
5390.0 0.0016808
5410.0 0.0017635
5430.0 0.0017918
5450.0 0.001781
5470.0 0.0017287
5490.0 0.0016645
5510.0 0.0016318
5530.0 0.0016384
5550.0 0.0016624
5570.0 0.0016782
5590.0 0.001628
5610.0 0.0015347
5630.0 0.0014432
5650.0 0.0013712
5670.0 0.0013271
5690.0 0.001273
5710.0 0.0012316
5730.0 0.0012493
5750.0 0.0012463
5770.0 0.0012199
5790.0 0.0012303
5810.0 0.0012583
5830.0 0.0012845
5850.0 0.0012936
5870.0 0.0012664
5890.0 0.0012119
5910.0 0.0011496
5930.0 0.0010613
5950.0 0.00099807
5970.0 0.00099631
5990.0 0.0010273
6010.0 0.0010386
6030.0 0.0010019
6050.0 0.00098683
6070.0 0.0010249
6090.0 0.0010757
6110.0 0.0010946
6130.0 0.0010572
6150.0 0.00099555
6170.0 0.00095503
6190.0 0.00091494
6210.0 0.00087209
6230.0 0.0008395
6250.0 0.0008295
6270.0 0.00085095
6290.0 0.00088947
6310.0 0.00093899
6330.0 0.00099332
6350.0 0.0010384
6370.0 0.0010586
6390.0 0.0010608
6410.0 0.0010719
6430.0 0.001085
6450.0 0.0010887
6470.0 0.0011026
6490.0 0.0011195
6510.0 0.0011242
6530.0 0.0011121
6550.0 0.0010807
6570.0 0.001041
6590.0 0.0010106
6610.0 0.00098816
6630.0 0.00096846
6650.0 0.00093515
6670.0 0.00089564
6690.0 0.00086608
6710.0 0.00084776
6730.0 0.00084212
6750.0 0.00083179
6770.0 0.0008151
6790.0 0.00080245
6810.0 0.00079234
6830.0 0.00079026
6850.0 0.00079087
6870.0 0.00078475
6890.0 0.00077983
6910.0 0.0007635
6930.0 0.00074567
6950.0 0.00074154
6970.0 0.00072903
6990.0 0.0007063
7010.0 0.00069548
7030.0 0.00068676
7050.0 0.0006713
7070.0 0.00065298
7090.0 0.00063995
7110.0 0.00064667
7130.0 0.00067185
7150.0 0.00070059
7170.0 0.00071913
7190.0 0.00071373
7210.0 0.00069989
7230.0 0.00069081
7250.0 0.00068166
7270.0 0.00067576
7290.0 0.00066704
7310.0 0.00066275
7330.0 0.00067425
7350.0 0.00068746
7370.0 0.00069448
7390.0 0.00068767
7410.0 0.00067086
7430.0 0.00066271
7450.0 0.00065526
7470.0 0.00062337
7490.0 0.00060014
7510.0 0.00057495
7530.0 0.00055644
7550.0 0.00055403
7570.0 0.00056052
7590.0 0.00055717
7610.0 0.0005516
7630.0 0.00054921
7650.0 0.00054691
7670.0 0.00055728
7690.0 0.00057749
7710.0 0.00060143
7730.0 0.00061963
7750.0 0.00063741
7770.0 0.00064621
7790.0 0.00064453
7810.0 0.00063469
7830.0 0.00064137
7850.0 0.00064037
7870.0 0.00061954
7890.0 0.00059719
7910.0 0.00057815
7930.0 0.00055885
7950.0 0.00054534
7970.0 0.00054321
7990.0 0.0005499
8010.0 0.00054381
8030.0 0.00053744
8050.0 0.00052818
8070.0 0.00051799
8090.0 0.00050738
8110.0 0.00050795
8130.0 0.00051179
8150.0 0.00051085
8170.0 0.00050704
8190.0 0.00049644
8210.0 0.00047125
8230.0 0.00043935
8250.0 0.00041968
8270.0 0.00040716
8290.0 0.00039927
8310.0 0.00040035
8330.0 0.00040666
8350.0 0.00039782
8370.0 0.00038851
8390.0 0.00039549
8410.0 0.00041345
8430.0 0.0004398
8450.0 0.00046534
8470.0 0.00047564
8490.0 0.00048368
8510.0 0.00048581
8530.0 0.00048841
8550.0 0.00049404
8570.0 0.00049653
8590.0 0.00049888
8610.0 0.00051256
8630.0 0.00051802
8650.0 0.00050708
8670.0 0.00050671
8690.0 0.00051053
8710.0 0.00050962
8730.0 0.00050521
8750.0 0.00049089
8770.0 0.00048447
8790.0 0.00048078
8810.0 0.00047493
8830.0 0.00044811
8850.0 0.00041228
8870.0 0.00038606
8890.0 0.0003712
8910.0 0.00034927
8930.0 0.00032512
8950.0 0.00031283
8970.0 0.00031115
8990.0 0.00031274
9010.0 0.00031119
9030.0 0.00030899
9050.0 0.00030697
9070.0 0.00030509
9090.0 0.00030324
9110.0 0.0003014
9130.0 0.00029956
9150.0 0.00029774
9170.0 0.00029592
9190.0 0.00029409
9210.0 0.00029227
9230.0 0.00029047
9250.0 0.00028869
9270.0 0.0002869
9290.0 0.00028512
9310.0 0.00028335
9330.0 0.00028159
9350.0 0.00027983
9370.0 0.00027808
9390.0 0.00027634
9410.0 0.00027461
9430.0 0.00027287
9450.0 0.00027108
9470.0 0.00026934
9490.0 0.00026771
9510.0 0.00026604
9530.0 0.00026439
9550.0 0.00026272
9570.0 0.00026106
9590.0 0.00025941
9610.0 0.00025776
9630.0 0.00025613
9650.0 0.00025449
9670.0 0.00025288
9690.0 0.00025127
9710.0 0.00024966
9730.0 0.00024808
9750.0 0.00024649
9770.0 0.00024491
9790.0 0.00024334
9810.0 0.00024178
9830.0 0.00024019
9850.0 0.00023844
9870.0 0.00023695
9890.0 0.00023549
9910.0 0.00023401
9930.0 0.0002325
9950.0 0.00023104
9970.0 0.00022954
9990.0 0.00022801
10010.0 0.00022631
10030.0 0.00022474
10050.0 0.00022338
10070.0 0.000222
10090.0 0.0002206
10110.0 0.0002191
10130.0 0.00021729
10150.0 0.00021592
10170.0 0.00021461
10190.0 0.00021321
10210.0 0.00021184
10230.0 0.00021047
10250.0 0.00020903
10270.0 0.0002076
10290.0 0.00020621
10310.0 0.00020478
10330.0 0.00020331
10350.0 0.0002019
10370.0 0.0002005
10390.0 0.00019905
10410.0 0.00019762
10430.0 0.00019625
10450.0 0.00019482
10470.0 0.00019338
10490.0 0.00019198
10510.0 0.00019059
10530.0 0.00018912
10550.0 0.00018769
10570.0 0.00018631
10590.0 0.00018489
10610.0 0.00018344
10630.0 0.00018205
10650.0 0.00018065
10670.0 0.00017919
10690.0 0.00017775
10710.0 0.00017636
10730.0 0.00017492
10750.0 0.00017343
10770.0 0.00017203
10790.0 0.00017061
10810.0 0.00016914
10830.0 0.0001677
10850.0 0.00016631
10870.0 0.00016483
10890.0 0.00016335
10910.0 0.00016194
10930.0 0.00016053
10950.0 0.00015908
10970.0 0.0001577
10990.0 0.00015639
11010.0 0.0001595
11030.0 0.0001583
11050.0 0.00015716
11070.0 0.00015602
11090.0 0.0001548
11110.0 0.00015363
11130.0 0.00015246
11150.0 0.00015125
11170.0 0.00015004
11190.0 0.0001489
11210.0 0.00014775
11230.0 0.0001466
11250.0 0.00014553
11270.0 0.00014451
11290.0 0.0001435
11310.0 0.00014255
11330.0 0.00014168
11350.0 0.00014084
11370.0 0.00014003
11390.0 0.00013926
11410.0 0.00013853
11430.0 0.00013778
11450.0 0.00013704
11470.0 0.00013632
11490.0 0.00013556
11510.0 0.00013475
11530.0 0.00013394
11550.0 0.0001331
11570.0 0.00013217
11590.0 0.0001312
11610.0 0.0001302
11630.0 0.00012911
11650.0 0.00012794
11670.0 0.00012676
11690.0 0.00012554
11710.0 0.00012424
11730.0 0.00012292
11750.0 0.00012162
11770.0 0.00012026
11790.0 0.00011887
11810.0 0.00011753
11830.0 0.00011619
11850.0 0.00011479
11870.0 0.00011345
11890.0 0.00011217
11910.0 0.00011088
11930.0 0.0001096
11950.0 0.0001084
11970.0 0.00010722
11990.0 0.00010604
12010.0 0.00010493
12030.0 0.00010388
12050.0 0.00010285
12070.0 0.00010184
12090.0 0.00010094
12110.0 0.00010008
12130.0 9.9256e-05
12150.0 9.8506e-05
12170.0 9.7833e-05
12190.0 9.7196e-05
12210.0 9.6637e-05
12230.0 9.6166e-05
12250.0 9.5765e-05
12270.0 9.5436e-05
12290.0 9.5189e-05
12310.0 9.5013e-05
12330.0 9.4904e-05
12350.0 9.4858e-05
12370.0 9.4861e-05
12390.0 9.4908e-05
12410.0 9.5002e-05
12430.0 9.5104e-05
12450.0 9.5211e-05
12470.0 9.5325e-05
12490.0 9.5422e-05
12510.0 9.5481e-05
12530.0 9.5509e-05
12550.0 9.5489e-05
12570.0 9.5404e-05
12590.0 9.5253e-05
12610.0 9.5024e-05
12630.0 9.471e-05
12650.0 9.4323e-05
12670.0 9.3848e-05
12690.0 9.3282e-05
12710.0 9.2652e-05
12730.0 9.196e-05
12750.0 9.1171e-05
12770.0 9.0338e-05
12790.0 8.948e-05
12810.0 8.8571e-05
12830.0 8.7613e-05
12850.0 8.6675e-05
12870.0 8.5731e-05
12890.0 8.4754e-05
12910.0 8.379e-05
12930.0 8.2858e-05
12950.0 8.1904e-05
12970.0 8.0945e-05
12990.0 8.0038e-05
13010.0 7.9141e-05
13030.0 7.8233e-05
13050.0 7.7353e-05
13070.0 7.6516e-05
13090.0 7.5669e-05
13110.0 7.4837e-05
13130.0 7.4052e-05
13150.0 7.3292e-05
13170.0 7.253e-05
13190.0 7.1823e-05
13210.0 7.1166e-05
13230.0 7.0526e-05
13250.0 6.9916e-05
13270.0 6.9359e-05
13290.0 6.8825e-05
13310.0 6.8302e-05
13330.0 6.7815e-05
13350.0 6.7353e-05
13370.0 6.6893e-05
13390.0 6.6435e-05
13410.0 6.6002e-05
13430.0 6.5562e-05
13450.0 6.511e-05
13470.0 6.466e-05
13490.0 6.4214e-05
13510.0 6.3736e-05
13530.0 6.3253e-05
13550.0 6.2777e-05
13570.0 6.2287e-05
13590.0 6.1779e-05
13610.0 6.1278e-05
13630.0 6.0784e-05
13650.0 6.0269e-05
13670.0 5.9755e-05
13690.0 5.9255e-05
13710.0 5.8749e-05
13730.0 5.8221e-05
13750.0 5.7719e-05
13770.0 5.7221e-05
13790.0 5.6707e-05
13810.0 5.6194e-05
13830.0 5.57e-05
13850.0 5.5188e-05
13870.0 5.4665e-05
13890.0 5.4154e-05
13910.0 5.3645e-05
13930.0 5.3113e-05
13950.0 5.2581e-05
13970.0 5.2071e-05
13990.0 5.1544e-05
14010.0 5.1005e-05
14030.0 5.0481e-05
14050.0 4.996e-05
14070.0 4.9409e-05
14090.0 4.8872e-05
14110.0 4.8352e-05
14130.0 4.7824e-05
14150.0 4.729e-05
14170.0 4.679e-05
14190.0 4.6303e-05
14210.0 4.5813e-05
14230.0 4.535e-05
14250.0 4.4919e-05
14270.0 4.4493e-05
14290.0 4.4084e-05
14310.0 4.3718e-05
14330.0 4.3373e-05
14350.0 4.3041e-05
14370.0 4.2737e-05
14390.0 4.2462e-05
14410.0 4.2193e-05
14430.0 4.1939e-05
14450.0 4.1708e-05
14470.0 4.1488e-05
14490.0 4.1267e-05
14510.0 4.1064e-05
14530.0 4.0873e-05
14550.0 4.0681e-05
14570.0 4.0493e-05
14590.0 4.0318e-05
14610.0 4.0143e-05
14630.0 3.9965e-05
14650.0 3.9797e-05
14670.0 3.9639e-05
14690.0 3.9482e-05
14710.0 3.9333e-05
14730.0 3.9207e-05
14750.0 3.9094e-05
14770.0 3.8998e-05
14790.0 3.8931e-05
14810.0 3.8895e-05
14830.0 3.889e-05
14850.0 3.8927e-05
14870.0 3.9003e-05
14890.0 3.9118e-05
14910.0 3.9274e-05
14930.0 3.9453e-05
14950.0 3.9645e-05
14970.0 3.9846e-05
14990.0 4.0034e-05
15010.0 4.0194e-05
15030.0 4.0328e-05
15050.0 4.0432e-05
15070.0 4.0505e-05
15090.0 4.0558e-05
15110.0 4.0596e-05
15130.0 4.0624e-05
15150.0 4.065e-05
15170.0 4.0673e-05
15190.0 4.0695e-05
15210.0 4.072e-05
15230.0 4.0745e-05
15250.0 4.077e-05
15270.0 4.0797e-05
15290.0 4.0827e-05
15310.0 4.0857e-05
15330.0 4.0888e-05
15350.0 4.0921e-05
15370.0 4.0956e-05
15390.0 4.099e-05
15410.0 4.1026e-05
15430.0 4.1065e-05
15450.0 4.1103e-05
15470.0 4.1142e-05
15490.0 4.1184e-05
15510.0 4.1227e-05
15530.0 4.127e-05
15550.0 4.1314e-05
15570.0 4.1361e-05
15590.0 4.1407e-05
15610.0 4.1453e-05
15630.0 4.1503e-05
15650.0 4.1554e-05
15670.0 4.1604e-05
15690.0 4.1655e-05
15710.0 4.171e-05
15730.0 4.1763e-05
15750.0 4.1817e-05
15770.0 4.1873e-05
15790.0 4.193e-05
15810.0 4.1986e-05
15830.0 4.2044e-05
15850.0 4.2105e-05
15870.0 4.2164e-05
15890.0 4.2224e-05
15910.0 4.2287e-05
15930.0 4.2349e-05
15950.0 4.2411e-05
15970.0 4.2475e-05
15990.0 4.254e-05
16010.0 4.2604e-05
16030.0 4.2668e-05
16050.0 4.2736e-05
16070.0 4.2803e-05
16090.0 4.2869e-05
16110.0 4.2937e-05
16130.0 4.3007e-05
16150.0 4.3074e-05
16170.0 4.3143e-05
16190.0 4.3213e-05
16210.0 4.3283e-05
16230.0 4.3353e-05
16250.0 4.3424e-05
16270.0 4.3496e-05
16290.0 4.3567e-05
16310.0 4.3638e-05
16330.0 4.3711e-05
16350.0 4.3783e-05
16370.0 4.3853e-05
16390.0 4.3926e-05
16410.0 4.4e-05
16430.0 4.4071e-05
16450.0 4.4144e-05
16470.0 4.4218e-05
16490.0 4.429e-05
16510.0 4.4362e-05
16530.0 4.4435e-05
16550.0 4.4508e-05
16570.0 4.4579e-05
16590.0 4.4651e-05
16610.0 4.4725e-05
16630.0 4.4796e-05
16650.0 4.4867e-05
16670.0 4.4939e-05
16690.0 4.5011e-05
16710.0 4.508e-05
16730.0 4.515e-05
16750.0 4.5221e-05
16770.0 4.529e-05
16790.0 4.5358e-05
16810.0 4.5428e-05
16830.0 4.5497e-05
16850.0 4.5563e-05
16870.0 4.563e-05
16890.0 4.5697e-05
16910.0 4.5762e-05
16930.0 4.5825e-05
16950.0 4.5891e-05
16970.0 4.5955e-05
16990.0 4.6016e-05
17010.0 4.6078e-05
17030.0 4.6141e-05
17050.0 4.62e-05
17070.0 4.6258e-05
17090.0 4.6317e-05
17110.0 4.6375e-05
17130.0 4.6429e-05
17150.0 4.6484e-05
17170.0 4.654e-05
17190.0 4.6592e-05
17210.0 4.6644e-05
17230.0 4.6696e-05
17250.0 4.6745e-05
17270.0 4.6792e-05
17290.0 4.6839e-05
17310.0 4.6886e-05
17330.0 4.6929e-05
17350.0 4.6971e-05
17370.0 4.7015e-05
17390.0 4.7055e-05
17410.0 4.7093e-05
17430.0 4.7131e-05
17450.0 4.7168e-05
17470.0 4.72e-05
17490.0 4.7232e-05
17510.0 4.7265e-05
17530.0 4.7294e-05
17550.0 4.732e-05
17570.0 4.7348e-05
17590.0 4.7374e-05
17610.0 4.7395e-05
17630.0 4.7416e-05
17650.0 4.7436e-05
17670.0 4.7454e-05
17690.0 4.7467e-05
17710.0 4.7482e-05
17730.0 4.7495e-05
17750.0 4.7504e-05
17770.0 4.7512e-05
17790.0 4.752e-05
17810.0 4.7523e-05
17830.0 4.7524e-05
17850.0 4.7525e-05
17870.0 4.7525e-05
17890.0 4.7519e-05
17910.0 4.7513e-05
17930.0 4.7507e-05
17950.0 4.7496e-05
17970.0 4.7483e-05
17990.0 4.747e-05
18010.0 4.7455e-05
18030.0 4.7434e-05
18050.0 4.7413e-05
18070.0 4.7392e-05
18090.0 4.7366e-05
18110.0 4.7337e-05
18130.0 4.7309e-05
18150.0 4.7278e-05
18170.0 4.7243e-05
18190.0 4.7207e-05
18210.0 4.717e-05
18230.0 4.7128e-05
18250.0 4.7083e-05
18270.0 4.7039e-05
18290.0 4.6992e-05
18310.0 4.694e-05
18330.0 4.6888e-05
18350.0 4.6836e-05
18370.0 4.6777e-05
18390.0 4.6717e-05
18410.0 4.6657e-05
18430.0 4.6593e-05
18450.0 4.6525e-05
18470.0 4.6457e-05
18490.0 4.6387e-05
18510.0 4.6313e-05
18530.0 4.6237e-05
18550.0 4.6161e-05
18570.0 4.6081e-05
18590.0 4.5996e-05
18610.0 4.5912e-05
18630.0 4.5826e-05
18650.0 4.5735e-05
18670.0 4.5642e-05
18690.0 4.555e-05
18710.0 4.5454e-05
18730.0 4.5355e-05
18750.0 4.5255e-05
18770.0 4.5153e-05
18790.0 4.5045e-05
18810.0 4.4937e-05
18830.0 4.4829e-05
18850.0 4.4717e-05
18870.0 4.4601e-05
18890.0 4.4486e-05
18910.0 4.4369e-05
18930.0 4.4247e-05
18950.0 4.4124e-05
18970.0 4.4001e-05
18990.0 4.3873e-05
19010.0 4.3742e-05
19030.0 4.3612e-05
19050.0 4.348e-05
19070.0 4.3344e-05
19090.0 4.3206e-05
19110.0 4.3069e-05
19130.0 4.2927e-05
19150.0 4.2783e-05
19170.0 4.2639e-05
19190.0 4.2493e-05
19210.0 4.2342e-05
19230.0 4.2191e-05
19250.0 4.2041e-05
19270.0 4.1886e-05
19290.0 4.173e-05
19310.0 4.1573e-05
19330.0 4.1415e-05
19350.0 4.1251e-05
19370.0 4.1089e-05
19390.0 4.0925e-05
19410.0 4.0759e-05
19430.0 4.059e-05
19450.0 4.0422e-05
19470.0 4.0252e-05
19490.0 4.0079e-05
19510.0 3.9905e-05
19530.0 3.9732e-05
19550.0 3.9554e-05
19570.0 3.9375e-05
19590.0 3.9197e-05
19610.0 3.9017e-05
19630.0 3.8833e-05
19650.0 3.8651e-05
19670.0 3.8468e-05
19690.0 3.8281e-05
19710.0 3.8094e-05
19730.0 3.7907e-05
19750.0 3.7718e-05
19770.0 3.7526e-05
19790.0 3.7336e-05
19810.0 3.7145e-05
19830.0 3.695e-05
19850.0 3.6754e-05
19870.0 3.6557e-05
19890.0 3.6352e-05
19910.0 3.6136e-05
19930.0 3.5907e-05
19950.0 3.5657e-05
19970.0 3.5372e-05
19990.0 3.5048e-05
20010.0 3.469e-05
20030.0 3.4281e-05
20050.0 3.3824e-05
20070.0 3.3341e-05
20090.0 3.2834e-05
20110.0 3.2285e-05
20130.0 3.1736e-05
20150.0 3.1197e-05
20170.0 3.0649e-05
20190.0 3.0099e-05
20210.0 2.9576e-05
20230.0 2.9062e-05
20250.0 2.8547e-05
20270.0 2.8056e-05
20290.0 2.7591e-05
20310.0 2.7134e-05
20330.0 2.6687e-05
20350.0 2.6282e-05
20370.0 2.5893e-05
20390.0 2.5517e-05
20410.0 2.5167e-05
20430.0 2.4844e-05
20450.0 2.4531e-05
20470.0 2.4239e-05
20490.0 2.3972e-05
20510.0 2.3722e-05
20530.0 2.3486e-05
20550.0 2.3269e-05
20570.0 2.3069e-05
20590.0 2.288e-05
20610.0 2.2704e-05
20630.0 2.254e-05
20650.0 2.2385e-05
20670.0 2.2238e-05
20690.0 2.2098e-05
20710.0 2.1963e-05
20730.0 2.183e-05
20750.0 2.17e-05
20770.0 2.1569e-05
20790.0 2.1437e-05
20810.0 2.1301e-05
20830.0 2.1161e-05
20850.0 2.1016e-05
20870.0 2.0862e-05
20890.0 2.07e-05
20910.0 2.0532e-05
20930.0 2.0353e-05
20950.0 2.0164e-05
20970.0 1.9967e-05
20990.0 1.9763e-05
21010.0 1.9545e-05
21030.0 1.932e-05
21050.0 1.9092e-05
21070.0 1.8854e-05
21090.0 1.8607e-05
21110.0 1.8361e-05
21130.0 1.8113e-05
21150.0 1.7858e-05
21170.0 1.7603e-05
21190.0 1.7352e-05
21210.0 1.7098e-05
21230.0 1.6842e-05
21250.0 1.6595e-05
21270.0 1.6352e-05
21290.0 1.6108e-05
21310.0 1.5871e-05
21330.0 1.5645e-05
21350.0 1.542e-05
21370.0 1.5199e-05
21390.0 1.4988e-05
21410.0 1.4783e-05
21430.0 1.4578e-05
21450.0 1.4383e-05
21470.0 1.4196e-05
21490.0 1.4011e-05
21510.0 1.383e-05
21530.0 1.3657e-05
21550.0 1.3487e-05
21570.0 1.3318e-05
21590.0 1.3154e-05
21610.0 1.2995e-05
21630.0 1.2836e-05
21650.0 1.2678e-05
21670.0 1.2527e-05
21690.0 1.2377e-05
21710.0 1.2227e-05
21730.0 1.208e-05
21750.0 1.1936e-05
21770.0 1.179e-05
21790.0 1.1646e-05
21810.0 1.1504e-05
21830.0 1.1363e-05
21850.0 1.122e-05
21870.0 1.1079e-05
21890.0 1.094e-05
21910.0 1.0798e-05
21930.0 1.0657e-05
21950.0 1.0517e-05
21970.0 1.0377e-05
21990.0 1.0233e-05
22010.0 1.0092e-05
22030.0 9.9525e-06
22050.0 9.8109e-06
22070.0 9.6696e-06
22090.0 9.5321e-06
22110.0 9.3939e-06
22130.0 9.2552e-06
22150.0 9.12e-06
22170.0 8.9874e-06
22190.0 8.8538e-06
22210.0 8.7227e-06
22230.0 8.597e-06
22250.0 8.472e-06
22270.0 8.3483e-06
22290.0 8.2289e-06
22310.0 8.1125e-06
22330.0 7.9956e-06
22350.0 7.8818e-06
22370.0 7.7716e-06
22390.0 7.662e-06
22410.0 7.5524e-06
22430.0 7.4467e-06
22450.0 7.3423e-06
22470.0 7.2371e-06
22490.0 7.1333e-06
22510.0 7.0317e-06
22530.0 6.9286e-06
22550.0 6.8251e-06
22570.0 6.7241e-06
22590.0 6.6236e-06
22610.0 6.5219e-06
22630.0 6.4215e-06
22650.0 6.324e-06
22670.0 6.2257e-06
22690.0 6.1282e-06
22710.0 6.0338e-06
22730.0 5.9412e-06
22750.0 5.8481e-06
22770.0 5.7592e-06
