#lamb flux
1010.0 2.6632e-06
1030.0 2.9348e-06
1050.0 3.2472e-06
1070.0 3.5988e-06
1090.0 3.9982e-06
1110.0 4.4079e-06
1130.0 4.8202e-06
1150.0 5.2521e-06
1170.0 5.6976e-06
1190.0 6.1201e-06
1210.0 6.5483e-06
1230.0 6.9907e-06
1250.0 7.4242e-06
1270.0 7.8452e-06
1290.0 8.2901e-06
1310.0 8.7346e-06
1330.0 9.1609e-06
1350.0 9.592e-06
1370.0 1.0037e-05
1390.0 1.0471e-05
1410.0 1.0892e-05
1430.0 1.1332e-05
1450.0 1.1772e-05
1470.0 1.2197e-05
1490.0 1.2627e-05
1510.0 1.3081e-05
1530.0 1.3511e-05
1550.0 1.3935e-05
1570.0 1.4374e-05
1590.0 1.4813e-05
1610.0 1.5232e-05
1630.0 1.5664e-05
1650.0 1.6108e-05
1670.0 1.6536e-05
1690.0 1.6959e-05
1710.0 1.7397e-05
1730.0 1.7838e-05
1750.0 1.8252e-05
1770.0 1.8677e-05
1790.0 1.9111e-05
1810.0 1.9529e-05
1830.0 1.9939e-05
1850.0 2.0373e-05
1870.0 2.0795e-05
1890.0 2.12e-05
1910.0 2.1612e-05
1930.0 2.2033e-05
1950.0 2.2431e-05
1970.0 2.2821e-05
1990.0 2.3223e-05
2010.0 2.3615e-05
2030.0 2.3988e-05
2050.0 2.4369e-05
2070.0 2.4756e-05
2090.0 2.5113e-05
2110.0 2.5463e-05
2130.0 2.5818e-05
2150.0 2.6158e-05
2170.0 2.6473e-05
2190.0 2.6794e-05
2210.0 2.7109e-05
2230.0 2.7398e-05
2250.0 2.7675e-05
2270.0 2.7959e-05
2290.0 2.8218e-05
2310.0 2.8449e-05
2330.0 2.868e-05
2350.0 2.8903e-05
2370.0 2.9099e-05
2390.0 2.9293e-05
2410.0 2.9506e-05
2430.0 2.9719e-05
2450.0 2.9948e-05
2470.0 3.0243e-05
2490.0 3.064e-05
2510.0 3.1143e-05
2530.0 3.1904e-05
2550.0 3.3146e-05
2570.0 3.505e-05
2590.0 3.7831e-05
2610.0 4.2134e-05
2630.0 4.7979e-05
2650.0 5.4933e-05
2670.0 6.2978e-05
2690.0 7.1699e-05
2710.0 7.9804e-05
2730.0 8.6753e-05
2750.0 9.2697e-05
2770.0 9.708e-05
2790.0 9.9971e-05
2810.0 0.00010191
2830.0 0.00010327
2850.0 0.00010406
2870.0 0.00010464
2890.0 0.0001052
2910.0 0.00010572
2930.0 0.00010614
2950.0 0.00010663
2970.0 0.00010715
2990.0 0.0001076
3010.0 0.0012622
3030.0 0.0012678
3050.0 0.0012729
3070.0 0.0012761
3090.0 0.0012783
3110.0 0.0012779
3130.0 0.0012727
3150.0 0.001262
3170.0 0.0012444
3190.0 0.0012203
3210.0 0.0011926
3230.0 0.0011642
3250.0 0.0011416
3270.0 0.0011276
3290.0 0.0011283
3310.0 0.001141
3330.0 0.0011699
3350.0 0.0012104
3370.0 0.0012633
3390.0 0.0013265
3410.0 0.0013927
3430.0 0.0014647
3450.0 0.0015444
3470.0 0.0016277
3490.0 0.0017122
3510.0 0.0018043
3530.0 0.0019001
3550.0 0.0019936
3570.0 0.0020891
3590.0 0.002194
3610.0 0.0022966
3630.0 0.0024024
3650.0 0.0025073
3670.0 0.0026032
3690.0 0.0026767
3710.0 0.0027261
3730.0 0.0027524
3750.0 0.0027609
3770.0 0.0025722
3790.0 0.0023873
3810.0 0.0020973
3830.0 0.0015678
3850.0 0.0011418
3870.0 0.0011174
3890.0 0.0014031
3910.0 0.00218
3930.0 0.0028995
3950.0 0.0032705
3970.0 0.0034341
3990.0 0.0036665
4010.0 0.0040604
4030.0 0.0040566
4050.0 0.0038179
4070.0 0.0035431
4090.0 0.0033913
4110.0 0.0036399
4130.0 0.0037412
4150.0 0.0037447
4170.0 0.0038487
4190.0 0.0038493
4210.0 0.0039326
4230.0 0.0042532
4250.0 0.0046502
4270.0 0.0048472
4290.0 0.0048012
4310.0 0.0048915
4330.0 0.0052278
4350.0 0.0060565
4370.0 0.0068102
4390.0 0.0063991
4410.0 0.0052685
4430.0 0.0045086
4450.0 0.003815
4470.0 0.0035317
4490.0 0.0039889
4510.0 0.004738
4530.0 0.005242
4550.0 0.0057879
4570.0 0.0067667
4590.0 0.0082932
4610.0 0.01089
4630.0 0.013139
4650.0 0.013307
4670.0 0.013197
4690.0 0.014008
4710.0 0.014143
4730.0 0.011761
4750.0 0.0088722
4770.0 0.0071895
4790.0 0.0069581
4810.0 0.0066125
4830.0 0.0065937
4850.0 0.0077788
4870.0 0.0096752
4890.0 0.010376
4910.0 0.0089925
4930.0 0.0084724
4950.0 0.0098292
4970.0 0.012941
4990.0 0.015843
5010.0 0.016206
5030.0 0.012997
5050.0 0.0088817
5070.0 0.0065346
5090.0 0.0056406
5110.0 0.0055653
5130.0 0.0060335
5150.0 0.0062486
5170.0 0.006166
5190.0 0.0061188
5210.0 0.0059788
5230.0 0.0062784
5250.0 0.0068559
5270.0 0.0078414
5290.0 0.0090646
5310.0 0.0098582
5330.0 0.010178
5350.0 0.010788
5370.0 0.011808
5390.0 0.012217
5410.0 0.011238
5430.0 0.0099213
5450.0 0.0097592
5470.0 0.011619
5490.0 0.0147
5510.0 0.017848
5530.0 0.019279
5550.0 0.01866
5570.0 0.017267
5590.0 0.01561
5610.0 0.01494
5630.0 0.01498
5650.0 0.015036
5670.0 0.014729
5690.0 0.013901
5710.0 0.013266
5730.0 0.011763
5750.0 0.0090333
5770.0 0.0079185
5790.0 0.0085648
5810.0 0.009986
5830.0 0.011328
5850.0 0.012114
5870.0 0.012138
5890.0 0.011301
5910.0 0.01094
5930.0 0.011053
5950.0 0.011584
5970.0 0.011955
5990.0 0.010904
6010.0 0.0089997
6030.0 0.0074499
6050.0 0.0068276
6070.0 0.0071032
6090.0 0.0078473
6110.0 0.0080066
6130.0 0.0074598
6150.0 0.0072634
6170.0 0.0079688
6190.0 0.0095353
6210.0 0.011452
6230.0 0.012764
6250.0 0.012658
6270.0 0.011197
6290.0 0.0092348
6310.0 0.0074009
6330.0 0.0061219
6350.0 0.0057975
6370.0 0.0063622
6390.0 0.0073115
6410.0 0.0084932
6430.0 0.0098149
6450.0 0.011533
6470.0 0.014259
6490.0 0.017389
6510.0 0.018408
6530.0 0.017348
6550.0 0.016552
6570.0 0.016359
6590.0 0.015694
6610.0 0.014463
6630.0 0.013462
6650.0 0.012918
6670.0 0.012895
6690.0 0.012527
6710.0 0.01127
6730.0 0.009774
6750.0 0.0089646
6770.0 0.0094345
6790.0 0.010137
6810.0 0.010448
6830.0 0.010586
6850.0 0.010204
6870.0 0.0097303
6890.0 0.009425
6910.0 0.0089799
6930.0 0.008678
6950.0 0.0087565
6970.0 0.0090772
6990.0 0.0099749
7010.0 0.010415
7030.0 0.0099431
7050.0 0.0091105
7070.0 0.0079348
7090.0 0.0067438
7110.0 0.0063187
7130.0 0.0065957
7150.0 0.0068797
7170.0 0.0070628
7190.0 0.0069281
7210.0 0.0068935
7230.0 0.007719
7250.0 0.0089702
7270.0 0.010078
7290.0 0.010646
7310.0 0.0099589
7330.0 0.0088998
7350.0 0.0081153
7370.0 0.0079217
7390.0 0.0082906
7410.0 0.0089116
7430.0 0.0098013
7450.0 0.01084
7470.0 0.011784
7490.0 0.011997
7510.0 0.010433
7530.0 0.010348
7550.0 0.0093774
7570.0 0.0080104
7590.0 0.0064482
7610.0 0.0060277
7630.0 0.006571
7650.0 0.0076594
7670.0 0.0087833
7690.0 0.0097065
7710.0 0.010662
7730.0 0.011519
7750.0 0.012135
7770.0 0.011959
7790.0 0.011894
7810.0 0.012115
7830.0 0.012005
7850.0 0.011535
7870.0 0.010841
7890.0 0.0099837
7910.0 0.0088441
7930.0 0.0078516
7950.0 0.0072312
7970.0 0.007067
7990.0 0.0073167
8010.0 0.0074812
8030.0 0.0075836
8050.0 0.0076644
8070.0 0.0075842
8090.0 0.0075633
8110.0 0.0072949
8130.0 0.0068186
8150.0 0.0064419
8170.0 0.006375
8190.0 0.0064875
8210.0 0.0065517
8230.0 0.0064983
8250.0 0.0062813
8270.0 0.0055484
8290.0 0.0043888
8310.0 0.0031957
8330.0 0.0021508
8350.0 0.0015373
8370.0 0.0015615
8390.0 0.0018944
8410.0 0.0023942
8430.0 0.0029242
8450.0 0.0032143
8470.0 0.003376
8490.0 0.0035404
8510.0 0.0037293
8530.0 0.0041411
8550.0 0.0048244
8570.0 0.0056752
8590.0 0.0065586
8610.0 0.0076565
8630.0 0.0088983
8650.0 0.0096567
8670.0 0.0096618
8690.0 0.0093287
8710.0 0.0088605
8730.0 0.008496
8750.0 0.0081564
8770.0 0.0079415
8790.0 0.0076312
8810.0 0.0070886
8830.0 0.0064855
8850.0 0.0055694
8870.0 0.0049315
8890.0 0.0045778
8910.0 0.0048102
8930.0 0.0047225
8950.0 0.0048557
8970.0 0.0049157
8990.0 0.0049876
9010.0 0.0050743
9030.0 0.0050057
9050.0 0.0050012
9070.0 0.0050048
9090.0 0.0050087
9110.0 0.0050112
9130.0 0.0050158
9150.0 0.0050228
9170.0 0.0050273
9190.0 0.0050282
9210.0 0.0050558
9230.0 0.00506
9250.0 0.0050674
9270.0 0.0050761
9290.0 0.0050857
9310.0 0.0050964
9330.0 0.005108
9350.0 0.0051202
9370.0 0.0051331
9390.0 0.0051467
9410.0 0.0051609
9430.0 0.0051755
9450.0 0.0051909
9470.0 0.0052068
9490.0 0.0052231
9510.0 0.0052401
9530.0 0.0052577
9550.0 0.0052756
9570.0 0.0052941
9590.0 0.0053131
9610.0 0.0053327
9630.0 0.0053525
9650.0 0.0053729
9670.0 0.0053939
9690.0 0.0054151
9710.0 0.0054367
9730.0 0.0054588
9750.0 0.0054813
9770.0 0.0055039
9790.0 0.005527
9810.0 0.0055505
9830.0 0.0055741
9850.0 0.005598
9870.0 0.0056223
9890.0 0.0056468
9910.0 0.0056713
9930.0 0.0056961
9950.0 0.0057198
9970.0 0.0057452
9990.0 0.0057706
10010.0 0.0057896
10030.0 0.0058151
10050.0 0.0058392
10070.0 0.0058569
10090.0 0.005885
10110.0 0.0059124
10130.0 0.0059391
10150.0 0.0059655
10170.0 0.0059911
10190.0 0.0060156
10210.0 0.0060405
10230.0 0.0060653
10250.0 0.0060891
10270.0 0.0061128
10290.0 0.0061368
10310.0 0.0061598
10330.0 0.0061821
10350.0 0.0062046
10370.0 0.0062269
10390.0 0.0062481
10410.0 0.0062689
10430.0 0.00629
10450.0 0.00631
10470.0 0.0063291
10490.0 0.0063483
10510.0 0.0063669
10530.0 0.0063839
10550.0 0.0064008
10570.0 0.0064176
10590.0 0.0064332
10610.0 0.0064478
10630.0 0.0064624
10650.0 0.0064761
10670.0 0.0064884
10690.0 0.0065002
10710.0 0.0065117
10730.0 0.0065219
10750.0 0.0065307
10770.0 0.0065397
10790.0 0.0065477
10810.0 0.0065541
10830.0 0.0065597
10850.0 0.0065645
10870.0 0.0065659
10890.0 0.0065636
10910.0 0.0065563
10930.0 0.0065398
10950.0 0.006508
10970.0 0.0064587
10990.0 0.0063905
11010.0 0.0061776
11030.0 0.0060514
11050.0 0.0059064
11070.0 0.0057397
11090.0 0.005546
11110.0 0.0053518
11130.0 0.0051557
11150.0 0.0049524
11170.0 0.0047526
11190.0 0.004569
11210.0 0.0043906
11230.0 0.0042203
11250.0 0.00407
11270.0 0.003937
11290.0 0.0038146
11310.0 0.0037085
11330.0 0.0036222
11350.0 0.0035455
11370.0 0.0034773
11390.0 0.0034185
11410.0 0.0033645
11430.0 0.0033091
11450.0 0.0032533
11470.0 0.0031959
11490.0 0.0031322
11510.0 0.0030601
11530.0 0.0029845
11550.0 0.0029036
11570.0 0.0028143
11590.0 0.0027216
11610.0 0.0026294
11630.0 0.0025331
11650.0 0.0024356
11670.0 0.0023451
11690.0 0.0022588
11710.0 0.0021751
11730.0 0.0020988
11750.0 0.0020317
11770.0 0.0019689
11790.0 0.001912
11810.0 0.0018628
11830.0 0.0018185
11850.0 0.0017765
11870.0 0.0017388
11890.0 0.0017039
11910.0 0.001669
11930.0 0.0016336
11950.0 0.0015986
11970.0 0.0015621
11990.0 0.0015224
12010.0 0.0014821
12030.0 0.0014411
12050.0 0.0013982
12070.0 0.0013542
12090.0 0.0013134
12110.0 0.0012737
12130.0 0.0012358
12150.0 0.0012026
12170.0 0.0011749
12190.0 0.0011516
12210.0 0.0011354
12230.0 0.0011265
12250.0 0.0011248
12270.0 0.0011308
12290.0 0.001144
12310.0 0.0011631
12330.0 0.0011894
12350.0 0.0012211
12370.0 0.0012558
12390.0 0.001294
12410.0 0.0013366
12430.0 0.0013773
12450.0 0.0014167
12470.0 0.0014558
12490.0 0.0014918
12510.0 0.0015222
12530.0 0.0015493
12550.0 0.0015717
12570.0 0.0015876
12590.0 0.0015976
12610.0 0.0016022
12630.0 0.0016007
12650.0 0.0015936
12670.0 0.0015815
12690.0 0.0015645
12710.0 0.0015438
12730.0 0.00152
12750.0 0.0014922
12770.0 0.0014624
12790.0 0.0014316
12810.0 0.001399
12830.0 0.0013646
12850.0 0.0013309
12870.0 0.0012968
12890.0 0.0012612
12910.0 0.0012256
12930.0 0.0011906
12950.0 0.001154
12970.0 0.0011163
12990.0 0.0010798
13010.0 0.0010431
13030.0 0.0010052
13050.0 0.00096815
13070.0 0.00093297
13090.0 0.00089758
13110.0 0.00086351
13130.0 0.0008325
13150.0 0.00080389
13170.0 0.00077715
13190.0 0.00075469
13210.0 0.00073637
13230.0 0.00072142
13250.0 0.00071053
13270.0 0.00070387
13290.0 0.00070093
13310.0 0.00070187
13330.0 0.00070622
13350.0 0.00071336
13370.0 0.00072345
13390.0 0.00073602
13410.0 0.00074922
13430.0 0.00076371
13450.0 0.00077926
13470.0 0.00079443
13490.0 0.00080878
13510.0 0.00082348
13530.0 0.0008369
13550.0 0.00084849
13570.0 0.00085895
13590.0 0.00086831
13610.0 0.0008758
13630.0 0.00088167
13650.0 0.00088654
13670.0 0.00089
13690.0 0.00089206
13710.0 0.00089309
13730.0 0.00089315
13750.0 0.00089202
13770.0 0.00088996
13790.0 0.00088697
13810.0 0.00088303
13830.0 0.00087828
13850.0 0.00087255
13870.0 0.00086578
13890.0 0.00085825
13910.0 0.00084993
13930.0 0.00084053
13950.0 0.00083042
13970.0 0.00082018
13990.0 0.00080929
14010.0 0.00079801
14030.0 0.00078704
14050.0 0.00077632
14070.0 0.0007655
14090.0 0.00075555
14110.0 0.00074658
14130.0 0.00073834
14150.0 0.00073105
14170.0 0.00072518
14190.0 0.00072049
14210.0 0.00071698
14230.0 0.00071487
14250.0 0.00071406
14270.0 0.00071462
14290.0 0.00071661
14310.0 0.0007197
14330.0 0.00072393
14350.0 0.00072942
14370.0 0.0007357
14390.0 0.00074243
14410.0 0.00075007
14430.0 0.0007582
14450.0 0.0007663
14470.0 0.00077463
14490.0 0.0007836
14510.0 0.0007924
14530.0 0.00080123
14550.0 0.00081086
14570.0 0.00082128
14590.0 0.00083217
14610.0 0.00084449
14630.0 0.00085892
14650.0 0.00087471
14670.0 0.00089211
14690.0 0.00091225
14710.0 0.00093492
14730.0 0.00095815
14750.0 0.0009836
14770.0 0.0010112
14790.0 0.001039
14810.0 0.0010666
14830.0 0.0010958
14850.0 0.0011238
14870.0 0.0011493
14890.0 0.0011734
14910.0 0.0011954
14930.0 0.0012136
14950.0 0.0012284
14970.0 0.0012403
14990.0 0.0012485
15010.0 0.0012535
15030.0 0.0012559
15050.0 0.001256
15070.0 0.0012545
15090.0 0.001252
15110.0 0.0012488
15130.0 0.0012451
15150.0 0.0012415
15170.0 0.0012376
15190.0 0.0012337
15210.0 0.0012299
15230.0 0.0012261
15250.0 0.0012222
15270.0 0.0012184
15290.0 0.0012148
15310.0 0.001211
15330.0 0.0012073
15350.0 0.0012037
15370.0 0.0012001
15390.0 0.0011963
15410.0 0.0011927
15430.0 0.0011892
15450.0 0.0011856
15470.0 0.0011819
15490.0 0.0011785
15510.0 0.001175
15530.0 0.0011714
15550.0 0.0011679
15570.0 0.0011646
15590.0 0.001161
15610.0 0.0011574
15630.0 0.0011541
15650.0 0.0011507
15670.0 0.0011472
15690.0 0.0011438
15710.0 0.0011405
15730.0 0.001137
15750.0 0.0011336
15770.0 0.0011302
15790.0 0.0011269
15810.0 0.0011234
15830.0 0.00112
15850.0 0.0011167
15870.0 0.0011133
15890.0 0.0011099
15910.0 0.0011067
15930.0 0.0011033
15950.0 0.0010998
15970.0 0.0010965
15990.0 0.0010932
16010.0 0.0010898
16030.0 0.0010863
16050.0 0.0010831
16070.0 0.0010797
16090.0 0.0010763
16110.0 0.001073
16130.0 0.0010697
16150.0 0.0010662
16170.0 0.0010628
16190.0 0.0010595
16210.0 0.0010561
16230.0 0.0010526
16250.0 0.0010492
16270.0 0.0010459
16290.0 0.0010424
16310.0 0.001039
16330.0 0.0010356
16350.0 0.0010322
16370.0 0.0010286
16390.0 0.0010252
16410.0 0.0010218
16430.0 0.0010183
16450.0 0.0010148
16470.0 0.0010114
16490.0 0.0010079
16510.0 0.0010043
16530.0 0.0010009
16550.0 0.00099741
16570.0 0.00099377
16590.0 0.00099018
16610.0 0.00098675
16630.0 0.00098318
16650.0 0.00097955
16670.0 0.00097604
16690.0 0.00097252
16710.0 0.00096878
16730.0 0.00096516
16750.0 0.00096162
16770.0 0.00095796
16790.0 0.00095421
16810.0 0.00095065
16830.0 0.00094704
16850.0 0.00094329
16870.0 0.0009396
16890.0 0.000936
16910.0 0.00093222
16930.0 0.00092839
16950.0 0.00092474
16970.0 0.00092103
16990.0 0.0009172
17010.0 0.00091345
17030.0 0.00090979
17050.0 0.00090593
17070.0 0.00090208
17090.0 0.00089834
17110.0 0.00089455
17130.0 0.00089057
17150.0 0.00088675
17170.0 0.000883
17190.0 0.00087909
17210.0 0.00087518
17230.0 0.0008714
17250.0 0.00086752
17270.0 0.00086349
17290.0 0.00085961
17310.0 0.00085575
17330.0 0.00085175
17350.0 0.00084773
17370.0 0.0008439
17390.0 0.00083995
17410.0 0.00083591
17430.0 0.00083197
17450.0 0.00082809
17470.0 0.00082395
17490.0 0.0008199
17510.0 0.00081598
17530.0 0.00081195
17550.0 0.00080783
17570.0 0.00080385
17590.0 0.0007999
17610.0 0.00079577
17630.0 0.00079168
17650.0 0.00078771
17670.0 0.00078363
17690.0 0.00077938
17710.0 0.00077537
17730.0 0.00077134
17750.0 0.00076718
17770.0 0.00076306
17790.0 0.00075908
17810.0 0.00075491
17830.0 0.00075071
17850.0 0.00074663
17870.0 0.00074255
17890.0 0.00073831
17910.0 0.00073413
17930.0 0.00073011
17950.0 0.00072594
17970.0 0.00072173
17990.0 0.00071765
18010.0 0.00071355
18030.0 0.00070924
18050.0 0.00070507
18070.0 0.00070098
18090.0 0.00069678
18110.0 0.00069251
18130.0 0.00068843
18150.0 0.0006843
18170.0 0.00068004
18190.0 0.00067587
18210.0 0.00067178
18230.0 0.00066752
18250.0 0.00066323
18270.0 0.00065914
18290.0 0.00065498
18310.0 0.00065071
18330.0 0.00064655
18350.0 0.00064247
18370.0 0.00063821
18390.0 0.00063397
18410.0 0.00062986
18430.0 0.00062569
18450.0 0.00062137
18470.0 0.00061721
18490.0 0.00061312
18510.0 0.0006089
18530.0 0.00060468
18550.0 0.00060061
18570.0 0.00059643
18590.0 0.00059214
18610.0 0.000588
18630.0 0.0005839
18650.0 0.00057966
18670.0 0.00057543
18690.0 0.00057139
18710.0 0.00056724
18730.0 0.00056302
18750.0 0.00055891
18770.0 0.00055486
18790.0 0.00055058
18810.0 0.0005464
18830.0 0.00054235
18850.0 0.00053821
18870.0 0.000534
18890.0 0.00052995
18910.0 0.00052591
18930.0 0.00052171
18950.0 0.00051759
18970.0 0.00051357
18990.0 0.00050945
19010.0 0.0005052
19030.0 0.0005012
19050.0 0.00049718
19070.0 0.00049303
19090.0 0.00048896
19110.0 0.00048502
19130.0 0.00048089
19150.0 0.00047676
19170.0 0.00047277
19190.0 0.00046877
19210.0 0.00046463
19230.0 0.00046057
19250.0 0.00045667
19270.0 0.00045262
19290.0 0.00044856
19310.0 0.00044464
19330.0 0.00044069
19350.0 0.00043655
19370.0 0.00043258
19390.0 0.00042867
19410.0 0.00042467
19430.0 0.00042063
19450.0 0.00041677
19470.0 0.00041285
19490.0 0.00040883
19510.0 0.00040492
19530.0 0.00040107
19550.0 0.00039707
19570.0 0.00039307
19590.0 0.00038925
19610.0 0.00038537
19630.0 0.00038141
19650.0 0.00037756
19670.0 0.00037378
19690.0 0.00036983
19710.0 0.00036592
19730.0 0.00036214
19750.0 0.0003583
19770.0 0.00035433
19790.0 0.00035054
19810.0 0.00034679
19830.0 0.00034292
19850.0 0.00033906
19870.0 0.0003353
19890.0 0.00033137
19910.0 0.00032722
19930.0 0.00032303
19950.0 0.00031859
19970.0 0.00031359
19990.0 0.0003081
20010.0 0.00030238
20030.0 0.00029598
20050.0 0.00028904
20070.0 0.00028206
20090.0 0.00027503
20110.0 0.00026766
20130.0 0.00026072
20150.0 0.00025433
20170.0 0.00024819
20190.0 0.00024242
20210.0 0.00023739
20230.0 0.00023284
20250.0 0.00022867
20270.0 0.00022512
20290.0 0.00022218
20310.0 0.00021967
20330.0 0.00021765
20350.0 0.00021624
20370.0 0.00021529
20390.0 0.00021479
20410.0 0.00021477
20430.0 0.00021516
20450.0 0.00021602
20470.0 0.00021731
20490.0 0.00021895
20510.0 0.00022096
20530.0 0.00022342
20550.0 0.00022614
20570.0 0.00022904
20590.0 0.0002323
20610.0 0.00023579
20630.0 0.0002393
20650.0 0.00024297
20670.0 0.00024689
20690.0 0.00025066
20710.0 0.00025434
20730.0 0.00025809
20750.0 0.00026178
20770.0 0.00026521
20790.0 0.00026863
20810.0 0.00027208
20830.0 0.00027538
20850.0 0.0002786
20870.0 0.00028199
20890.0 0.00028542
20910.0 0.00028875
20930.0 0.00029224
20950.0 0.00029593
20970.0 0.0002996
20990.0 0.00030327
21010.0 0.00030719
21030.0 0.00031104
21050.0 0.00031469
21070.0 0.00031829
21090.0 0.00032181
21110.0 0.00032488
21130.0 0.00032761
21150.0 0.00033006
21170.0 0.00033205
21190.0 0.00033353
21210.0 0.00033459
21230.0 0.00033513
21250.0 0.00033514
21270.0 0.00033465
21290.0 0.00033362
21310.0 0.00033209
21330.0 0.00033017
21350.0 0.00032774
21370.0 0.00032484
21390.0 0.00032165
21410.0 0.00031815
21430.0 0.00031411
21450.0 0.00030995
21470.0 0.00030572
21490.0 0.00030124
21510.0 0.00029661
21530.0 0.00029217
21550.0 0.00028776
21570.0 0.0002833
21590.0 0.00027914
21610.0 0.00027533
21630.0 0.00027171
21650.0 0.0002684
21670.0 0.00026572
21690.0 0.00026345
21710.0 0.00026162
21730.0 0.00026036
21750.0 0.00025965
21770.0 0.00025946
21790.0 0.00025986
21810.0 0.00026078
21830.0 0.00026223
21850.0 0.00026426
21870.0 0.00026673
21890.0 0.00026956
21910.0 0.00027292
21930.0 0.00027667
21950.0 0.00028062
21970.0 0.00028491
21990.0 0.00028969
22010.0 0.00029445
22030.0 0.0002993
22050.0 0.00030442
22070.0 0.00030961
22090.0 0.00031456
22110.0 0.00031958
22130.0 0.00032463
22150.0 0.00032935
22170.0 0.0003338
22190.0 0.00033816
22210.0 0.00034214
22230.0 0.00034554
22250.0 0.00034858
22270.0 0.00035116
22290.0 0.00035311
22310.0 0.00035447
22330.0 0.00035526
22350.0 0.00035534
22370.0 0.00035476
22390.0 0.00035347
22410.0 0.00035139
22430.0 0.00034871
22450.0 0.0003454
22470.0 0.0003413
22490.0 0.0003366
22510.0 0.00033151
22530.0 0.00032565
22550.0 0.00031916
22570.0 0.00031251
22590.0 0.00030551
22610.0 0.00029793
22630.0 0.0002902
22650.0 0.00028263
22670.0 0.00027466
22690.0 0.00026655
22710.0 0.00025874
22730.0 0.00025102
22750.0 0.00024301
22770.0 0.00023552
22790.0 0.00022851
22810.0 0.0002216
22830.0 0.00021501
22850.0 0.00020913
22870.0 0.00020364
22890.0 0.00019849
22910.0 0.00019406
22930.0 0.00019033
22950.0 0.00018713
22970.0 0.00018458
22990.0 0.0001829
23010.0 0.00018187
23030.0 0.00018157
23050.0 0.00018201
23070.0 0.00018311
23090.0 0.00018501
23110.0 0.00018759
23130.0 0.00019069
23150.0 0.00019437
23170.0 0.0001987
23190.0 0.00020332
23210.0 0.00020812
23230.0 0.00021337
23250.0 0.00021874
23270.0 0.00022396
23290.0 0.00022922
23310.0 0.00023454
23330.0 0.00023933
