#lamb flux
1010.0 5.8517e-05
1030.0 6.5869e-05
1050.0 7.3477e-05
1070.0 8.208e-05
1090.0 9.2151e-05
1110.0 0.00010251
1130.0 0.000113
1150.0 0.00012407
1170.0 0.00013562
1190.0 0.0001468
1210.0 0.00015838
1230.0 0.00017062
1250.0 0.00018293
1270.0 0.00019532
1290.0 0.00020877
1310.0 0.00022267
1330.0 0.00023657
1350.0 0.00025105
1370.0 0.00026634
1390.0 0.00028174
1410.0 0.00029712
1430.0 0.00031334
1450.0 0.0003298
1470.0 0.00034601
1490.0 0.00036245
1510.0 0.00037966
1530.0 0.00039614
1550.0 0.00041235
1570.0 0.00042885
1590.0 0.00044514
1610.0 0.00046052
1630.0 0.00047584
1650.0 0.00049109
1670.0 0.0005054
1690.0 0.00051899
1710.0 0.00053249
1730.0 0.00054543
1750.0 0.00055689
1770.0 0.00056803
1790.0 0.00057874
1810.0 0.00058831
1830.0 0.00059696
1850.0 0.00060572
1870.0 0.00061349
1890.0 0.00062021
1910.0 0.00062661
1930.0 0.00063278
1950.0 0.00063786
1970.0 0.00064234
1990.0 0.00064682
2010.0 0.00065065
2030.0 0.00065362
2050.0 0.00065648
2070.0 0.00065913
2090.0 0.0006606
2110.0 0.00066147
2130.0 0.00066204
2150.0 0.00066172
2170.0 0.00066022
2190.0 0.00065832
2210.0 0.00065565
2230.0 0.00065172
2250.0 0.00064688
2270.0 0.00064155
2290.0 0.00063502
2310.0 0.00062723
2330.0 0.00061886
2350.0 0.00060969
2370.0 0.00059935
2390.0 0.00058827
2410.0 0.00057668
2430.0 0.00056393
2450.0 0.00055004
2470.0 0.00053523
2490.0 0.00051938
2510.0 0.00050258
2530.0 0.00048599
2550.0 0.00047129
2570.0 0.00046059
2590.0 0.0004561
2610.0 0.00046236
2630.0 0.00048063
2650.0 0.00050851
2670.0 0.00054588
2690.0 0.00058996
2710.0 0.00063097
2730.0 0.00066357
2750.0 0.00068672
2770.0 0.00069335
2790.0 0.00068175
2810.0 0.00065359
2830.0 0.00060873
2850.0 0.00055145
2870.0 0.00048511
2890.0 0.00041043
2910.0 0.0003309
2930.0 0.00025061
2950.0 0.00016655
2970.0 7.9848e-05
2990.0 3.9918e-05
3010.0 8.8101e-05
3030.0 8.8101e-05
3050.0 8.8101e-05
3070.0 8.8101e-05
3090.0 8.8101e-05
3110.0 8.8101e-05
3130.0 8.8101e-05
3150.0 8.8101e-05
3170.0 8.8101e-05
3190.0 8.8101e-05
3210.0 8.8101e-05
3230.0 0.0023992
3250.0 0.0047694
3270.0 0.0047719
3290.0 0.0051419
3310.0 0.0040489
3330.0 0.0040449
3350.0 0.0044893
3370.0 0.0051265
3390.0 0.0058454
3410.0 0.0066151
3430.0 0.007597
3450.0 0.0085931
3470.0 0.009634
3490.0 0.010206
3510.0 0.0099262
3530.0 0.010054
3550.0 0.010599
3570.0 0.010674
3590.0 0.011381
3610.0 0.010889
3630.0 0.01348
3650.0 0.015124
3670.0 0.016154
3690.0 0.015259
3710.0 0.012556
3730.0 0.011787
3750.0 0.01063
3770.0 0.0098193
3790.0 0.0089091
3810.0 0.0086075
3830.0 0.0098945
3850.0 0.0043478
3870.0 0.0079952
3890.0 0.0094461
3910.0 0.010636
3930.0 0.013233
3950.0 0.014385
3970.0 0.016775
3990.0 0.020564
4010.0 0.015459
4030.0 0.012808
4050.0 0.0097202
4070.0 0.009997
4090.0 0.015691
4110.0 0.014889
4130.0 0.016052
4150.0 0.01512
4170.0 0.014397
4190.0 0.013096
4210.0 0.019017
4230.0 0.019826
4250.0 0.021562
4270.0 0.020241
4290.0 0.020438
4310.0 0.022934
4330.0 0.02699
4350.0 0.027091
4370.0 0.02638
4390.0 0.023594
4410.0 0.021964
4430.0 0.017252
4450.0 0.014437
4470.0 0.016087
4490.0 0.019174
4510.0 0.019858
4530.0 0.020457
4550.0 0.021229
4570.0 0.030056
4590.0 0.04444
4610.0 0.05224
4630.0 0.052388
4650.0 0.054859
4670.0 0.062823
4690.0 0.068644
4710.0 0.056545
4730.0 0.043086
4750.0 0.03421
4770.0 0.030213
4790.0 0.02832
4810.0 0.027006
4830.0 0.029837
4850.0 0.034573
4870.0 0.03773
4890.0 0.039363
4910.0 0.036264
4930.0 0.038603
4950.0 0.047626
4970.0 0.056758
4990.0 0.059287
5010.0 0.054694
5030.0 0.045458
5050.0 0.034652
5070.0 0.027392
5090.0 0.02457
5110.0 0.024033
5130.0 0.024527
5150.0 0.024447
5170.0 0.023394
5190.0 0.022104
5210.0 0.021573
5230.0 0.024109
5250.0 0.027851
5270.0 0.033077
5290.0 0.038057
5310.0 0.040128
5330.0 0.043396
5350.0 0.048082
5370.0 0.050587
5390.0 0.045943
5410.0 0.040654
5430.0 0.039284
5450.0 0.045444
5470.0 0.056403
5490.0 0.066173
5510.0 0.070545
5530.0 0.069388
5550.0 0.065987
5570.0 0.063797
5590.0 0.061549
5610.0 0.060664
5630.0 0.060151
5650.0 0.060014
5670.0 0.059449
5690.0 0.054544
5710.0 0.045769
5730.0 0.040531
5750.0 0.038264
5770.0 0.0389
5790.0 0.040164
5810.0 0.041859
5830.0 0.042584
5850.0 0.040466
5870.0 0.03779
5890.0 0.036063
5910.0 0.037015
5930.0 0.038759
5950.0 0.036468
5970.0 0.032236
5990.0 0.026817
6010.0 0.021664
6030.0 0.019677
6050.0 0.021071
6070.0 0.022606
6090.0 0.022012
6110.0 0.019431
6130.0 0.019619
6150.0 0.022703
6170.0 0.02636
6190.0 0.02936
6210.0 0.029753
6230.0 0.029133
6250.0 0.026683
6270.0 0.022491
6290.0 0.018646
6310.0 0.016417
6330.0 0.015919
6350.0 0.016298
6370.0 0.016394
6390.0 0.018038
6410.0 0.022294
6430.0 0.02796
6450.0 0.032094
6470.0 0.033342
6490.0 0.032871
6510.0 0.033599
6530.0 0.034878
6550.0 0.034576
6570.0 0.035848
6590.0 0.03656
6610.0 0.037211
6630.0 0.036995
6650.0 0.034912
6670.0 0.031927
6690.0 0.028677
6710.0 0.026829
6730.0 0.02676
6750.0 0.027655
6770.0 0.028483
6790.0 0.029279
6810.0 0.029798
6830.0 0.029193
6850.0 0.027955
6870.0 0.026227
6890.0 0.02561
6910.0 0.024558
6930.0 0.025317
6950.0 0.027037
6970.0 0.027824
6990.0 0.028474
7010.0 0.027787
7030.0 0.025634
7050.0 0.022626
7070.0 0.019851
7090.0 0.018169
7110.0 0.017933
7130.0 0.017888
7150.0 0.016265
7170.0 0.015324
7190.0 0.016453
7210.0 0.01877
7230.0 0.021743
7250.0 0.023279
7270.0 0.023223
7290.0 0.021372
7310.0 0.019592
7330.0 0.018609
7350.0 0.018597
7370.0 0.018994
7390.0 0.019829
7410.0 0.021828
7430.0 0.025318
7450.0 0.028838
7470.0 0.030772
7490.0 0.030459
7510.0 0.028656
7530.0 0.024464
7550.0 0.022009
7570.0 0.019479
7590.0 0.01828
7610.0 0.018999
7630.0 0.020897
7650.0 0.023386
7670.0 0.025789
7690.0 0.027413
7710.0 0.029247
7730.0 0.031218
7750.0 0.032947
7770.0 0.032736
7790.0 0.032978
7810.0 0.033812
7830.0 0.034147
7850.0 0.033211
7870.0 0.03208
7890.0 0.032028
7910.0 0.03084
7930.0 0.030484
7950.0 0.028971
7970.0 0.028357
7990.0 0.027535
8010.0 0.028404
8030.0 0.028702
8050.0 0.02905
8070.0 0.028814
8090.0 0.028729
8110.0 0.027669
8130.0 0.027647
8150.0 0.027287
8170.0 0.026618
8190.0 0.026163
8210.0 0.026231
8230.0 0.025548
8250.0 0.024888
8270.0 0.02237
8290.0 0.018166
8310.0 0.01357
8330.0 0.010372
8350.0 0.0096356
8370.0 0.011547
8390.0 0.014099
8410.0 0.015382
8430.0 0.015942
8450.0 0.01677
8470.0 0.017905
8490.0 0.02007
8510.0 0.022962
8530.0 0.026595
8550.0 0.030221
8570.0 0.033346
8590.0 0.035804
8610.0 0.037352
8630.0 0.037722
8650.0 0.037554
8670.0 0.037626
8690.0 0.03944
8710.0 0.041769
8730.0 0.043491
8750.0 0.043363
8770.0 0.04398
8790.0 0.043795
8810.0 0.041101
8830.0 0.039019
8850.0 0.036134
8870.0 0.033795
8890.0 0.032964
8910.0 0.033184
8930.0 0.031458
8950.0 0.029587
8970.0 0.028847
8990.0 0.028576
9010.0 0.027492
9030.0 0.026871
9050.0 0.026658
9070.0 0.02656
9090.0 0.026474
9110.0 0.026391
9130.0 0.026307
9150.0 0.026224
9170.0 0.026127
9190.0 0.026049
9210.0 0.026098
9230.0 0.025965
9250.0 0.025857
9270.0 0.02576
9290.0 0.025672
9310.0 0.025587
9330.0 0.025505
9350.0 0.025428
9370.0 0.025352
9390.0 0.025273
9410.0 0.025198
9430.0 0.025121
9450.0 0.025015
9470.0 0.024919
9490.0 0.024873
9510.0 0.024812
9530.0 0.024746
9550.0 0.024679
9570.0 0.02461
9590.0 0.02454
9610.0 0.024469
9630.0 0.024399
9650.0 0.024328
9670.0 0.024257
9690.0 0.024187
9710.0 0.024117
9730.0 0.024047
9750.0 0.023976
9770.0 0.023907
9790.0 0.023837
9810.0 0.023767
9830.0 0.023697
9850.0 0.023627
9870.0 0.023556
9890.0 0.023485
9910.0 0.023414
9930.0 0.02334
9950.0 0.023078
9970.0 0.023062
9990.0 0.023035
10010.0 0.023001
10030.0 0.022951
10050.0 0.022888
10070.0 0.022821
10090.0 0.022755
10110.0 0.022677
10130.0 0.022604
10150.0 0.022529
10170.0 0.022447
10190.0 0.022359
10210.0 0.022279
10230.0 0.0222
10250.0 0.022113
10270.0 0.022026
10290.0 0.021945
10310.0 0.021856
10330.0 0.02176
10350.0 0.021671
10370.0 0.021582
10390.0 0.021483
10410.0 0.021385
10430.0 0.021294
10450.0 0.021194
10470.0 0.021089
10490.0 0.020988
10510.0 0.020887
10530.0 0.020773
10550.0 0.020661
10570.0 0.020555
10590.0 0.020441
10610.0 0.020322
10630.0 0.020208
10650.0 0.020092
10670.0 0.019963
10690.0 0.019838
10710.0 0.019715
10730.0 0.019584
10750.0 0.019444
10770.0 0.019315
10790.0 0.019181
10810.0 0.019038
10830.0 0.018896
10850.0 0.018758
10870.0 0.018605
10890.0 0.018448
10910.0 0.018295
10930.0 0.018135
10950.0 0.01796
10970.0 0.017781
10990.0 0.017603
11010.0 0.018166
11030.0 0.017946
11050.0 0.017733
11070.0 0.017516
11090.0 0.017285
11110.0 0.017075
11130.0 0.016873
11150.0 0.016669
11170.0 0.01647
11190.0 0.016287
11210.0 0.016102
11230.0 0.015914
11250.0 0.015735
11270.0 0.015561
11290.0 0.015379
11310.0 0.015197
11330.0 0.015028
11350.0 0.014853
11370.0 0.014672
11390.0 0.014494
11410.0 0.014316
11430.0 0.014121
11450.0 0.013922
11470.0 0.013722
11490.0 0.013507
11510.0 0.013275
11530.0 0.013042
11550.0 0.012802
11570.0 0.012542
11590.0 0.012276
11610.0 0.012012
11630.0 0.011733
11650.0 0.011442
11670.0 0.011165
11690.0 0.010888
11710.0 0.010605
11730.0 0.01033
11750.0 0.010072
11770.0 0.0098109
11790.0 0.0095555
11810.0 0.0093178
11830.0 0.0090895
11850.0 0.0088591
11870.0 0.0086453
11890.0 0.0084471
11910.0 0.008251
11930.0 0.008061
11950.0 0.0078857
11970.0 0.0077157
11990.0 0.0075459
12010.0 0.0073874
12030.0 0.0072391
12050.0 0.0070935
12070.0 0.0069529
12090.0 0.0068286
12110.0 0.0067111
12130.0 0.0066004
12150.0 0.0065026
12170.0 0.006418
12190.0 0.0063411
12210.0 0.0062781
12230.0 0.00623
12250.0 0.0061945
12270.0 0.0061723
12290.0 0.0061644
12310.0 0.0061692
12330.0 0.006188
12350.0 0.0062202
12370.0 0.0062629
12390.0 0.0063179
12410.0 0.0063886
12430.0 0.0064653
12450.0 0.0065496
12470.0 0.0066452
12490.0 0.0067471
12510.0 0.006848
12530.0 0.0069547
12550.0 0.0070645
12570.0 0.0071676
12590.0 0.0072643
12610.0 0.0073577
12630.0 0.0074398
12650.0 0.0075039
12670.0 0.007556
12690.0 0.0075922
12710.0 0.0076092
12730.0 0.0076084
12750.0 0.0075899
12770.0 0.0075529
12790.0 0.0075005
12810.0 0.0074329
12830.0 0.0073506
12850.0 0.0072609
12870.0 0.0071642
12890.0 0.007059
12910.0 0.0069518
12930.0 0.0068465
12950.0 0.0067384
12970.0 0.0066306
12990.0 0.0065301
13010.0 0.0064329
13030.0 0.0063368
13050.0 0.0062456
13070.0 0.0061602
13090.0 0.0060747
13110.0 0.0059909
13130.0 0.005911
13150.0 0.0058322
13170.0 0.0057512
13190.0 0.0056732
13210.0 0.0055982
13230.0 0.0055227
13250.0 0.0054487
13270.0 0.0053802
13290.0 0.0053148
13310.0 0.0052526
13330.0 0.0051983
13350.0 0.0051517
13370.0 0.005112
13390.0 0.0050805
13410.0 0.005058
13430.0 0.0050423
13450.0 0.0050328
13470.0 0.0050277
13490.0 0.0050248
13510.0 0.0050226
13530.0 0.0050182
13550.0 0.0050094
13570.0 0.0049947
13590.0 0.0049721
13610.0 0.0049415
13630.0 0.0049033
13650.0 0.0048553
13670.0 0.0047997
13690.0 0.0047394
13710.0 0.0046735
13730.0 0.0046013
13750.0 0.0045315
13770.0 0.0044626
13790.0 0.0043937
13810.0 0.0043287
13830.0 0.0042705
13850.0 0.0042156
13870.0 0.0041655
13890.0 0.0041226
13910.0 0.0040854
13930.0 0.004052
13950.0 0.0040236
13970.0 0.0039999
13990.0 0.0039787
14010.0 0.0039595
14030.0 0.0039421
14050.0 0.0039256
14070.0 0.0039082
14090.0 0.0038904
14110.0 0.0038717
14130.0 0.0038508
14150.0 0.0038272
14170.0 0.0038021
14190.0 0.0037749
14210.0 0.0037445
14230.0 0.0037127
14250.0 0.0036805
14270.0 0.0036464
14290.0 0.0036117
14310.0 0.0035794
14330.0 0.0035485
14350.0 0.003519
14370.0 0.003493
14390.0 0.003471
14410.0 0.0034518
14430.0 0.0034363
14450.0 0.0034249
14470.0 0.0034167
14490.0 0.0034114
14510.0 0.0034092
14530.0 0.0034092
14550.0 0.0034114
14570.0 0.0034157
14590.0 0.0034217
14610.0 0.0034299
14630.0 0.0034408
14650.0 0.003454
14670.0 0.0034698
14690.0 0.0034894
14710.0 0.003513
14730.0 0.0035388
14750.0 0.0035689
14770.0 0.0036039
14790.0 0.0036422
14810.0 0.0036836
14830.0 0.0037326
14850.0 0.0037859
14870.0 0.0038422
14890.0 0.0039039
14910.0 0.003971
14930.0 0.0040376
14950.0 0.004102
14970.0 0.0041652
14990.0 0.0042209
15010.0 0.004266
15030.0 0.0043021
15050.0 0.0043292
15070.0 0.0043465
15090.0 0.0043576
15110.0 0.0043647
15130.0 0.0043689
15150.0 0.0043716
15170.0 0.0043736
15190.0 0.0043753
15210.0 0.004377
15230.0 0.0043787
15250.0 0.0043804
15270.0 0.0043822
15290.0 0.0043841
15310.0 0.0043861
15330.0 0.0043881
15350.0 0.0043902
15370.0 0.0043924
15390.0 0.0043946
15410.0 0.0043969
15430.0 0.0043993
15450.0 0.0044017
15470.0 0.0044041
15490.0 0.0044067
15510.0 0.0044093
15530.0 0.0044119
15550.0 0.0044146
15570.0 0.0044174
15590.0 0.0044201
15610.0 0.0044229
15630.0 0.0044258
15650.0 0.0044287
15670.0 0.0044316
15690.0 0.0044346
15710.0 0.0044376
15730.0 0.0044406
15750.0 0.0044436
15770.0 0.0044467
15790.0 0.0044498
15810.0 0.0044529
15830.0 0.004456
15850.0 0.0044592
15870.0 0.0044623
15890.0 0.0044654
15910.0 0.0044686
15930.0 0.0044718
15950.0 0.0044749
15970.0 0.0044781
15990.0 0.0044812
16010.0 0.0044844
16030.0 0.0044875
16050.0 0.0044906
16070.0 0.0044937
16090.0 0.0044968
16110.0 0.0044999
16130.0 0.004503
16150.0 0.0045059
16170.0 0.0045089
16190.0 0.0045118
16210.0 0.0045148
16230.0 0.0045176
16250.0 0.0045204
16270.0 0.0045233
16290.0 0.004526
16310.0 0.0045287
16330.0 0.0045313
16350.0 0.0045339
16370.0 0.0045364
16390.0 0.0045389
16410.0 0.0045413
16430.0 0.0045436
16450.0 0.0045458
16470.0 0.0045481
16490.0 0.0045502
16510.0 0.0045522
16530.0 0.0045541
16550.0 0.004556
16570.0 0.0045578
16590.0 0.0045594
16610.0 0.0045611
16630.0 0.0045626
16650.0 0.004564
16670.0 0.0045653
16690.0 0.0045665
16710.0 0.0045675
16730.0 0.0045685
16750.0 0.0045694
16770.0 0.0045702
16790.0 0.0045707
16810.0 0.0045713
16830.0 0.0045717
16850.0 0.0045719
16870.0 0.0045721
16890.0 0.0045721
16910.0 0.004572
16930.0 0.0045717
16950.0 0.0045713
16970.0 0.0045708
16990.0 0.00457
17010.0 0.0045692
17030.0 0.0045683
17050.0 0.0045671
17070.0 0.0045658
17090.0 0.0045644
17110.0 0.0045629
17130.0 0.0045611
17150.0 0.0045592
17170.0 0.0045571
17190.0 0.0045549
17210.0 0.0045525
17230.0 0.00455
17250.0 0.0045473
17270.0 0.0045443
17290.0 0.0045413
17310.0 0.0045381
17330.0 0.0045346
17350.0 0.004531
17370.0 0.0045273
17390.0 0.0045234
17410.0 0.0045192
17430.0 0.004515
17450.0 0.0045106
17470.0 0.0045058
17490.0 0.004501
17510.0 0.004496
17530.0 0.0044909
17550.0 0.0044854
17570.0 0.0044799
17590.0 0.0044742
17610.0 0.0044683
17630.0 0.0044622
17650.0 0.0044559
17670.0 0.0044495
17690.0 0.0044428
17710.0 0.004436
17730.0 0.004429
17750.0 0.0044218
17770.0 0.0044144
17790.0 0.0044069
17810.0 0.0043992
17830.0 0.0043913
17850.0 0.0043832
17870.0 0.004375
17890.0 0.0043665
17910.0 0.0043579
17930.0 0.0043491
17950.0 0.0043402
17970.0 0.004331
17990.0 0.0043218
18010.0 0.0043124
18030.0 0.0043027
18050.0 0.0042929
18070.0 0.004283
18090.0 0.0042728
18110.0 0.0042625
18130.0 0.0042522
18150.0 0.0042416
18170.0 0.0042308
18190.0 0.0042199
18210.0 0.0042089
18230.0 0.0041977
18250.0 0.0041864
18270.0 0.0041749
18290.0 0.0041633
18310.0 0.0041515
18330.0 0.0041397
18350.0 0.0041277
18370.0 0.0041155
18390.0 0.0041032
18410.0 0.0040908
18430.0 0.0040783
18450.0 0.0040656
18470.0 0.0040528
18490.0 0.00404
18510.0 0.004027
18530.0 0.0040139
18550.0 0.0040007
18570.0 0.0039874
18590.0 0.0039739
18610.0 0.0039604
18630.0 0.0039469
18650.0 0.0039331
18670.0 0.0039193
18690.0 0.0039055
18710.0 0.0038915
18730.0 0.0038775
18750.0 0.0038634
18770.0 0.0038492
18790.0 0.0038349
18810.0 0.0038205
18830.0 0.0038062
18850.0 0.0037917
18870.0 0.0037771
18890.0 0.0037626
18910.0 0.003748
18930.0 0.0037333
18950.0 0.0037185
18970.0 0.0037038
18990.0 0.003689
19010.0 0.003674
19030.0 0.0036592
19050.0 0.0036443
19070.0 0.0036293
19090.0 0.0036143
19110.0 0.0035993
19130.0 0.0035843
19150.0 0.0035692
19170.0 0.0035541
19190.0 0.003539
19210.0 0.0035239
19230.0 0.0035088
19250.0 0.0034937
19270.0 0.0034785
19290.0 0.0034634
19310.0 0.0034483
19330.0 0.0034332
19350.0 0.003418
19370.0 0.0034029
19390.0 0.0033878
19410.0 0.0033727
19430.0 0.0033576
19450.0 0.0033426
19470.0 0.0033276
19490.0 0.0033125
19510.0 0.0032975
19530.0 0.0032826
19550.0 0.0032676
19570.0 0.0032526
19590.0 0.0032378
19610.0 0.0032229
19630.0 0.0032081
19650.0 0.0031933
19670.0 0.0031786
19690.0 0.0031639
19710.0 0.0031492
19730.0 0.0031346
19750.0 0.0031201
19770.0 0.0031055
19790.0 0.003091
19810.0 0.0030766
19830.0 0.0030621
19850.0 0.0030475
19870.0 0.0030328
19890.0 0.0030175
19910.0 0.003001
19930.0 0.0029829
19950.0 0.0029621
19970.0 0.0029373
19990.0 0.0029076
20010.0 0.0028737
20030.0 0.0028338
20050.0 0.0027882
20070.0 0.0027395
20090.0 0.0026884
20110.0 0.0026329
20130.0 0.0025779
20150.0 0.0025246
20170.0 0.0024709
20190.0 0.0024177
20210.0 0.0023679
20230.0 0.0023197
20250.0 0.0022718
20270.0 0.0022266
20290.0 0.0021843
20310.0 0.0021428
20330.0 0.0021023
20350.0 0.0020656
20370.0 0.0020303
20390.0 0.0019958
20410.0 0.0019635
20430.0 0.0019335
20450.0 0.0019039
20470.0 0.0018761
20490.0 0.0018505
20510.0 0.0018265
20530.0 0.0018036
20550.0 0.0017828
20570.0 0.0017641
20590.0 0.0017466
20610.0 0.0017309
20630.0 0.001717
20650.0 0.0017047
20670.0 0.0016937
20690.0 0.0016845
20710.0 0.0016766
20730.0 0.0016699
20750.0 0.0016644
20770.0 0.0016598
20790.0 0.001656
20810.0 0.001653
20830.0 0.0016504
20850.0 0.0016481
20870.0 0.0016462
20890.0 0.0016442
20910.0 0.0016418
20930.0 0.0016392
20950.0 0.0016362
20970.0 0.0016324
20990.0 0.0016279
21010.0 0.0016227
21030.0 0.0016165
21050.0 0.0016093
21070.0 0.0016012
21090.0 0.0015919
21110.0 0.0015817
21130.0 0.0015708
21150.0 0.0015587
21170.0 0.0015458
21190.0 0.0015324
21210.0 0.001518
21230.0 0.0015028
21250.0 0.0014875
21270.0 0.0014718
21290.0 0.0014554
21310.0 0.0014389
21330.0 0.0014227
21350.0 0.0014062
21370.0 0.0013895
21390.0 0.0013735
21410.0 0.0013578
21430.0 0.0013419
21450.0 0.001327
21470.0 0.0013131
21490.0 0.0012997
21510.0 0.0012871
21530.0 0.0012758
21550.0 0.0012654
21570.0 0.0012561
21590.0 0.0012481
21610.0 0.0012414
21630.0 0.0012358
21650.0 0.0012316
21670.0 0.0012285
21690.0 0.0012265
21710.0 0.0012257
21730.0 0.0012258
21750.0 0.0012266
21770.0 0.0012285
21790.0 0.0012309
21810.0 0.0012336
21830.0 0.0012366
21850.0 0.00124
21870.0 0.0012432
21890.0 0.0012461
21910.0 0.001249
21930.0 0.0012515
21950.0 0.0012534
21970.0 0.0012549
21990.0 0.001256
22010.0 0.0012563
22030.0 0.001256
22050.0 0.0012551
22070.0 0.0012536
22090.0 0.0012515
22110.0 0.0012489
22130.0 0.0012458
22150.0 0.0012422
22170.0 0.0012382
22190.0 0.0012339
22210.0 0.0012291
22230.0 0.0012241
22250.0 0.0012187
22270.0 0.0012129
22290.0 0.0012068
22310.0 0.0012004
22330.0 0.0011935
22350.0 0.0011861
22370.0 0.0011784
22390.0 0.0011701
22410.0 0.0011609
22430.0 0.0011514
22450.0 0.0011413
22470.0 0.0011302
22490.0 0.0011184
22510.0 0.0011063
22530.0 0.001093
22550.0 0.0010789
22570.0 0.0010646
22590.0 0.0010498
22610.0 0.0010342
22630.0 0.0010183
22650.0 0.0010029
22670.0 0.00098684
22690.0 0.00097074
22710.0 0.0009553
22730.0 0.0009402
22750.0 0.00092484
22770.0 0.00091054
22790.0 0.0008972
22810.0 0.00088423
22830.0 0.00087193
22850.0 0.00086082
22870.0 0.00085037
22890.0 0.00084042
22910.0 0.00083145
22930.0 0.00082332
22950.0 0.00081565
22970.0 0.00080849
22990.0 0.00080217
23010.0 0.00079618
23030.0 0.00079043
23050.0 0.00078504
23070.0 0.00077992
23090.0 0.00077468
23110.0 0.00076949
23130.0 0.00076437
23150.0 0.0007591
23170.0 0.00075357
23190.0 0.00074798
23210.0 0.00074235
23230.0 0.00073642
23250.0 0.00073039
23270.0 0.00072446
23290.0 0.00071844
23310.0 0.00071227
23330.0 0.00070643
23350.0 0.00070078
23370.0 0.00069517
23390.0 0.00068977
23410.0 0.00068474
23430.0 0.0006798
23450.0 0.00067497
23470.0 0.00067041
23490.0 0.00066601
23510.0 0.00066159
23530.0 0.00065728
23550.0 0.00065316
23570.0 0.00064901
23590.0 0.00064484
23610.0 0.0006408
23630.0 0.00063682
23650.0 0.00063277
23670.0 0.00062888
23690.0 0.00062519
23710.0 0.00062162
23730.0 0.00061827
23750.0 0.00061533
23770.0 0.00061279
23790.0 0.00061071
23810.0 0.00060925
23830.0 0.00060846
23850.0 0.00060848
23870.0 0.00060946
23890.0 0.00061129
23910.0 0.00061412
23930.0 0.00061815
23950.0 0.00062316
23970.0 0.00062887
23990.0 0.0006358
24010.0 0.00064368
24030.0 0.00065197
24050.0 0.00066088
24070.0 0.00067089
