#lamb flux
1010.0 6.0975e-08
1030.0 6.7113e-08
1050.0 7.4173e-08
1070.0 8.212e-08
1090.0 9.1147e-08
1110.0 1.004e-07
1130.0 1.0972e-07
1150.0 1.1948e-07
1170.0 1.2955e-07
1190.0 1.391e-07
1210.0 1.4877e-07
1230.0 1.5877e-07
1250.0 1.6856e-07
1270.0 1.7808e-07
1290.0 1.8812e-07
1310.0 1.9817e-07
1330.0 2.078e-07
1350.0 2.1753e-07
1370.0 2.2759e-07
1390.0 2.3739e-07
1410.0 2.4689e-07
1430.0 2.5683e-07
1450.0 2.6677e-07
1470.0 2.7637e-07
1490.0 2.8607e-07
1510.0 2.9632e-07
1530.0 3.0603e-07
1550.0 3.156e-07
1570.0 3.2551e-07
1590.0 3.3541e-07
1610.0 3.4488e-07
1630.0 3.5463e-07
1650.0 3.6464e-07
1670.0 3.7431e-07
1690.0 3.8385e-07
1710.0 3.9375e-07
1730.0 4.037e-07
1750.0 4.1304e-07
1770.0 4.2265e-07
1790.0 4.3243e-07
1810.0 4.4188e-07
1830.0 4.5115e-07
1850.0 4.6096e-07
1870.0 4.7049e-07
1890.0 4.7966e-07
1910.0 4.8898e-07
1930.0 4.9848e-07
1950.0 5.0749e-07
1970.0 5.1632e-07
1990.0 5.2544e-07
2010.0 5.3432e-07
2030.0 5.4277e-07
2050.0 5.5142e-07
2070.0 5.6019e-07
2090.0 5.6828e-07
2110.0 5.7622e-07
2130.0 5.843e-07
2150.0 5.9203e-07
2170.0 5.9919e-07
2190.0 6.065e-07
2210.0 6.1366e-07
2230.0 6.2024e-07
2250.0 6.2655e-07
2270.0 6.3301e-07
2290.0 6.3892e-07
2310.0 6.4419e-07
2330.0 6.4947e-07
2350.0 6.5454e-07
2370.0 6.5899e-07
2390.0 6.6336e-07
2410.0 6.681e-07
2430.0 6.7272e-07
2450.0 6.7757e-07
2470.0 6.8365e-07
2490.0 6.9174e-07
2510.0 7.0195e-07
2530.0 7.1762e-07
2550.0 7.4376e-07
2570.0 7.846e-07
2590.0 8.4516e-07
2610.0 9.4002e-07
2630.0 1.0702e-06
2650.0 1.2262e-06
2670.0 1.4081e-06
2690.0 1.6066e-06
2710.0 1.7927e-06
2730.0 1.9536e-06
2750.0 2.0927e-06
2770.0 2.1968e-06
2790.0 2.2671e-06
2810.0 2.3157e-06
2830.0 2.3513e-06
2850.0 2.3735e-06
2870.0 2.3908e-06
2890.0 2.4077e-06
2910.0 2.4236e-06
2930.0 2.4369e-06
2950.0 2.4516e-06
2970.0 2.467e-06
2990.0 2.4804e-06
3010.0 2.68e-05
3030.0 2.6948e-05
3050.0 2.7084e-05
3070.0 2.7172e-05
3090.0 2.7239e-05
3110.0 2.7249e-05
3130.0 2.7158e-05
3150.0 2.6952e-05
3170.0 2.661e-05
3190.0 2.6141e-05
3210.0 2.5608e-05
3230.0 2.5066e-05
3250.0 2.4444e-05
3270.0 2.4215e-05
3290.0 2.3953e-05
3310.0 2.4442e-05
3330.0 2.5023e-05
3350.0 2.5814e-05
3370.0 2.6855e-05
3390.0 2.8104e-05
3410.0 2.9411e-05
3430.0 3.0825e-05
3450.0 3.2383e-05
3470.0 3.4e-05
3490.0 3.5642e-05
3510.0 3.7358e-05
3530.0 3.9079e-05
3550.0 4.0965e-05
3570.0 4.3027e-05
3590.0 4.4976e-05
3610.0 4.7396e-05
3630.0 4.9253e-05
3650.0 5.1248e-05
3670.0 5.2866e-05
3690.0 5.432e-05
3710.0 5.552e-05
3730.0 5.5645e-05
3750.0 5.5733e-05
3770.0 5.3743e-05
3790.0 5.2577e-05
3810.0 5.115e-05
3830.0 4.6311e-05
3850.0 4.2842e-05
3870.0 4.5767e-05
3890.0 5.4123e-05
3910.0 6.8588e-05
3930.0 8.0346e-05
3950.0 8.6149e-05
3970.0 8.2504e-05
3990.0 7.7021e-05
4010.0 8.072e-05
4030.0 8.7112e-05
4050.0 9.0378e-05
4070.0 8.1392e-05
4090.0 6.7379e-05
4110.0 7.1994e-05
4130.0 7.9938e-05
4150.0 8.3439e-05
4170.0 8.077e-05
4190.0 7.7322e-05
4210.0 8.4443e-05
4230.0 9.1858e-05
4250.0 9.49e-05
4270.0 9.7794e-05
4290.0 9.5105e-05
4310.0 9.9006e-05
4330.0 0.0001094
4350.0 0.00012789
4370.0 0.00013822
4390.0 0.00013099
4410.0 0.00011045
4430.0 9.3407e-05
4450.0 7.6343e-05
4470.0 7.3588e-05
4490.0 8.2459e-05
4510.0 0.00010057
4530.0 0.0001089
4550.0 0.00011601
4570.0 0.0001354
4590.0 0.0001701
4610.0 0.0002266
4630.0 0.00027146
4650.0 0.00027303
4670.0 0.0002752
4690.0 0.00029794
4710.0 0.00029796
4730.0 0.00024305
4750.0 0.00017983
4770.0 0.00014819
4790.0 0.00014061
4810.0 0.00013084
4830.0 0.00013343
4850.0 0.0001574
4870.0 0.0001973
4890.0 0.0002092
4910.0 0.00018019
4930.0 0.00017331
4950.0 0.00020723
4970.0 0.00027308
4990.0 0.00032715
5010.0 0.00033086
5030.0 0.00026809
5050.0 0.00018453
5070.0 0.00013582
5090.0 0.00011839
5110.0 0.00011873
5130.0 0.00012924
5150.0 0.00012992
5170.0 0.0001294
5190.0 0.00012821
5210.0 0.00012619
5230.0 0.00013294
5250.0 0.0001414
5270.0 0.00016183
5290.0 0.00019116
5310.0 0.00020729
5330.0 0.00021493
5350.0 0.00022803
5370.0 0.00024863
5390.0 0.00025508
5410.0 0.00023415
5430.0 0.00020866
5450.0 0.00020659
5470.0 0.00024778
5490.0 0.00031836
5510.0 0.00038647
5530.0 0.00041441
5550.0 0.00040106
5570.0 0.000372
5590.0 0.00034021
5610.0 0.00032586
5630.0 0.00032747
5650.0 0.00033285
5670.0 0.00032578
5690.0 0.00031034
5710.0 0.00029824
5730.0 0.00026267
5750.0 0.00020203
5770.0 0.00018085
5790.0 0.00019992
5810.0 0.00023106
5830.0 0.00025996
5850.0 0.00027519
5870.0 0.00027285
5890.0 0.00025297
5910.0 0.00024239
5930.0 0.00024674
5950.0 0.000261
5970.0 0.00026694
5990.0 0.00024257
6010.0 0.0001986
6030.0 0.00016187
6050.0 0.00014795
6070.0 0.00015604
6090.0 0.00017424
6110.0 0.00017684
6130.0 0.00016394
6150.0 0.0001608
6170.0 0.00017842
6190.0 0.00021337
6210.0 0.00025631
6230.0 0.0002847
6250.0 0.00027848
6270.0 0.00024693
6290.0 0.00020317
6310.0 0.0001615
6330.0 0.00013455
6350.0 0.00012889
6370.0 0.0001416
6390.0 0.0001601
6410.0 0.00018569
6430.0 0.00021899
6450.0 0.00026297
6470.0 0.00032286
6490.0 0.00038406
6510.0 0.00040475
6530.0 0.00038277
6550.0 0.00036663
6570.0 0.000366
6590.0 0.00035491
6610.0 0.00032919
6630.0 0.00030678
6650.0 0.00029211
6670.0 0.00029283
6690.0 0.00028607
6710.0 0.00025637
6730.0 0.00022363
6750.0 0.00020334
6770.0 0.00021243
6790.0 0.00022728
6810.0 0.00023945
6830.0 0.00024337
6850.0 0.00023373
6870.0 0.00022317
6890.0 0.00021742
6910.0 0.00020635
6930.0 0.00019797
6950.0 0.00020001
6970.0 0.00020686
6990.0 0.00022507
7010.0 0.00023868
7030.0 0.00022964
7050.0 0.00020989
7070.0 0.00018346
7090.0 0.00015471
7110.0 0.00014252
7130.0 0.00014996
7150.0 0.00015906
7170.0 0.00016069
7190.0 0.00015637
7210.0 0.00015611
7230.0 0.00017633
7250.0 0.00020526
7270.0 0.0002281
7290.0 0.00023587
7310.0 0.00021984
7330.0 0.0001977
7350.0 0.00018127
7370.0 0.00017724
7390.0 0.00018215
7410.0 0.00019383
7430.0 0.00021556
7450.0 0.00024054
7470.0 0.00026732
7490.0 0.00028627
7510.0 0.00025492
7530.0 0.00023823
7550.0 0.00020842
7570.0 0.00017677
7590.0 0.00014405
7610.0 0.00013688
7630.0 0.00014754
7650.0 0.00016804
7670.0 0.00019124
7690.0 0.00021093
7710.0 0.0002346
7730.0 0.0002518
7750.0 0.00026228
7770.0 0.00026312
7790.0 0.00026166
7810.0 0.00026472
7830.0 0.00025909
7850.0 0.00024928
7870.0 0.00023589
7890.0 0.0002166
7910.0 0.00019437
7930.0 0.00017259
7950.0 0.00015559
7970.0 0.00015084
7990.0 0.000157
8010.0 0.00016671
8030.0 0.00016851
8050.0 0.00017174
8070.0 0.00016986
8090.0 0.00016949
8110.0 0.00016399
8130.0 0.00015331
8150.0 0.00014389
8170.0 0.00014245
8190.0 0.00014471
8210.0 0.00014623
8230.0 0.00014244
8250.0 0.00013623
8270.0 0.00012009
8290.0 9.6203e-05
8310.0 7.1845e-05
8330.0 4.9154e-05
8350.0 3.5658e-05
8370.0 3.4918e-05
8390.0 4.1455e-05
8410.0 5.1466e-05
8430.0 6.3328e-05
8450.0 6.9762e-05
8470.0 7.3805e-05
8490.0 7.8346e-05
8510.0 8.2931e-05
8530.0 9.1805e-05
8550.0 0.00010771
8570.0 0.00012566
8590.0 0.00014248
8610.0 0.00016568
8630.0 0.00019217
8650.0 0.00020614
8670.0 0.00020725
8690.0 0.00020204
8710.0 0.0001928
8730.0 0.00018485
8750.0 0.00017616
8770.0 0.00017185
8790.0 0.00016525
8810.0 0.00015324
8830.0 0.00014125
8850.0 0.00012151
8870.0 0.00010871
8890.0 0.00010095
8910.0 0.00010771
8930.0 0.0001046
8950.0 0.00010705
8970.0 0.00010847
8990.0 0.00010917
9010.0 0.00011064
9030.0 0.00010833
9050.0 0.00010818
9070.0 0.00010827
9090.0 0.00010836
9110.0 0.00010845
9130.0 0.00010856
9150.0 0.0001087
9170.0 0.00010876
9190.0 0.0001087
9210.0 0.00010946
9230.0 0.00010949
9250.0 0.00010962
9270.0 0.00010977
9290.0 0.00010995
9310.0 0.00011016
9330.0 0.00011037
9350.0 0.00011061
9370.0 0.00011085
9390.0 0.00011111
9410.0 0.00011137
9430.0 0.00011165
9450.0 0.00011194
9470.0 0.00011224
9490.0 0.00011254
9510.0 0.00011286
9530.0 0.00011319
9550.0 0.00011352
9570.0 0.00011387
9590.0 0.00011422
9610.0 0.00011459
9630.0 0.00011496
9650.0 0.00011534
9670.0 0.00011573
9690.0 0.00011613
9710.0 0.00011653
9730.0 0.00011694
9750.0 0.00011736
9770.0 0.00011779
9790.0 0.00011822
9810.0 0.00011866
9830.0 0.00011911
9850.0 0.00011956
9870.0 0.00012002
9890.0 0.00012048
9910.0 0.00012094
9930.0 0.00012141
9950.0 0.00012184
9970.0 0.00012233
9990.0 0.00012282
10010.0 0.00012323
10030.0 0.00012372
10050.0 0.00012417
10070.0 0.00012445
10090.0 0.00012501
10110.0 0.00012555
10130.0 0.00012607
10150.0 0.00012659
10170.0 0.00012709
10190.0 0.00012756
10210.0 0.00012804
10230.0 0.00012852
10250.0 0.00012898
10270.0 0.00012944
10290.0 0.00012991
10310.0 0.00013036
10330.0 0.00013079
10350.0 0.00013123
10370.0 0.00013167
10390.0 0.00013208
10410.0 0.00013249
10430.0 0.00013291
10450.0 0.0001333
10470.0 0.00013368
10490.0 0.00013406
10510.0 0.00013443
10530.0 0.00013477
10550.0 0.00013511
10570.0 0.00013544
10590.0 0.00013576
10610.0 0.00013605
10630.0 0.00013635
10650.0 0.00013663
10670.0 0.00013688
10690.0 0.00013713
10710.0 0.00013736
10730.0 0.00013758
10750.0 0.00013776
10770.0 0.00013796
10790.0 0.00013813
10810.0 0.00013827
10830.0 0.0001384
10850.0 0.00013851
10870.0 0.00013855
10890.0 0.00013851
10910.0 0.00013837
10930.0 0.00013803
10950.0 0.00013737
10970.0 0.00013634
10990.0 0.0001349
11010.0 0.00013101
11030.0 0.00012829
11050.0 0.00012518
11070.0 0.00012162
11090.0 0.0001175
11110.0 0.00011338
11130.0 0.00010925
11150.0 0.00010499
11170.0 0.00010082
11190.0 9.7026e-05
11210.0 9.336e-05
11230.0 8.9886e-05
11250.0 8.6847e-05
11270.0 8.4177e-05
11290.0 8.1738e-05
11310.0 7.9637e-05
11330.0 7.7936e-05
11350.0 7.6423e-05
11370.0 7.5072e-05
11390.0 7.389e-05
11410.0 7.2788e-05
11430.0 7.1632e-05
11450.0 7.0449e-05
11470.0 6.9214e-05
11490.0 6.7836e-05
11510.0 6.6273e-05
11530.0 6.4638e-05
11550.0 6.2896e-05
11570.0 6.0981e-05
11590.0 5.9005e-05
11610.0 5.7051e-05
11630.0 5.502e-05
11650.0 5.2972e-05
11670.0 5.1078e-05
11690.0 4.9272e-05
11710.0 4.7522e-05
11730.0 4.5921e-05
11750.0 4.4506e-05
11770.0 4.317e-05
11790.0 4.1946e-05
11810.0 4.0871e-05
11830.0 3.9888e-05
11850.0 3.8938e-05
11870.0 3.8068e-05
11890.0 3.7255e-05
11910.0 3.6431e-05
11930.0 3.5594e-05
11950.0 3.477e-05
11970.0 3.3913e-05
11990.0 3.2993e-05
12010.0 3.2064e-05
12030.0 3.1133e-05
12050.0 3.0163e-05
12070.0 2.9179e-05
12090.0 2.8272e-05
12110.0 2.7395e-05
12130.0 2.6562e-05
12150.0 2.5835e-05
12170.0 2.5229e-05
12190.0 2.4721e-05
12210.0 2.4367e-05
12230.0 2.4174e-05
12250.0 2.4136e-05
12270.0 2.4269e-05
12290.0 2.4557e-05
12310.0 2.4974e-05
12330.0 2.5549e-05
12350.0 2.6244e-05
12370.0 2.7001e-05
12390.0 2.7837e-05
12410.0 2.8767e-05
12430.0 2.9654e-05
12450.0 3.0513e-05
12470.0 3.1364e-05
12490.0 3.2147e-05
12510.0 3.2809e-05
12530.0 3.3397e-05
12550.0 3.3886e-05
12570.0 3.4234e-05
12590.0 3.4457e-05
12610.0 3.4567e-05
12630.0 3.4547e-05
12650.0 3.4408e-05
12670.0 3.4165e-05
12690.0 3.382e-05
12710.0 3.3395e-05
12730.0 3.2905e-05
12750.0 3.2331e-05
12770.0 3.1714e-05
12790.0 3.1073e-05
12810.0 3.0391e-05
12830.0 2.967e-05
12850.0 2.8958e-05
12870.0 2.8234e-05
12890.0 2.7474e-05
12910.0 2.6708e-05
12930.0 2.5949e-05
12950.0 2.515e-05
12970.0 2.4321e-05
12990.0 2.3512e-05
13010.0 2.2692e-05
13030.0 2.1842e-05
13050.0 2.1007e-05
13070.0 2.021e-05
13090.0 1.9406e-05
13110.0 1.863e-05
13130.0 1.7922e-05
13150.0 1.7269e-05
13170.0 1.6656e-05
13190.0 1.614e-05
13210.0 1.5718e-05
13230.0 1.5371e-05
13250.0 1.5113e-05
13270.0 1.4949e-05
13290.0 1.4866e-05
13310.0 1.4864e-05
13330.0 1.4935e-05
13350.0 1.5063e-05
13370.0 1.5249e-05
13390.0 1.5482e-05
13410.0 1.5726e-05
13430.0 1.5991e-05
13450.0 1.6273e-05
13470.0 1.6543e-05
13490.0 1.6793e-05
13510.0 1.7046e-05
13530.0 1.7272e-05
13550.0 1.7463e-05
13570.0 1.7632e-05
13590.0 1.7782e-05
13610.0 1.7899e-05
13630.0 1.7991e-05
13650.0 1.8068e-05
13670.0 1.8124e-05
13690.0 1.8159e-05
13710.0 1.818e-05
13730.0 1.8189e-05
13750.0 1.8178e-05
13770.0 1.8153e-05
13790.0 1.8113e-05
13810.0 1.8056e-05
13830.0 1.7982e-05
13850.0 1.7889e-05
13870.0 1.7775e-05
13890.0 1.7644e-05
13910.0 1.7494e-05
13930.0 1.7321e-05
13950.0 1.7131e-05
13970.0 1.6936e-05
13990.0 1.6728e-05
14010.0 1.6511e-05
14030.0 1.6299e-05
14050.0 1.6093e-05
14070.0 1.5885e-05
14090.0 1.5696e-05
14110.0 1.5525e-05
14130.0 1.537e-05
14150.0 1.5233e-05
14170.0 1.5123e-05
14190.0 1.5034e-05
14210.0 1.4967e-05
14230.0 1.4925e-05
14250.0 1.4907e-05
14270.0 1.4913e-05
14290.0 1.4946e-05
14310.0 1.4999e-05
14330.0 1.5075e-05
14350.0 1.5176e-05
14370.0 1.5294e-05
14390.0 1.5424e-05
14410.0 1.5573e-05
14430.0 1.5735e-05
14450.0 1.5899e-05
14470.0 1.6071e-05
14490.0 1.6259e-05
14510.0 1.6446e-05
14530.0 1.6637e-05
14550.0 1.6846e-05
14570.0 1.7075e-05
14590.0 1.7316e-05
14610.0 1.7588e-05
14630.0 1.7907e-05
14650.0 1.8255e-05
14670.0 1.8638e-05
14690.0 1.9079e-05
14710.0 1.9575e-05
14730.0 2.0082e-05
14750.0 2.0636e-05
14770.0 2.1235e-05
14790.0 2.1838e-05
14810.0 2.2434e-05
14830.0 2.3066e-05
14850.0 2.367e-05
14870.0 2.422e-05
14890.0 2.4737e-05
14910.0 2.5212e-05
14930.0 2.5605e-05
14950.0 2.5922e-05
14970.0 2.618e-05
14990.0 2.6359e-05
15010.0 2.6468e-05
15030.0 2.6522e-05
15050.0 2.6529e-05
15070.0 2.6501e-05
15090.0 2.6451e-05
15110.0 2.6386e-05
15130.0 2.6313e-05
15150.0 2.6239e-05
15170.0 2.6161e-05
15190.0 2.6081e-05
15210.0 2.6004e-05
15230.0 2.5928e-05
15250.0 2.5849e-05
15270.0 2.5772e-05
15290.0 2.5699e-05
15310.0 2.5623e-05
15330.0 2.5547e-05
15350.0 2.5475e-05
15370.0 2.5403e-05
15390.0 2.5327e-05
15410.0 2.5254e-05
15430.0 2.5183e-05
15450.0 2.5111e-05
15470.0 2.5037e-05
15490.0 2.4967e-05
15510.0 2.4898e-05
15530.0 2.4826e-05
15550.0 2.4755e-05
15570.0 2.4687e-05
15590.0 2.4616e-05
15610.0 2.4545e-05
15630.0 2.4477e-05
15650.0 2.4409e-05
15670.0 2.4338e-05
15690.0 2.427e-05
15710.0 2.4204e-05
15730.0 2.4134e-05
15750.0 2.4065e-05
15770.0 2.3998e-05
15790.0 2.3931e-05
15810.0 2.386e-05
15830.0 2.3792e-05
15850.0 2.3726e-05
15870.0 2.3658e-05
15890.0 2.3589e-05
15910.0 2.3524e-05
15930.0 2.3457e-05
15950.0 2.3387e-05
15970.0 2.3319e-05
15990.0 2.3253e-05
16010.0 2.3184e-05
16030.0 2.3114e-05
16050.0 2.3049e-05
16070.0 2.2982e-05
16090.0 2.2912e-05
16110.0 2.2845e-05
16130.0 2.2779e-05
16150.0 2.2708e-05
16170.0 2.2639e-05
16190.0 2.2572e-05
16210.0 2.2503e-05
16230.0 2.2433e-05
16250.0 2.2365e-05
16270.0 2.2298e-05
16290.0 2.2227e-05
16310.0 2.2157e-05
16330.0 2.2089e-05
16350.0 2.202e-05
16370.0 2.1946e-05
16390.0 2.1877e-05
16410.0 2.1809e-05
16430.0 2.1737e-05
16450.0 2.1665e-05
16470.0 2.1597e-05
16490.0 2.1525e-05
16510.0 2.1452e-05
16530.0 2.1381e-05
16550.0 2.1311e-05
16570.0 2.1236e-05
16590.0 2.1163e-05
16610.0 2.1093e-05
16630.0 2.1019e-05
16650.0 2.0945e-05
16670.0 2.0873e-05
16690.0 2.0801e-05
16710.0 2.0724e-05
16730.0 2.065e-05
16750.0 2.0577e-05
16770.0 2.0502e-05
16790.0 2.0424e-05
16810.0 2.0351e-05
16830.0 2.0277e-05
16850.0 2.0199e-05
16870.0 2.0123e-05
16890.0 2.0049e-05
16910.0 1.9971e-05
16930.0 1.9892e-05
16950.0 1.9816e-05
16970.0 1.9739e-05
16990.0 1.966e-05
17010.0 1.9582e-05
17030.0 1.9506e-05
17050.0 1.9426e-05
17070.0 1.9346e-05
17090.0 1.9269e-05
17110.0 1.919e-05
17130.0 1.9107e-05
17150.0 1.9028e-05
17170.0 1.8949e-05
17190.0 1.8868e-05
17210.0 1.8786e-05
17230.0 1.8708e-05
17250.0 1.8627e-05
17270.0 1.8543e-05
17290.0 1.8461e-05
17310.0 1.8381e-05
17330.0 1.8297e-05
17350.0 1.8213e-05
17370.0 1.8133e-05
17390.0 1.805e-05
17410.0 1.7965e-05
17430.0 1.7883e-05
17450.0 1.7801e-05
17470.0 1.7714e-05
17490.0 1.7629e-05
17510.0 1.7547e-05
17530.0 1.7462e-05
17550.0 1.7375e-05
17570.0 1.7291e-05
17590.0 1.7208e-05
17610.0 1.7121e-05
17630.0 1.7035e-05
17650.0 1.6951e-05
17670.0 1.6865e-05
17690.0 1.6775e-05
17710.0 1.6691e-05
17730.0 1.6606e-05
17750.0 1.6518e-05
17770.0 1.643e-05
17790.0 1.6346e-05
17810.0 1.6258e-05
17830.0 1.6169e-05
17850.0 1.6083e-05
17870.0 1.5996e-05
17890.0 1.5906e-05
17910.0 1.5817e-05
17930.0 1.5732e-05
17950.0 1.5643e-05
17970.0 1.5554e-05
17990.0 1.5467e-05
18010.0 1.538e-05
18030.0 1.5288e-05
18050.0 1.52e-05
18070.0 1.5113e-05
18090.0 1.5023e-05
18110.0 1.4932e-05
18130.0 1.4845e-05
18150.0 1.4757e-05
18170.0 1.4666e-05
18190.0 1.4577e-05
18210.0 1.449e-05
18230.0 1.4399e-05
18250.0 1.4307e-05
18270.0 1.422e-05
18290.0 1.4131e-05
18310.0 1.404e-05
18330.0 1.3951e-05
18350.0 1.3864e-05
18370.0 1.3772e-05
18390.0 1.3682e-05
18410.0 1.3593e-05
18430.0 1.3504e-05
18450.0 1.3412e-05
18470.0 1.3322e-05
18490.0 1.3235e-05
18510.0 1.3144e-05
18530.0 1.3054e-05
18550.0 1.2966e-05
18570.0 1.2877e-05
18590.0 1.2784e-05
18610.0 1.2695e-05
18630.0 1.2607e-05
18650.0 1.2516e-05
18670.0 1.2425e-05
18690.0 1.2338e-05
18710.0 1.2249e-05
18730.0 1.2158e-05
18750.0 1.207e-05
18770.0 1.1983e-05
18790.0 1.189e-05
18810.0 1.18e-05
18830.0 1.1713e-05
18850.0 1.1624e-05
18870.0 1.1533e-05
18890.0 1.1446e-05
18910.0 1.1359e-05
18930.0 1.1268e-05
18950.0 1.1179e-05
18970.0 1.1093e-05
18990.0 1.1004e-05
19010.0 1.0912e-05
19030.0 1.0826e-05
19050.0 1.0739e-05
19070.0 1.0649e-05
19090.0 1.0561e-05
19110.0 1.0476e-05
19130.0 1.0387e-05
19150.0 1.0298e-05
19170.0 1.0211e-05
19190.0 1.0125e-05
19210.0 1.0035e-05
19230.0 9.9476e-06
19250.0 9.8631e-06
19270.0 9.7756e-06
19290.0 9.6877e-06
19310.0 9.6028e-06
19330.0 9.5173e-06
19350.0 9.4278e-06
19370.0 9.3417e-06
19390.0 9.2572e-06
19410.0 9.1704e-06
19430.0 9.083e-06
19450.0 8.9994e-06
19470.0 8.9146e-06
19490.0 8.8275e-06
19510.0 8.7426e-06
19530.0 8.6593e-06
19550.0 8.5727e-06
19570.0 8.4858e-06
19590.0 8.4031e-06
19610.0 8.319e-06
19630.0 8.2331e-06
19650.0 8.1496e-06
19670.0 8.0676e-06
19690.0 7.9821e-06
19710.0 7.8974e-06
19730.0 7.8153e-06
19750.0 7.732e-06
19770.0 7.646e-06
19790.0 7.5636e-06
19810.0 7.4824e-06
19830.0 7.3983e-06
19850.0 7.3144e-06
19870.0 7.2328e-06
19890.0 7.147e-06
19910.0 7.0561e-06
19930.0 6.9636e-06
19950.0 6.8646e-06
19970.0 6.7522e-06
19990.0 6.6277e-06
20010.0 6.4966e-06
20030.0 6.3493e-06
20050.0 6.1894e-06
20070.0 6.0283e-06
20090.0 5.8669e-06
20110.0 5.6982e-06
20130.0 5.541e-06
20150.0 5.3975e-06
20170.0 5.261e-06
20190.0 5.1348e-06
20210.0 5.026e-06
20230.0 4.9293e-06
20250.0 4.8419e-06
20270.0 4.7692e-06
20290.0 4.71e-06
20310.0 4.6609e-06
20330.0 4.6225e-06
20350.0 4.597e-06
20370.0 4.5811e-06
20390.0 4.575e-06
20410.0 4.5786e-06
20430.0 4.5906e-06
20450.0 4.6126e-06
20470.0 4.6439e-06
20490.0 4.6823e-06
20510.0 4.729e-06
20530.0 4.7857e-06
20550.0 4.8485e-06
20570.0 4.9152e-06
20590.0 4.9906e-06
20610.0 5.0712e-06
20630.0 5.1525e-06
20650.0 5.2374e-06
20670.0 5.3283e-06
20690.0 5.4154e-06
20710.0 5.5002e-06
20730.0 5.5863e-06
20750.0 5.6705e-06
20770.0 5.7482e-06
20790.0 5.8251e-06
20810.0 5.902e-06
20830.0 5.975e-06
20850.0 6.0458e-06
20870.0 6.1202e-06
20890.0 6.1956e-06
20910.0 6.2688e-06
20930.0 6.346e-06
20950.0 6.428e-06
20970.0 6.5097e-06
20990.0 6.5919e-06
21010.0 6.6798e-06
21030.0 6.7662e-06
21050.0 6.8482e-06
21070.0 6.9287e-06
21090.0 7.007e-06
21110.0 7.0747e-06
21130.0 7.1341e-06
21150.0 7.1866e-06
21170.0 7.2282e-06
21190.0 7.2577e-06
21210.0 7.2773e-06
21230.0 7.2851e-06
21250.0 7.2806e-06
21270.0 7.2651e-06
21290.0 7.2377e-06
21310.0 7.1993e-06
21330.0 7.1527e-06
21350.0 7.0953e-06
21370.0 7.028e-06
21390.0 6.9551e-06
21410.0 6.8759e-06
21430.0 6.7859e-06
21450.0 6.6939e-06
21470.0 6.6013e-06
21490.0 6.5039e-06
21510.0 6.4042e-06
21530.0 6.3092e-06
21550.0 6.2154e-06
21570.0 6.1213e-06
21590.0 6.0342e-06
21610.0 5.955e-06
21630.0 5.8805e-06
21650.0 5.813e-06
21670.0 5.759e-06
21690.0 5.7139e-06
21710.0 5.6786e-06
21730.0 5.6555e-06
21750.0 5.644e-06
21770.0 5.6439e-06
21790.0 5.6562e-06
21810.0 5.6794e-06
21830.0 5.7137e-06
21850.0 5.7606e-06
21870.0 5.8165e-06
21890.0 5.8794e-06
21910.0 5.9537e-06
21930.0 6.0361e-06
21950.0 6.1223e-06
21970.0 6.2156e-06
21990.0 6.3189e-06
22010.0 6.4213e-06
22030.0 6.5251e-06
22050.0 6.6344e-06
22070.0 6.7445e-06
22090.0 6.8491e-06
22110.0 6.9549e-06
22130.0 7.0607e-06
22150.0 7.1591e-06
22170.0 7.2512e-06
22190.0 7.3409e-06
22210.0 7.4221e-06
22230.0 7.4904e-06
22250.0 7.5507e-06
22270.0 7.6007e-06
22290.0 7.637e-06
22310.0 7.6605e-06
22330.0 7.671e-06
22350.0 7.6664e-06
22370.0 7.6475e-06
22390.0 7.6133e-06
22410.0 7.5619e-06
22430.0 7.4981e-06
22450.0 7.4207e-06
22470.0 7.3263e-06
22490.0 7.2195e-06
22510.0 7.1046e-06
22530.0 6.9736e-06
22550.0 6.8293e-06
22570.0 6.6823e-06
22590.0 6.5281e-06
22610.0 6.3622e-06
22630.0 6.1936e-06
