#lamb flux
1010.0 6.3526e-07
1030.0 7.0355e-07
1050.0 7.8209e-07
1070.0 8.7051e-07
1090.0 9.7094e-07
1110.0 1.0739e-06
1130.0 1.1776e-06
1150.0 1.2862e-06
1170.0 1.3982e-06
1190.0 1.5045e-06
1210.0 1.6121e-06
1230.0 1.7234e-06
1250.0 1.8324e-06
1270.0 1.9382e-06
1290.0 2.0501e-06
1310.0 2.1618e-06
1330.0 2.269e-06
1350.0 2.3774e-06
1370.0 2.4892e-06
1390.0 2.5983e-06
1410.0 2.7041e-06
1430.0 2.8148e-06
1450.0 2.9254e-06
1470.0 3.0323e-06
1490.0 3.1403e-06
1510.0 3.2543e-06
1530.0 3.3624e-06
1550.0 3.4689e-06
1570.0 3.5791e-06
1590.0 3.6894e-06
1610.0 3.7946e-06
1630.0 3.9031e-06
1650.0 4.0143e-06
1670.0 4.1218e-06
1690.0 4.2278e-06
1710.0 4.3377e-06
1730.0 4.4481e-06
1750.0 4.5516e-06
1770.0 4.658e-06
1790.0 4.7663e-06
1810.0 4.8707e-06
1830.0 4.9729e-06
1850.0 5.0811e-06
1870.0 5.1858e-06
1890.0 5.2864e-06
1910.0 5.3883e-06
1930.0 5.4921e-06
1950.0 5.5901e-06
1970.0 5.6858e-06
1990.0 5.7844e-06
2010.0 5.8799e-06
2030.0 5.9703e-06
2050.0 6.0623e-06
2070.0 6.1553e-06
2090.0 6.2403e-06
2110.0 6.323e-06
2130.0 6.4066e-06
2150.0 6.4859e-06
2170.0 6.5581e-06
2190.0 6.6314e-06
2210.0 6.7023e-06
2230.0 6.7661e-06
2250.0 6.8262e-06
2270.0 6.8872e-06
2290.0 6.9414e-06
2310.0 6.988e-06
2330.0 7.0342e-06
2350.0 7.0782e-06
2370.0 7.1166e-06
2390.0 7.1565e-06
2410.0 7.2066e-06
2430.0 7.2641e-06
2450.0 7.3353e-06
2470.0 7.4354e-06
2490.0 7.5705e-06
2510.0 7.7273e-06
2530.0 7.9305e-06
2550.0 8.2115e-06
2570.0 8.5934e-06
2590.0 9.1258e-06
2610.0 9.9665e-06
2630.0 1.1175e-05
2650.0 1.2721e-05
2670.0 1.4661e-05
2690.0 1.6955e-05
2710.0 1.9279e-05
2730.0 2.1444e-05
2750.0 2.3451e-05
2770.0 2.5049e-05
2790.0 2.6167e-05
2810.0 2.6917e-05
2830.0 2.7375e-05
2850.0 2.7532e-05
2870.0 2.7525e-05
2890.0 2.7427e-05
2910.0 2.7265e-05
2930.0 2.7061e-05
2950.0 2.6853e-05
2970.0 2.6648e-05
2990.0 2.6439e-05
3010.0 0.00079396
3030.0 0.00078823
3050.0 0.0007826
3070.0 0.00077658
3090.0 0.00077025
3110.0 0.00076282
3130.0 0.0007534
3150.0 0.00074135
3170.0 0.00072537
3190.0 0.00070577
3210.0 0.0006838
3230.0 0.00066041
3250.0 0.00063723
3270.0 0.00061998
3290.0 0.00060748
3310.0 0.00060494
3330.0 0.00060954
3350.0 0.00062086
3370.0 0.00063892
3390.0 0.00066286
3410.0 0.00068964
3430.0 0.00072031
3450.0 0.0007561
3470.0 0.00079563
3490.0 0.00083809
3510.0 0.00088645
3530.0 0.00093927
3550.0 0.00099572
3570.0 0.001058
3590.0 0.0011283
3610.0 0.0012066
3630.0 0.0012859
3650.0 0.0013701
3670.0 0.0014469
3690.0 0.0015048
3710.0 0.0015347
3730.0 0.0015201
3750.0 0.0014602
3770.0 0.0014623
3790.0 0.0013978
3810.0 0.0010858
3830.0 0.0010014
3850.0 0.0013361
3870.0 0.0011693
3890.0 0.00095723
3910.0 0.0011195
3930.0 0.0014736
3950.0 0.0016818
3970.0 0.0019524
3990.0 0.0015647
4010.0 0.0024222
4030.0 0.002225
4050.0 0.0020939
4070.0 0.0023824
4090.0 0.0022876
4110.0 0.0022738
4130.0 0.0028031
4150.0 0.0035663
4170.0 0.0029236
4190.0 0.0026128
4210.0 0.0028834
4230.0 0.0035675
4250.0 0.004155
4270.0 0.0044833
4290.0 0.0041142
4310.0 0.0038316
4330.0 0.0038884
4350.0 0.004942
4370.0 0.0059401
4390.0 0.0048435
4410.0 0.0029547
4430.0 0.0021825
4450.0 0.0019689
4470.0 0.0014886
4490.0 0.002252
4510.0 0.0040397
4530.0 0.004844
4550.0 0.0048115
4570.0 0.0045693
4590.0 0.0050629
4610.0 0.0091497
4630.0 0.012495
4650.0 0.011845
4670.0 0.010554
4690.0 0.011102
4710.0 0.011722
4730.0 0.009474
4750.0 0.0061122
4770.0 0.0044211
4790.0 0.004843
4810.0 0.0049458
4830.0 0.0048617
4850.0 0.0053535
4870.0 0.0070788
4890.0 0.008231
4910.0 0.0064098
4930.0 0.0060692
4950.0 0.0069609
4970.0 0.0093922
4990.0 0.0126
5010.0 0.014294
5030.0 0.011344
5050.0 0.0068366
5070.0 0.0048545
5090.0 0.0038611
5110.0 0.0037024
5130.0 0.0042996
5150.0 0.0041844
5170.0 0.003987
5190.0 0.0036478
5210.0 0.0038736
5230.0 0.004672
5250.0 0.005386
5270.0 0.0051691
5290.0 0.0057011
5310.0 0.0073934
5330.0 0.0077434
5350.0 0.0076374
5370.0 0.0086128
5390.0 0.010515
5410.0 0.0091023
5430.0 0.0069842
5450.0 0.0069311
5470.0 0.0081053
5490.0 0.010314
5510.0 0.012783
5530.0 0.014715
5550.0 0.013366
5570.0 0.011935
5590.0 0.009919
5610.0 0.0099531
5630.0 0.010901
5650.0 0.01032
5670.0 0.0096193
5690.0 0.0079419
5710.0 0.0080438
5730.0 0.0077823
5750.0 0.0043003
5770.0 0.0032546
5790.0 0.0039814
5810.0 0.0044153
5830.0 0.0064304
5850.0 0.0081157
5870.0 0.0085534
5890.0 0.0080844
5910.0 0.0077961
5930.0 0.0076212
5950.0 0.007921
5970.0 0.0096104
5990.0 0.0080464
6010.0 0.0062436
6030.0 0.0050772
6050.0 0.0044937
6070.0 0.0052475
6090.0 0.0059837
6110.0 0.006169
6130.0 0.0056385
6150.0 0.0045604
6170.0 0.0039644
6190.0 0.0049382
6210.0 0.0073426
6230.0 0.010229
6250.0 0.010748
6270.0 0.0084157
6290.0 0.0071401
6310.0 0.005489
6330.0 0.0040694
6350.0 0.0039274
6370.0 0.0041426
6390.0 0.0050082
6410.0 0.006309
6430.0 0.0075608
6450.0 0.0092625
6470.0 0.010068
6490.0 0.012214
6510.0 0.013711
6530.0 0.013606
6550.0 0.01252
6570.0 0.01061
6590.0 0.010283
6610.0 0.0086233
6630.0 0.008726
6650.0 0.0083153
6670.0 0.0075957
6690.0 0.0063144
6710.0 0.0060116
6730.0 0.0034358
6750.0 0.003925
6770.0 0.005376
6790.0 0.0069438
6810.0 0.0053703
6830.0 0.0055
6850.0 0.0048109
6870.0 0.0045741
6890.0 0.0040381
6910.0 0.004537
6930.0 0.0042454
6950.0 0.0049245
6970.0 0.0050106
6990.0 0.0055606
7010.0 0.0055859
7030.0 0.0059809
7050.0 0.0052514
7070.0 0.0045915
7090.0 0.0047077
7110.0 0.004774
7130.0 0.0053316
7150.0 0.0060128
7170.0 0.0066541
7190.0 0.0069187
7210.0 0.0061962
7230.0 0.0062723
7250.0 0.0068805
7270.0 0.0076358
7290.0 0.0090793
7310.0 0.0092747
7330.0 0.008423
7350.0 0.0075053
7370.0 0.0058069
7390.0 0.0060555
7410.0 0.0073027
7430.0 0.0082326
7450.0 0.0088601
7470.0 0.0084894
7490.0 0.0076832
7510.0 0.011296
7530.0 0.010149
7550.0 0.009199
7570.0 0.0063418
7590.0 0.0031383
7610.0 0.0023781
7630.0 0.0032473
7650.0 0.0041907
7670.0 0.0062409
7690.0 0.0070424
7710.0 0.0065485
7730.0 0.0064698
7750.0 0.0080641
7770.0 0.0081987
7790.0 0.0076084
7810.0 0.0064874
7830.0 0.0068219
7850.0 0.0071696
7870.0 0.0069286
7890.0 0.0055766
7910.0 0.0039052
7930.0 0.0038448
7950.0 0.0034549
7970.0 0.003008
7990.0 0.0027973
8010.0 0.0025992
8030.0 0.0024896
8050.0 0.0026119
8070.0 0.0027478
8090.0 0.0030978
8110.0 0.0029015
8130.0 0.0020613
8150.0 0.0020111
8170.0 0.0014742
8190.0 0.001224
8210.0 0.0018578
8230.0 0.002118
8250.0 0.0013595
8270.0 0.0011632
8290.0 0.0013475
8310.0 0.0010453
8330.0 0.000653
8350.0 0.00050869
8370.0 0.00028712
8390.0 0.00057282
8410.0 0.00069652
8430.0 0.00086533
8450.0 0.00096761
8470.0 0.0013578
8490.0 0.0011844
8510.0 0.001027
8530.0 0.00076835
8550.0 0.0015457
8570.0 0.0022209
8590.0 0.0018848
8610.0 0.0025733
8630.0 0.0028655
8650.0 0.0021396
8670.0 0.0025872
8690.0 0.0033291
8710.0 0.0029695
8730.0 0.0030627
8750.0 0.0025656
8770.0 0.0023606
8790.0 0.0025121
8810.0 0.0025892
8830.0 0.0017112
8850.0 0.0010695
8870.0 0.00083756
8890.0 0.0012514
8910.0 0.0017079
8930.0 0.0020977
8950.0 0.0023803
8970.0 0.0023391
8990.0 0.0019472
9010.0 0.0014768
9030.0 0.0012791
9050.0 0.0013172
9070.0 0.0013528
9090.0 0.0013807
9110.0 0.0014125
9130.0 0.0014359
9150.0 0.0014535
9170.0 0.0014722
9190.0 0.0014922
9210.0 0.0015131
9230.0 0.0015353
9250.0 0.0015579
9270.0 0.0015814
9290.0 0.0016055
9310.0 0.0016299
9330.0 0.0016547
9350.0 0.0016804
9370.0 0.0017064
9390.0 0.0017328
9410.0 0.0017598
9430.0 0.0017875
9450.0 0.0018153
9470.0 0.0018437
9490.0 0.0018728
9510.0 0.0019023
9530.0 0.001932
9550.0 0.0019627
9570.0 0.0019938
9590.0 0.0020251
9610.0 0.002057
9630.0 0.0020896
9650.0 0.0021225
9670.0 0.0021557
9690.0 0.0021895
9710.0 0.0022239
9730.0 0.0022585
9750.0 0.0022936
9770.0 0.0023295
9790.0 0.0023655
9810.0 0.0024017
9830.0 0.0024386
9850.0 0.0024759
9870.0 0.0025133
9890.0 0.0025511
9910.0 0.0025895
9930.0 0.0026281
9950.0 0.0026668
9970.0 0.0027061
9990.0 0.0027457
10010.0 0.0025389
10030.0 0.0025746
10050.0 0.0026106
10070.0 0.0026462
10090.0 0.0026823
10110.0 0.0027189
10130.0 0.0027555
10150.0 0.002792
10170.0 0.0028285
10190.0 0.0028653
10210.0 0.0029019
10230.0 0.0029384
10250.0 0.002975
10270.0 0.0030115
10290.0 0.0030478
10310.0 0.0030841
10330.0 0.0031205
10350.0 0.0031564
10370.0 0.0031922
10390.0 0.0032279
10410.0 0.0032633
10430.0 0.0032982
10450.0 0.003333
10470.0 0.0033676
10490.0 0.0034017
10510.0 0.0034354
10530.0 0.003469
10550.0 0.003502
10570.0 0.0035343
10590.0 0.0035664
10610.0 0.0035981
10630.0 0.003629
10650.0 0.0036594
10670.0 0.0036895
10690.0 0.0037189
10710.0 0.0037475
10730.0 0.0037757
10750.0 0.0038034
10770.0 0.0038301
10790.0 0.0038561
10810.0 0.0038816
10830.0 0.003906
10850.0 0.0039292
10870.0 0.0039511
10890.0 0.0039704
10910.0 0.0039857
10930.0 0.0039951
10950.0 0.0039953
10970.0 0.0039837
10990.0 0.0039593
11010.0 0.004018
11030.0 0.0039574
11050.0 0.0038826
11070.0 0.003792
11090.0 0.0036822
11110.0 0.0035681
11130.0 0.0034488
11150.0 0.0033204
11170.0 0.0031882
11190.0 0.0030606
11210.0 0.0029295
11230.0 0.0027963
11250.0 0.0026701
11270.0 0.00255
11290.0 0.0024308
11310.0 0.0023189
11330.0 0.0022208
11350.0 0.0021286
11370.0 0.0020435
11390.0 0.0019696
11410.0 0.0019043
11430.0 0.0018428
11450.0 0.0017885
11470.0 0.00174
11490.0 0.0016936
11510.0 0.0016475
11530.0 0.0016034
11550.0 0.0015588
11570.0 0.0015111
11590.0 0.0014616
11610.0 0.0014115
11630.0 0.0013576
11650.0 0.0013007
11670.0 0.001245
11690.0 0.0011891
11710.0 0.0011322
11730.0 0.0010773
11750.0 0.0010267
11770.0 0.00097723
11790.0 0.00093092
11810.0 0.00088991
11830.0 0.00085294
11850.0 0.00081859
11870.0 0.00078922
11890.0 0.0007641
11910.0 0.00074137
11930.0 0.00072105
11950.0 0.00070327
11970.0 0.00068669
11990.0 0.00067043
12010.0 0.00065487
12030.0 0.00063955
12050.0 0.00062363
12070.0 0.00060706
12090.0 0.00059095
12110.0 0.00057452
12130.0 0.00055786
12150.0 0.00054199
12170.0 0.00052735
12190.0 0.00051346
12210.0 0.0005016
12230.0 0.00049231
12250.0 0.00048554
12270.0 0.00048175
12290.0 0.00048118
12310.0 0.00048358
12330.0 0.00048944
12350.0 0.00049846
12370.0 0.00050978
12390.0 0.00052372
12410.0 0.00054087
12430.0 0.00055854
12450.0 0.00057698
12470.0 0.00059676
12490.0 0.00061654
12510.0 0.00063478
12530.0 0.00065274
12550.0 0.00066977
12570.0 0.00068425
12590.0 0.00069641
12610.0 0.00070676
12630.0 0.00071426
12650.0 0.00071836
12670.0 0.00071994
12690.0 0.0007187
12710.0 0.00071458
12730.0 0.00070795
12750.0 0.00069866
12770.0 0.00068712
12790.0 0.00067387
12810.0 0.00065875
12830.0 0.00064184
12850.0 0.00062438
12870.0 0.00060616
12890.0 0.00058675
12910.0 0.0005671
12930.0 0.00054772
12950.0 0.00052759
12970.0 0.0005071
12990.0 0.00048751
13010.0 0.00046806
13030.0 0.00044829
13050.0 0.0004291
13070.0 0.00041088
13090.0 0.00039248
13110.0 0.00037448
13130.0 0.00035766
13150.0 0.00034156
13170.0 0.00032568
13190.0 0.00031133
13210.0 0.0002985
13230.0 0.0002866
13250.0 0.00027612
13270.0 0.00026753
13290.0 0.00026045
13310.0 0.00025501
13330.0 0.00025155
13350.0 0.00024991
13370.0 0.00025013
13390.0 0.00025228
13410.0 0.00025588
13430.0 0.00026105
13450.0 0.00026781
13470.0 0.00027554
13490.0 0.00028387
13510.0 0.00029349
13530.0 0.00030336
13550.0 0.00031288
13570.0 0.00032238
13590.0 0.00033175
13610.0 0.00034014
13630.0 0.00034749
13650.0 0.00035428
13670.0 0.00035993
13690.0 0.00036426
13710.0 0.00036757
13730.0 0.0003699
13750.0 0.0003709
13770.0 0.00037089
13790.0 0.00036994
13810.0 0.00036805
13830.0 0.0003654
13850.0 0.00036195
13870.0 0.00035774
13890.0 0.00035302
13910.0 0.0003478
13930.0 0.0003419
13950.0 0.00033559
13970.0 0.00032922
13990.0 0.00032242
14010.0 0.00031532
14030.0 0.00030833
14050.0 0.00030138
14070.0 0.00029415
14090.0 0.0002873
14110.0 0.00028091
14130.0 0.00027477
14150.0 0.00026903
14170.0 0.00026413
14190.0 0.00025991
14210.0 0.00025632
14230.0 0.00025364
14250.0 0.00025187
14270.0 0.00025095
14290.0 0.00025101
14310.0 0.00025197
14330.0 0.00025379
14350.0 0.00025654
14370.0 0.00026003
14390.0 0.00026406
14410.0 0.00026889
14430.0 0.00027429
14450.0 0.00027992
14470.0 0.00028591
14490.0 0.00029246
14510.0 0.00029894
14530.0 0.00030533
14550.0 0.000312
14570.0 0.00031874
14590.0 0.00032523
14610.0 0.00033188
14630.0 0.00033886
14650.0 0.00034578
14670.0 0.0003528
14690.0 0.00036037
14710.0 0.0003685
14730.0 0.00037667
14750.0 0.00038559
14770.0 0.00039545
14790.0 0.00040578
14810.0 0.00041658
14830.0 0.00042883
14850.0 0.00044159
14870.0 0.00045442
14890.0 0.00046779
14910.0 0.00048152
14930.0 0.00049441
14950.0 0.00050624
14970.0 0.00051724
14990.0 0.00052641
15010.0 0.00053346
15030.0 0.00053875
15050.0 0.00054238
15070.0 0.0005444
15090.0 0.00054543
15110.0 0.00054577
15130.0 0.00054569
15150.0 0.00054542
15170.0 0.00054501
15190.0 0.00054453
15210.0 0.00054409
15230.0 0.00054365
15250.0 0.00054317
15270.0 0.00054272
15290.0 0.00054234
15310.0 0.00054192
15330.0 0.0005415
15350.0 0.00054112
15370.0 0.00054077
15390.0 0.00054034
15410.0 0.00053997
15430.0 0.00053963
15450.0 0.00053926
15470.0 0.00053887
15490.0 0.00053855
15510.0 0.00053823
15530.0 0.00053786
15550.0 0.00053753
15570.0 0.00053723
15590.0 0.00053687
15610.0 0.00053649
15630.0 0.00053619
15650.0 0.00053587
15670.0 0.00053551
15690.0 0.00053517
15710.0 0.00053488
15730.0 0.00053452
15750.0 0.00053415
15770.0 0.00053383
15790.0 0.0005335
15810.0 0.00053309
15830.0 0.00053273
15850.0 0.0005324
15870.0 0.00053202
15890.0 0.00053162
15910.0 0.00053128
15930.0 0.0005309
15950.0 0.00053045
15970.0 0.00053005
15990.0 0.00052966
16010.0 0.00052922
16030.0 0.00052875
16050.0 0.00052835
16070.0 0.0005279
16090.0 0.00052741
16110.0 0.00052695
16130.0 0.0005265
16150.0 0.00052595
16170.0 0.00052542
16190.0 0.00052493
16210.0 0.0005244
16230.0 0.00052381
16250.0 0.00052327
16270.0 0.00052273
16290.0 0.00052211
16310.0 0.00052149
16330.0 0.00052091
16350.0 0.00052028
16370.0 0.00051956
16390.0 0.00051892
16410.0 0.00051827
16430.0 0.00051755
16450.0 0.00051683
16470.0 0.00051615
16490.0 0.00051539
16510.0 0.0005146
16530.0 0.00051384
16550.0 0.00051307
16570.0 0.00051222
16590.0 0.00051137
16610.0 0.00051057
16630.0 0.0005097
16650.0 0.0005088
16670.0 0.00050793
16690.0 0.00050704
16710.0 0.00050605
16730.0 0.00050509
16750.0 0.00050415
16770.0 0.00050315
16790.0 0.00050211
16810.0 0.00050112
16830.0 0.0005001
16850.0 0.00049901
16870.0 0.00049793
16890.0 0.00049688
16910.0 0.00049573
16930.0 0.00049455
16950.0 0.00049343
16970.0 0.00049228
16990.0 0.00049106
17010.0 0.00048986
17030.0 0.00048868
17050.0 0.00048741
17070.0 0.00048613
17090.0 0.00048488
17110.0 0.00048359
17130.0 0.00048222
17150.0 0.00048089
17170.0 0.00047958
17190.0 0.0004782
17210.0 0.0004768
17230.0 0.00047544
17250.0 0.00047403
17270.0 0.00047254
17290.0 0.0004711
17310.0 0.00046966
17330.0 0.00046815
17350.0 0.00046662
17370.0 0.00046515
17390.0 0.00046362
17410.0 0.00046204
17430.0 0.0004605
17450.0 0.00045896
17470.0 0.00045731
17490.0 0.00045568
17510.0 0.00045409
17530.0 0.00045245
17550.0 0.00045076
17570.0 0.00044912
17590.0 0.00044747
17610.0 0.00044574
17630.0 0.00044403
17650.0 0.00044234
17670.0 0.0004406
17690.0 0.00043879
17710.0 0.00043706
17730.0 0.00043531
17750.0 0.0004335
17770.0 0.0004317
17790.0 0.00042995
17810.0 0.0004281
17830.0 0.00042624
17850.0 0.00042442
17870.0 0.00042259
17890.0 0.00042068
17910.0 0.00041879
17930.0 0.00041696
17950.0 0.00041506
17970.0 0.00041314
17990.0 0.00041126
18010.0 0.00040937
18030.0 0.00040738
18050.0 0.00040545
18070.0 0.00040354
18090.0 0.00040157
18110.0 0.00039958
18130.0 0.00039765
18150.0 0.0003957
18170.0 0.00039369
18190.0 0.00039171
18210.0 0.00038975
18230.0 0.00038772
18250.0 0.00038568
18270.0 0.00038371
18290.0 0.0003817
18310.0 0.00037965
18330.0 0.00037764
18350.0 0.00037566
18370.0 0.0003736
18390.0 0.00037154
18410.0 0.00036953
18430.0 0.0003675
18450.0 0.0003654
18470.0 0.00036336
18490.0 0.00036135
18510.0 0.00035927
18530.0 0.00035721
18550.0 0.00035519
18570.0 0.00035313
18590.0 0.00035102
18610.0 0.00034898
18630.0 0.00034694
18650.0 0.00034485
18670.0 0.00034275
18690.0 0.00034074
18710.0 0.00033868
18730.0 0.00033658
18750.0 0.00033454
18770.0 0.00033251
18790.0 0.00033039
18810.0 0.00032831
18830.0 0.00032629
18850.0 0.00032423
18870.0 0.00032213
18890.0 0.0003201
18910.0 0.00031808
18930.0 0.00031599
18950.0 0.00031393
18970.0 0.00031192
18990.0 0.00030987
19010.0 0.00030776
19030.0 0.00030575
19050.0 0.00030374
19070.0 0.00030168
19090.0 0.00029964
19110.0 0.00029767
19130.0 0.00029562
19150.0 0.00029356
19170.0 0.00029157
19190.0 0.00028957
19210.0 0.00028752
19230.0 0.00028551
19250.0 0.00028356
19270.0 0.00028155
19290.0 0.00027954
19310.0 0.00027758
19330.0 0.00027562
19350.0 0.00027359
19370.0 0.00027162
19390.0 0.00026968
19410.0 0.00026771
19430.0 0.00026572
19450.0 0.00026381
19470.0 0.00026188
19490.0 0.00025992
19510.0 0.00025799
19530.0 0.0002561
19550.0 0.00025414
19570.0 0.00025219
19590.0 0.00025032
19610.0 0.00024843
19630.0 0.0002465
19650.0 0.00024463
19670.0 0.00024278
19690.0 0.00024088
19710.0 0.00023899
19730.0 0.00023715
19750.0 0.0002353
19770.0 0.0002334
19790.0 0.00023157
19810.0 0.00022976
19830.0 0.00022791
19850.0 0.00022606
19870.0 0.00022425
19890.0 0.00022236
19910.0 0.00022036
19930.0 0.0002183
19950.0 0.00021607
19970.0 0.00021351
19990.0 0.0002106
20010.0 0.00020457
20030.0 0.00020097
20050.0 0.00019692
20070.0 0.00019265
20090.0 0.00018817
20110.0 0.00018323
20130.0 0.00017832
20150.0 0.00017353
20170.0 0.00016863
20190.0 0.00016374
20210.0 0.00015915
20230.0 0.0001547
20250.0 0.00015028
20270.0 0.00014618
20290.0 0.00014243
20310.0 0.00013886
20330.0 0.00013551
20350.0 0.00013268
20370.0 0.00013014
20390.0 0.00012787
20410.0 0.00012598
20430.0 0.00012447
20450.0 0.00012321
20470.0 0.00012229
20490.0 0.00012169
20510.0 0.00012136
20530.0 0.00012131
20550.0 0.0001215
20570.0 0.00012189
20590.0 0.0001225
20610.0 0.00012329
20630.0 0.0001242
20650.0 0.00012526
20670.0 0.0001265
20690.0 0.00012778
20710.0 0.00012911
20730.0 0.00013055
20750.0 0.00013206
20770.0 0.00013352
20790.0 0.00013504
20810.0 0.00013664
20830.0 0.00013821
20850.0 0.00013975
20870.0 0.00014138
20890.0 0.00014302
20910.0 0.00014458
20930.0 0.00014617
20950.0 0.00014781
20970.0 0.00014939
20990.0 0.00015093
21010.0 0.00015255
21030.0 0.00015413
21050.0 0.00015562
21070.0 0.00015712
21090.0 0.00015864
21110.0 0.00016002
21130.0 0.00016132
21150.0 0.00016261
21170.0 0.00016379
21190.0 0.00016483
21210.0 0.00016581
21230.0 0.00016668
21250.0 0.00016736
21270.0 0.00016788
21290.0 0.00016825
21310.0 0.0001684
21330.0 0.00016833
21350.0 0.00016803
21370.0 0.00016747
21390.0 0.00016666
21410.0 0.00016559
21430.0 0.00016417
21450.0 0.00016248
21470.0 0.00016057
21490.0 0.00015835
21510.0 0.00015583
21530.0 0.00015319
21550.0 0.00015036
21570.0 0.00014727
21590.0 0.00014413
21610.0 0.00014102
21630.0 0.00013781
21650.0 0.00013458
21670.0 0.00013166
21690.0 0.00012885
21710.0 0.00012618
21730.0 0.00012383
21750.0 0.00012182
21770.0 0.00012004
21790.0 0.00011864
21810.0 0.00011764
21830.0 0.00011699
21850.0 0.00011672
21870.0 0.00011683
21890.0 0.00011726
21910.0 0.00011804
21930.0 0.00011915
21950.0 0.00012048
21970.0 0.00012209
21990.0 0.00012402
22010.0 0.00012605
22030.0 0.00012821
22050.0 0.00013057
22070.0 0.00013304
22090.0 0.00013546
22110.0 0.00013797
22130.0 0.00014057
22150.0 0.00014307
22170.0 0.00014549
22190.0 0.00014796
22210.0 0.00015032
22230.0 0.00015244
22250.0 0.00015448
22270.0 0.0001564
22290.0 0.00015807
22310.0 0.00015952
22330.0 0.00016084
22350.0 0.00016188
22370.0 0.00016265
22390.0 0.00016317
22410.0 0.00016342
22430.0 0.00016336
22450.0 0.00016302
22470.0 0.00016237
22490.0 0.00016142
22510.0 0.0001602
22530.0 0.00015863
22550.0 0.00015671
22570.0 0.00015457
22590.0 0.00015215
22610.0 0.00014936
22630.0 0.00014634
22650.0 0.0001432
22670.0 0.00013972
22690.0 0.00013599
22710.0 0.00013221
22730.0 0.00012829
22750.0 0.00012404
22770.0 0.00011985
22790.0 0.00011574
22810.0 0.0001115
22830.0 0.00010726
22850.0 0.00010327
22870.0 9.9339e-05
22890.0 9.5422e-05
22910.0 9.1804e-05
22930.0 8.8481e-05
22950.0 8.5315e-05
22970.0 8.2386e-05
22990.0 7.9958e-05
23010.0 7.7809e-05
23030.0 7.597e-05
23050.0 7.455e-05
23070.0 7.3527e-05
