#lamb flux
1010.0 3.0928e-10
1030.0 3.4206e-10
1050.0 3.7977e-10
1070.0 4.2222e-10
1090.0 4.7044e-10
1110.0 5.1989e-10
1130.0 5.6966e-10
1150.0 6.218e-10
1170.0 6.7558e-10
1190.0 7.2658e-10
1210.0 7.7827e-10
1230.0 8.3168e-10
1250.0 8.8401e-10
1270.0 9.3483e-10
1290.0 9.8853e-10
1310.0 1.0422e-09
1330.0 1.0936e-09
1350.0 1.1457e-09
1370.0 1.1994e-09
1390.0 1.2518e-09
1410.0 1.3026e-09
1430.0 1.3558e-09
1450.0 1.4089e-09
1470.0 1.4603e-09
1490.0 1.5122e-09
1510.0 1.567e-09
1530.0 1.619e-09
1550.0 1.6703e-09
1570.0 1.7233e-09
1590.0 1.7765e-09
1610.0 1.8272e-09
1630.0 1.8796e-09
1650.0 1.9334e-09
1670.0 1.9854e-09
1690.0 2.0368e-09
1710.0 2.0902e-09
1730.0 2.144e-09
1750.0 2.1946e-09
1770.0 2.2467e-09
1790.0 2.3e-09
1810.0 2.3516e-09
1830.0 2.4024e-09
1850.0 2.4563e-09
1870.0 2.509e-09
1890.0 2.56e-09
1910.0 2.6121e-09
1930.0 2.6656e-09
1950.0 2.7167e-09
1970.0 2.7674e-09
1990.0 2.8201e-09
2010.0 2.872e-09
2030.0 2.9222e-09
2050.0 2.9741e-09
2070.0 3.0273e-09
2090.0 3.0777e-09
2110.0 3.128e-09
2130.0 3.18e-09
2150.0 3.231e-09
2170.0 3.28e-09
2190.0 3.3309e-09
2210.0 3.3821e-09
2230.0 3.4314e-09
2250.0 3.4806e-09
2270.0 3.532e-09
2290.0 3.5819e-09
2310.0 3.6299e-09
2330.0 3.6798e-09
2350.0 3.731e-09
2370.0 3.782e-09
2390.0 3.8373e-09
2410.0 3.9028e-09
2430.0 3.9781e-09
2450.0 4.0681e-09
2470.0 4.1835e-09
2490.0 4.3289e-09
2510.0 4.4941e-09
2530.0 4.693e-09
2550.0 4.942e-09
2570.0 5.2518e-09
2590.0 5.6547e-09
2610.0 6.258e-09
2630.0 7.1193e-09
2650.0 8.2455e-09
2670.0 9.7015e-09
2690.0 1.1491e-08
2710.0 1.3401e-08
2730.0 1.5288e-08
2750.0 1.7147e-08
2770.0 1.8764e-08
2790.0 2.0048e-08
2810.0 2.1067e-08
2830.0 2.1863e-08
2850.0 2.2406e-08
2870.0 2.2805e-08
2890.0 2.3121e-08
2910.0 2.3373e-08
2930.0 2.3579e-08
2950.0 2.3776e-08
2970.0 2.3968e-08
2990.0 2.4148e-08
3010.0 6.8256e-07
3030.0 6.8767e-07
3050.0 6.926e-07
3070.0 6.9682e-07
3090.0 7.0045e-07
3110.0 7.0271e-07
3130.0 7.0262e-07
3150.0 6.9949e-07
3170.0 6.92e-07
3190.0 6.8024e-07
3210.0 6.6532e-07
3230.0 6.4824e-07
3250.0 6.3138e-07
3270.0 6.1906e-07
3290.0 6.1222e-07
3310.0 6.1333e-07
3330.0 6.2221e-07
3350.0 6.3767e-07
3370.0 6.5974e-07
3390.0 6.8755e-07
3410.0 7.1782e-07
3430.0 7.5181e-07
3450.0 7.9093e-07
3470.0 8.3366e-07
3490.0 8.7893e-07
3510.0 9.3011e-07
3530.0 9.8491e-07
3550.0 1.0404e-06
3570.0 1.0983e-06
3590.0 1.1612e-06
3610.0 1.2261e-06
3630.0 1.2908e-06
3650.0 1.3578e-06
3670.0 1.4191e-06
3690.0 1.4649e-06
3710.0 1.4911e-06
3730.0 1.492e-06
3750.0 1.4712e-06
3770.0 1.4631e-06
3790.0 1.4544e-06
3810.0 1.4186e-06
3830.0 1.4625e-06
3850.0 1.6353e-06
3870.0 1.7301e-06
3890.0 1.7222e-06
3910.0 1.7296e-06
3930.0 1.7751e-06
3950.0 1.8031e-06
3970.0 1.6428e-06
3990.0 1.4136e-06
4010.0 4.2366e-06
4030.0 5.1333e-06
4050.0 5.885e-06
4070.0 5.1062e-06
4090.0 4.6247e-06
4110.0 4.0808e-06
4130.0 3.756e-06
4150.0 3.9952e-06
4170.0 3.9355e-06
4190.0 4.1949e-06
4210.0 4.1566e-06
4230.0 4.3965e-06
4250.0 5.2012e-06
4270.0 5.2623e-06
4290.0 4.8492e-06
4310.0 5.0386e-06
4330.0 5.3596e-06
4350.0 6.0094e-06
4370.0 6.8388e-06
4390.0 6.4175e-06
4410.0 4.7415e-06
4430.0 4.0139e-06
4450.0 3.6883e-06
4470.0 2.8309e-06
4490.0 3.0549e-06
4510.0 4.6145e-06
4530.0 5.3219e-06
4550.0 5.3681e-06
4570.0 6.0405e-06
4590.0 6.8807e-06
4610.0 9.2804e-06
4630.0 1.2053e-05
4650.0 1.3072e-05
4670.0 1.2106e-05
4690.0 1.1551e-05
4710.0 1.221e-05
4730.0 1.1523e-05
4750.0 8.6149e-06
4770.0 6.3193e-06
4790.0 5.901e-06
4810.0 5.6246e-06
4830.0 5.1493e-06
4850.0 5.6504e-06
4870.0 7.4648e-06
4890.0 8.8031e-06
4910.0 7.7236e-06
4930.0 6.8343e-06
4950.0 7.5085e-06
4970.0 9.6291e-06
4990.0 1.305e-05
5010.0 1.5012e-05
5030.0 1.3237e-05
5050.0 8.9558e-06
5070.0 5.9022e-06
5090.0 4.7593e-06
5110.0 4.8945e-06
5130.0 5.649e-06
5150.0 6.1202e-06
5170.0 6.0284e-06
5190.0 5.6331e-06
5210.0 5.8879e-06
5230.0 6.1896e-06
5250.0 6.6706e-06
5270.0 7.1971e-06
5290.0 7.976e-06
5310.0 9.2838e-06
5330.0 1.0274e-05
5350.0 1.0208e-05
5370.0 1.0723e-05
5390.0 1.2305e-05
5410.0 1.2294e-05
5430.0 1.0872e-05
5450.0 9.9889e-06
5470.0 1.0606e-05
5490.0 1.2958e-05
5510.0 1.6202e-05
5530.0 1.8583e-05
5550.0 1.7961e-05
5570.0 1.6328e-05
5590.0 1.4197e-05
5610.0 1.3093e-05
5630.0 1.2696e-05
5650.0 1.2092e-05
5670.0 1.1458e-05
5690.0 1.0244e-05
5710.0 9.9878e-06
5730.0 9.2003e-06
5750.0 6.4867e-06
5770.0 5.0608e-06
5790.0 5.7349e-06
5810.0 6.4758e-06
5830.0 7.9467e-06
5850.0 9.4597e-06
5870.0 1.0496e-05
5890.0 1.0674e-05
5910.0 1.0472e-05
5930.0 9.9677e-06
5950.0 1.0157e-05
5970.0 1.1578e-05
5990.0 1.0886e-05
6010.0 9.1259e-06
6030.0 7.7101e-06
6050.0 6.7145e-06
6070.0 6.6778e-06
6090.0 7.241e-06
6110.0 8.0966e-06
6130.0 8.2206e-06
6150.0 7.0731e-06
6170.0 6.2221e-06
6190.0 7.0021e-06
6210.0 9.2567e-06
6230.0 1.2147e-05
6250.0 1.3157e-05
6270.0 1.1498e-05
6290.0 9.6736e-06
6310.0 7.5519e-06
6330.0 5.7862e-06
6350.0 5.1612e-06
6370.0 5.4275e-06
6390.0 6.2745e-06
6410.0 7.7368e-06
6430.0 9.0344e-06
6450.0 1.0338e-05
6470.0 1.1837e-05
6490.0 1.4298e-05
6510.0 1.5987e-05
6530.0 1.5684e-05
6550.0 1.4183e-05
6570.0 1.204e-05
6590.0 1.0857e-05
6610.0 9.3614e-06
6630.0 8.4811e-06
6650.0 8.017e-06
6670.0 7.7884e-06
6690.0 7.0372e-06
6710.0 6.397e-06
6730.0 4.6076e-06
6750.0 4.568e-06
6770.0 4.9651e-06
6790.0 5.707e-06
6810.0 5.222e-06
6830.0 5.3772e-06
6850.0 5.0294e-06
6870.0 4.5944e-06
6890.0 4.4113e-06
6910.0 4.7008e-06
6930.0 4.403e-06
6950.0 4.5299e-06
6970.0 4.7646e-06
6990.0 5.4083e-06
7010.0 5.4543e-06
7030.0 5.541e-06
7050.0 5.2842e-06
7070.0 5.0349e-06
7090.0 5.0496e-06
7110.0 5.1957e-06
7130.0 5.5914e-06
7150.0 5.9385e-06
7170.0 6.5527e-06
7190.0 7.2033e-06
7210.0 7.0782e-06
7230.0 7.2765e-06
7250.0 7.8197e-06
7270.0 8.5216e-06
7290.0 1.0114e-05
7310.0 1.0975e-05
7330.0 1.0608e-05
7350.0 9.5945e-06
7370.0 8.3481e-06
7390.0 8.0987e-06
7410.0 8.6064e-06
7430.0 9.5649e-06
7450.0 1.0418e-05
7470.0 1.0322e-05
7490.0 9.4119e-06
7510.0 1.0661e-05
7530.0 1.0545e-05
7550.0 9.4777e-06
7570.0 7.4039e-06
7590.0 5.0899e-06
7610.0 4.3686e-06
7630.0 4.9636e-06
7650.0 5.8688e-06
7670.0 7.3041e-06
7690.0 8.0376e-06
7710.0 8.3762e-06
7730.0 8.8023e-06
7750.0 9.8816e-06
7770.0 1.0037e-05
7790.0 9.2194e-06
7810.0 8.4122e-06
7830.0 8.6748e-06
7850.0 8.4327e-06
7870.0 7.7314e-06
7890.0 6.4958e-06
7910.0 5.2802e-06
7930.0 5.0418e-06
7950.0 4.5932e-06
7970.0 4.2519e-06
7990.0 4.2276e-06
8010.0 3.1311e-07
8030.0 3.0904e-07
8050.0 3.0487e-07
8070.0 3.0886e-07
8090.0 3.3186e-07
8110.0 3.2621e-07
8130.0 2.6908e-07
8150.0 2.6205e-07
8170.0 2.2572e-07
8190.0 2.1392e-07
8210.0 2.7779e-07
8230.0 3.0929e-07
8250.0 2.7876e-07
8270.0 2.4262e-07
8290.0 2.3651e-07
8310.0 1.8203e-07
8330.0 1.2269e-07
8350.0 8.7069e-08
8370.0 5.4858e-08
8390.0 1.0028e-07
8410.0 1.1685e-07
8430.0 1.4404e-07
8450.0 1.6914e-07
8470.0 2.1023e-07
8490.0 2.0875e-07
8510.0 2.0533e-07
8530.0 2.1429e-07
8550.0 2.8912e-07
8570.0 3.4228e-07
8590.0 3.6932e-07
8610.0 4.6653e-07
8630.0 5.62e-07
8650.0 5.8791e-07
8670.0 6.2477e-07
8690.0 6.2827e-07
8710.0 5.6899e-07
8730.0 5.2925e-07
8750.0 4.6716e-07
8770.0 4.4326e-07
8790.0 4.3548e-07
8810.0 4.1729e-07
8830.0 3.3369e-07
8850.0 2.4428e-07
8870.0 1.8704e-07
8890.0 1.8286e-07
8910.0 2.0957e-07
8930.0 2.3837e-07
8950.0 2.4293e-07
8970.0 2.4408e-07
8990.0 2.1769e-07
9010.0 2.2813e-06
9030.0 2.0671e-06
9050.0 2.0771e-06
9070.0 2.0935e-06
9090.0 2.1079e-06
9110.0 2.1256e-06
9130.0 2.1393e-06
9150.0 2.15e-06
9170.0 2.1613e-06
9190.0 2.1735e-06
9210.0 2.1862e-06
9230.0 2.1997e-06
9250.0 2.2134e-06
9270.0 2.2276e-06
9290.0 2.2422e-06
9310.0 2.2569e-06
9330.0 2.2719e-06
9350.0 2.2875e-06
9370.0 2.3033e-06
9390.0 2.3192e-06
9410.0 2.3356e-06
9430.0 2.3524e-06
9450.0 2.3692e-06
9470.0 2.3864e-06
9490.0 2.404e-06
9510.0 2.4219e-06
9530.0 2.4398e-06
9550.0 2.4584e-06
9570.0 2.4773e-06
9590.0 2.4962e-06
9610.0 2.5155e-06
9630.0 2.5353e-06
9650.0 2.5552e-06
9670.0 2.5752e-06
9690.0 2.5957e-06
9710.0 2.6166e-06
9730.0 2.6375e-06
9750.0 2.6586e-06
9770.0 2.6805e-06
9790.0 2.7023e-06
9810.0 2.7242e-06
9830.0 2.7465e-06
9850.0 2.7692e-06
9870.0 2.7918e-06
9890.0 2.8147e-06
9910.0 2.8381e-06
9930.0 2.8614e-06
9950.0 2.8849e-06
9970.0 2.9088e-06
9990.0 2.933e-06
10010.0 2.5451e-06
10030.0 2.566e-06
10050.0 2.5873e-06
10070.0 2.6093e-06
10090.0 2.6301e-06
10110.0 2.6514e-06
10130.0 2.6728e-06
10150.0 2.6941e-06
10170.0 2.7157e-06
10190.0 2.7376e-06
10210.0 2.7593e-06
10230.0 2.7809e-06
10250.0 2.8029e-06
10270.0 2.8249e-06
10290.0 2.8465e-06
10310.0 2.8685e-06
10330.0 2.8907e-06
10350.0 2.9125e-06
10370.0 2.9342e-06
10390.0 2.9562e-06
10410.0 2.978e-06
10430.0 2.9995e-06
10450.0 3.0211e-06
10470.0 3.0429e-06
10490.0 3.0642e-06
10510.0 3.0854e-06
10530.0 3.107e-06
10550.0 3.1282e-06
10570.0 3.1489e-06
10590.0 3.1698e-06
10610.0 3.1906e-06
10630.0 3.2109e-06
10650.0 3.2311e-06
10670.0 3.2515e-06
10690.0 3.2714e-06
10710.0 3.291e-06
10730.0 3.3106e-06
10750.0 3.3302e-06
10770.0 3.349e-06
10790.0 3.3677e-06
10810.0 3.3863e-06
10830.0 3.4044e-06
10850.0 3.4215e-06
10870.0 3.4381e-06
10890.0 3.4528e-06
10910.0 3.464e-06
10930.0 3.4704e-06
10950.0 3.4689e-06
10970.0 3.4572e-06
10990.0 3.4341e-06
11010.0 3.3955e-06
11030.0 3.3415e-06
11050.0 3.2757e-06
11070.0 3.197e-06
11090.0 3.1024e-06
11110.0 3.0045e-06
11130.0 2.9025e-06
11150.0 2.7926e-06
11170.0 2.6793e-06
11190.0 2.5695e-06
11210.0 2.456e-06
11230.0 2.3396e-06
11250.0 2.2285e-06
11270.0 2.1217e-06
11290.0 2.0147e-06
11310.0 1.9134e-06
11330.0 1.8242e-06
11350.0 1.7399e-06
11370.0 1.662e-06
11390.0 1.5946e-06
11410.0 1.5356e-06
11430.0 1.4809e-06
11450.0 1.4337e-06
11470.0 1.3928e-06
11490.0 1.3549e-06
11510.0 1.3183e-06
11530.0 1.2843e-06
11550.0 1.2506e-06
11570.0 1.2146e-06
11590.0 1.1773e-06
11610.0 1.1394e-06
11630.0 1.0981e-06
11650.0 1.0539e-06
11670.0 1.0103e-06
11690.0 9.6614e-07
11710.0 9.2057e-07
11730.0 8.7641e-07
11750.0 8.3553e-07
11770.0 7.9545e-07
11790.0 7.5789e-07
11810.0 7.2482e-07
11830.0 6.9524e-07
11850.0 6.68e-07
11870.0 6.4522e-07
11890.0 6.2628e-07
11910.0 6.0963e-07
11930.0 5.9533e-07
11950.0 5.8341e-07
11970.0 5.7277e-07
11990.0 5.6271e-07
12010.0 5.534e-07
12030.0 5.4443e-07
12050.0 5.3516e-07
12070.0 5.2551e-07
12090.0 5.1621e-07
12110.0 5.0677e-07
12130.0 4.9732e-07
12150.0 4.886e-07
12170.0 4.8098e-07
12190.0 4.744e-07
12210.0 4.6981e-07
12230.0 4.6759e-07
12250.0 4.6795e-07
12270.0 4.7147e-07
12290.0 4.7814e-07
12310.0 4.8771e-07
12330.0 5.011e-07
12350.0 5.178e-07
12370.0 5.3683e-07
12390.0 5.5876e-07
12410.0 5.8446e-07
12430.0 6.1058e-07
12450.0 6.3762e-07
12470.0 6.6638e-07
12490.0 6.9526e-07
12510.0 7.2236e-07
12530.0 7.4932e-07
12550.0 7.7533e-07
12570.0 7.9829e-07
12590.0 8.1844e-07
12610.0 8.364e-07
12630.0 8.5072e-07
12650.0 8.606e-07
12670.0 8.671e-07
12690.0 8.697e-07
12710.0 8.6826e-07
12730.0 8.6323e-07
12750.0 8.5425e-07
12770.0 8.4193e-07
12790.0 8.2698e-07
12810.0 8.0914e-07
12830.0 7.885e-07
12850.0 7.669e-07
12870.0 7.4407e-07
12890.0 7.1937e-07
12910.0 6.9426e-07
12930.0 6.6951e-07
12950.0 6.4369e-07
12970.0 6.174e-07
12990.0 5.9253e-07
13010.0 5.6797e-07
13030.0 5.4314e-07
13050.0 5.1929e-07
13070.0 4.9694e-07
13090.0 4.7452e-07
13110.0 4.5282e-07
13130.0 4.3282e-07
13150.0 4.1388e-07
13170.0 3.9534e-07
13190.0 3.7883e-07
13210.0 3.6431e-07
13230.0 3.5103e-07
13250.0 3.396e-07
13270.0 3.3058e-07
13290.0 3.2357e-07
13310.0 3.1873e-07
13330.0 3.1654e-07
13350.0 3.1679e-07
13370.0 3.1963e-07
13390.0 3.2521e-07
13410.0 3.3276e-07
13430.0 3.4256e-07
13450.0 3.5467e-07
13470.0 3.6812e-07
13490.0 3.8236e-07
13510.0 3.9842e-07
13530.0 4.147e-07
13550.0 4.3029e-07
13570.0 4.4566e-07
13590.0 4.6063e-07
13610.0 4.7396e-07
13630.0 4.8559e-07
13650.0 4.9621e-07
13670.0 5.0502e-07
13690.0 5.1184e-07
13710.0 5.1711e-07
13730.0 5.2088e-07
13750.0 5.2276e-07
13770.0 5.2319e-07
13790.0 5.2224e-07
13810.0 5.1993e-07
13830.0 5.1653e-07
13850.0 5.1191e-07
13870.0 5.0609e-07
13890.0 4.9943e-07
13910.0 4.9193e-07
13930.0 4.8325e-07
13950.0 4.7377e-07
13970.0 4.6407e-07
13990.0 4.5352e-07
14010.0 4.4229e-07
14030.0 4.3109e-07
14050.0 4.1981e-07
14070.0 4.079e-07
14090.0 3.9648e-07
14110.0 3.8575e-07
14130.0 3.7535e-07
14150.0 3.6557e-07
14170.0 3.5721e-07
14190.0 3.4999e-07
14210.0 3.4386e-07
14230.0 3.3932e-07
14250.0 3.3639e-07
14270.0 3.3497e-07
14290.0 3.3527e-07
14310.0 3.3714e-07
14330.0 3.405e-07
14350.0 3.4544e-07
14370.0 3.5159e-07
14390.0 3.5858e-07
14410.0 3.6681e-07
14430.0 3.7584e-07
14450.0 3.8507e-07
14470.0 3.9465e-07
14490.0 4.0483e-07
14510.0 4.1457e-07
14530.0 4.2382e-07
14550.0 4.3306e-07
14570.0 4.4194e-07
14590.0 4.5001e-07
14610.0 4.5783e-07
14630.0 4.6556e-07
14650.0 4.7276e-07
14670.0 4.7972e-07
14690.0 4.8697e-07
14710.0 4.9459e-07
14730.0 5.0222e-07
14750.0 5.1066e-07
14770.0 5.2025e-07
14790.0 5.3063e-07
14810.0 5.4189e-07
14830.0 5.5522e-07
14850.0 5.6971e-07
14870.0 5.8483e-07
14890.0 6.0115e-07
14910.0 6.1847e-07
14930.0 6.3513e-07
14950.0 6.507e-07
14970.0 6.6544e-07
14990.0 6.778e-07
15010.0 6.8725e-07
15030.0 6.9425e-07
15050.0 6.9888e-07
15070.0 7.0114e-07
15090.0 7.0193e-07
15110.0 7.017e-07
15130.0 7.0082e-07
15150.0 6.9963e-07
15170.0 6.9823e-07
15190.0 6.9673e-07
15210.0 6.9525e-07
15230.0 6.9377e-07
15250.0 6.9224e-07
15270.0 6.9072e-07
15290.0 6.8929e-07
15310.0 6.8782e-07
15330.0 6.8633e-07
15350.0 6.849e-07
15370.0 6.8348e-07
15390.0 6.8199e-07
15410.0 6.8054e-07
15430.0 6.7915e-07
15450.0 6.7772e-07
15470.0 6.7627e-07
15490.0 6.7489e-07
15510.0 6.7351e-07
15530.0 6.7209e-07
15550.0 6.707e-07
15570.0 6.6936e-07
15590.0 6.6795e-07
15610.0 6.6653e-07
15630.0 6.652e-07
15650.0 6.6385e-07
15670.0 6.6246e-07
15690.0 6.611e-07
15710.0 6.598e-07
15730.0 6.5843e-07
15750.0 6.5706e-07
15770.0 6.5575e-07
15790.0 6.5443e-07
15810.0 6.5304e-07
15830.0 6.5171e-07
15850.0 6.5042e-07
15870.0 6.4908e-07
15890.0 6.4774e-07
15910.0 6.4646e-07
15930.0 6.4515e-07
15950.0 6.4379e-07
15970.0 6.4248e-07
15990.0 6.412e-07
16010.0 6.3987e-07
16030.0 6.3852e-07
16050.0 6.3726e-07
16070.0 6.3596e-07
16090.0 6.3463e-07
16110.0 6.3333e-07
16130.0 6.3207e-07
16150.0 6.3072e-07
16170.0 6.2939e-07
16190.0 6.2812e-07
16210.0 6.2682e-07
16230.0 6.2548e-07
16250.0 6.2419e-07
16270.0 6.2293e-07
16290.0 6.2159e-07
16310.0 6.2027e-07
16330.0 6.19e-07
16350.0 6.177e-07
16370.0 6.1632e-07
16390.0 6.1504e-07
16410.0 6.1376e-07
16430.0 6.1242e-07
16450.0 6.111e-07
16470.0 6.0983e-07
16490.0 6.085e-07
16510.0 6.0715e-07
16530.0 6.0585e-07
16550.0 6.0455e-07
16570.0 6.0319e-07
16590.0 6.0184e-07
16610.0 6.0056e-07
16630.0 5.9922e-07
16650.0 5.9787e-07
16670.0 5.9656e-07
16690.0 5.9525e-07
16710.0 5.9385e-07
16730.0 5.9251e-07
16750.0 5.9119e-07
16770.0 5.8983e-07
16790.0 5.8844e-07
16810.0 5.8713e-07
16830.0 5.8579e-07
16850.0 5.844e-07
16870.0 5.8304e-07
16890.0 5.8171e-07
16910.0 5.8031e-07
16930.0 5.789e-07
16950.0 5.7755e-07
16970.0 5.7619e-07
16990.0 5.7477e-07
17010.0 5.7339e-07
17030.0 5.7205e-07
17050.0 5.7063e-07
17070.0 5.6921e-07
17090.0 5.6784e-07
17110.0 5.6645e-07
17130.0 5.6498e-07
17150.0 5.6358e-07
17170.0 5.622e-07
17190.0 5.6077e-07
17210.0 5.5933e-07
17230.0 5.5795e-07
17250.0 5.5652e-07
17270.0 5.5504e-07
17290.0 5.5362e-07
17310.0 5.522e-07
17330.0 5.5073e-07
17350.0 5.4925e-07
17370.0 5.4785e-07
17390.0 5.464e-07
17410.0 5.4491e-07
17430.0 5.4347e-07
17450.0 5.4204e-07
17470.0 5.4052e-07
17490.0 5.3903e-07
17510.0 5.3759e-07
17530.0 5.3611e-07
17550.0 5.3459e-07
17570.0 5.3312e-07
17590.0 5.3167e-07
17610.0 5.3014e-07
17630.0 5.2863e-07
17650.0 5.2717e-07
17670.0 5.2566e-07
17690.0 5.2409e-07
17710.0 5.2261e-07
17730.0 5.2112e-07
17750.0 5.1958e-07
17770.0 5.1805e-07
17790.0 5.1658e-07
17810.0 5.1503e-07
17830.0 5.1346e-07
17850.0 5.1195e-07
17870.0 5.1043e-07
17890.0 5.0885e-07
17910.0 5.0729e-07
17930.0 5.058e-07
17950.0 5.0424e-07
17970.0 5.0267e-07
17990.0 5.0114e-07
18010.0 4.9961e-07
18030.0 4.9799e-07
18050.0 4.9643e-07
18070.0 4.949e-07
18090.0 4.9331e-07
18110.0 4.9171e-07
18130.0 4.9017e-07
18150.0 4.8862e-07
18170.0 4.8701e-07
18190.0 4.8543e-07
18210.0 4.8389e-07
18230.0 4.8227e-07
18250.0 4.8064e-07
18270.0 4.7909e-07
18290.0 4.7751e-07
18310.0 4.7589e-07
18330.0 4.743e-07
18350.0 4.7275e-07
18370.0 4.7112e-07
18390.0 4.695e-07
18410.0 4.6793e-07
18430.0 4.6633e-07
18450.0 4.6467e-07
18470.0 4.6307e-07
18490.0 4.615e-07
18510.0 4.5987e-07
18530.0 4.5825e-07
18550.0 4.5668e-07
18570.0 4.5506e-07
18590.0 4.534e-07
18610.0 4.5179e-07
18630.0 4.502e-07
18650.0 4.4855e-07
18670.0 4.469e-07
18690.0 4.4533e-07
18710.0 4.4371e-07
18730.0 4.4206e-07
18750.0 4.4045e-07
18770.0 4.3886e-07
18790.0 4.3718e-07
18810.0 4.3553e-07
18830.0 4.3394e-07
18850.0 4.3231e-07
18870.0 4.3065e-07
18890.0 4.2904e-07
18910.0 4.2744e-07
18930.0 4.2578e-07
18950.0 4.2414e-07
18970.0 4.2254e-07
18990.0 4.209e-07
19010.0 4.192e-07
19030.0 4.1761e-07
19050.0 4.16e-07
19070.0 4.1433e-07
19090.0 4.127e-07
19110.0 4.1112e-07
19130.0 4.0946e-07
19150.0 4.0779e-07
19170.0 4.0618e-07
19190.0 4.0456e-07
19210.0 4.0288e-07
19230.0 4.0124e-07
19250.0 3.9965e-07
19270.0 3.9801e-07
19290.0 3.9635e-07
19310.0 3.9475e-07
19330.0 3.9314e-07
19350.0 3.9144e-07
19370.0 3.8981e-07
19390.0 3.8821e-07
19410.0 3.8656e-07
19430.0 3.849e-07
19450.0 3.8331e-07
19470.0 3.8169e-07
19490.0 3.8003e-07
19510.0 3.7841e-07
19530.0 3.7682e-07
19550.0 3.7515e-07
19570.0 3.7348e-07
19590.0 3.719e-07
19610.0 3.7028e-07
19630.0 3.6862e-07
19650.0 3.6701e-07
19670.0 3.6543e-07
19690.0 3.6377e-07
19710.0 3.6213e-07
19730.0 3.6054e-07
19750.0 3.5892e-07
19770.0 3.5724e-07
19790.0 3.5564e-07
19810.0 3.5405e-07
19830.0 3.524e-07
19850.0 3.5075e-07
19870.0 3.4912e-07
19890.0 3.4738e-07
19910.0 3.4547e-07
19930.0 3.4342e-07
19950.0 3.4107e-07
19970.0 3.3819e-07
19990.0 3.3471e-07
20010.0 2.9779e-07
20030.0 2.9348e-07
20050.0 2.8843e-07
20070.0 2.8297e-07
20090.0 2.7709e-07
20110.0 2.7044e-07
20130.0 2.6371e-07
20150.0 2.5704e-07
20170.0 2.5012e-07
20190.0 2.431e-07
20210.0 2.3647e-07
20230.0 2.3001e-07
20250.0 2.2353e-07
20270.0 2.1752e-07
20290.0 2.1203e-07
20310.0 2.0682e-07
20330.0 2.0194e-07
20350.0 1.979e-07
20370.0 1.943e-07
20390.0 1.9115e-07
20410.0 1.8861e-07
20430.0 1.8665e-07
20450.0 1.851e-07
20470.0 1.8406e-07
20490.0 1.835e-07
20510.0 1.8333e-07
20530.0 1.8356e-07
20550.0 1.8413e-07
20570.0 1.8495e-07
20590.0 1.8607e-07
20610.0 1.8742e-07
20630.0 1.8891e-07
20650.0 1.9058e-07
20670.0 1.9248e-07
20690.0 1.9442e-07
20710.0 1.9643e-07
20730.0 1.9859e-07
20750.0 2.0085e-07
20770.0 2.0307e-07
20790.0 2.0541e-07
20810.0 2.0788e-07
20830.0 2.1033e-07
20850.0 2.128e-07
20870.0 2.1544e-07
20890.0 2.1814e-07
20910.0 2.2074e-07
20930.0 2.2343e-07
20950.0 2.2623e-07
20970.0 2.2895e-07
20990.0 2.3164e-07
21010.0 2.3447e-07
21030.0 2.3723e-07
21050.0 2.3986e-07
21070.0 2.425e-07
21090.0 2.4514e-07
21110.0 2.4755e-07
21130.0 2.4981e-07
21150.0 2.52e-07
21170.0 2.5398e-07
21190.0 2.5569e-07
21210.0 2.5723e-07
21230.0 2.585e-07
21250.0 2.5942e-07
21270.0 2.5999e-07
21290.0 2.6021e-07
21310.0 2.6e-07
21330.0 2.5939e-07
21350.0 2.5831e-07
21370.0 2.5673e-07
21390.0 2.5472e-07
21410.0 2.5226e-07
21430.0 2.4914e-07
21450.0 2.4564e-07
21470.0 2.4183e-07
21490.0 2.3752e-07
21510.0 2.3279e-07
21530.0 2.2799e-07
21550.0 2.2295e-07
21570.0 2.1759e-07
21590.0 2.1231e-07
21610.0 2.0721e-07
21630.0 2.021e-07
21650.0 1.9711e-07
21670.0 1.9279e-07
21690.0 1.888e-07
21710.0 1.8521e-07
21730.0 1.8227e-07
21750.0 1.8e-07
21770.0 1.7827e-07
21790.0 1.7727e-07
21810.0 1.77e-07
21830.0 1.7739e-07
21850.0 1.785e-07
21870.0 1.8023e-07
21890.0 1.8246e-07
21910.0 1.8533e-07
21930.0 1.8869e-07
21950.0 1.9233e-07
21970.0 1.9636e-07
21990.0 2.0089e-07
22010.0 2.0541e-07
22030.0 2.1001e-07
22050.0 2.1483e-07
22070.0 2.1968e-07
22090.0 2.2428e-07
22110.0 2.2891e-07
22130.0 2.3353e-07
22150.0 2.3785e-07
22170.0 2.4192e-07
22190.0 2.4596e-07
22210.0 2.4971e-07
22230.0 2.5301e-07
22250.0 2.5613e-07
22270.0 2.5899e-07
22290.0 2.6144e-07
22310.0 2.6354e-07
22330.0 2.6539e-07
22350.0 2.6682e-07
22370.0 2.6783e-07
22390.0 2.6846e-07
22410.0 2.6866e-07
22430.0 2.6841e-07
22450.0 2.6771e-07
22470.0 2.6652e-07
22490.0 2.6484e-07
22510.0 2.6275e-07
22530.0 2.6007e-07
22550.0 2.5682e-07
22570.0 2.5321e-07
22590.0 2.4913e-07
22610.0 2.4445e-07
22630.0 2.3938e-07
