#lamb flux
1010.0 1.4168e-06
1030.0 1.4226e-06
1050.0 1.4291e-06
1070.0 1.4626e-06
1090.0 1.5547e-06
1110.0 1.6263e-06
1130.0 1.6773e-06
1150.0 1.7183e-06
1170.0 1.7482e-06
1190.0 1.7569e-06
1210.0 1.7589e-06
1230.0 1.7583e-06
1250.0 1.7509e-06
1270.0 1.7375e-06
1290.0 1.7287e-06
1310.0 1.7194e-06
1330.0 1.7072e-06
1350.0 1.6988e-06
1370.0 1.6968e-06
1390.0 1.6978e-06
1410.0 1.7031e-06
1430.0 1.7196e-06
1450.0 1.7456e-06
1470.0 1.7802e-06
1490.0 1.8283e-06
1510.0 1.8948e-06
1530.0 1.9743e-06
1550.0 2.0716e-06
1570.0 2.1924e-06
1590.0 2.3372e-06
1610.0 2.5059e-06
1630.0 2.7082e-06
1650.0 2.9467e-06
1670.0 3.2205e-06
1690.0 3.5351e-06
1710.0 3.9002e-06
1730.0 4.3179e-06
1750.0 4.785e-06
1770.0 5.3161e-06
1790.0 5.9158e-06
1810.0 6.5808e-06
1830.0 7.3156e-06
1850.0 8.1362e-06
1870.0 9.0301e-06
1890.0 9.9944e-06
1910.0 1.1038e-05
1930.0 1.216e-05
1950.0 1.3337e-05
1970.0 1.4568e-05
1990.0 1.586e-05
2010.0 1.7185e-05
2030.0 1.8523e-05
2050.0 1.9881e-05
2070.0 2.1244e-05
2090.0 2.2566e-05
2110.0 2.3849e-05
2130.0 2.5094e-05
2150.0 2.6266e-05
2170.0 2.7342e-05
2190.0 2.8346e-05
2210.0 2.9257e-05
2230.0 3.0049e-05
2250.0 3.0733e-05
2270.0 3.1331e-05
2290.0 3.181e-05
2310.0 3.2168e-05
2330.0 3.2445e-05
2350.0 3.2637e-05
2370.0 3.2731e-05
2390.0 3.2761e-05
2410.0 3.276e-05
2430.0 3.2706e-05
2450.0 3.262e-05
2470.0 3.2545e-05
2490.0 3.25e-05
2510.0 3.2469e-05
2530.0 3.2548e-05
2550.0 3.2852e-05
2570.0 3.3472e-05
2590.0 3.4534e-05
2610.0 3.6404e-05
2630.0 3.9144e-05
2650.0 4.2603e-05
2670.0 4.6888e-05
2690.0 5.1951e-05
2710.0 5.7211e-05
2730.0 6.245e-05
2750.0 6.7953e-05
2770.0 7.3365e-05
2790.0 7.8548e-05
2810.0 8.3853e-05
2830.0 8.9584e-05
2850.0 9.5169e-05
2870.0 0.00010091
2890.0 0.0001071
2910.0 0.00011351
2930.0 0.00011991
2950.0 0.00012678
2970.0 0.00013408
2990.0 0.00014144
3010.0 0.00014905
3030.0 0.00015719
3050.0 0.00016559
3070.0 0.00017378
3090.0 0.00018213
3110.0 0.00019025
3130.0 0.00019751
3150.0 0.00020372
3170.0 0.00020867
3190.0 0.00021213
3210.0 0.00021461
3230.0 0.00021668
3250.0 0.0002191
3270.0 0.0002228
3290.0 0.00022826
3310.0 0.00023593
3330.0 0.0002456
3350.0 0.00025663
3370.0 0.00026885
3390.0 0.0002814
3410.0 0.00029417
3430.0 0.00032
3450.0 0.00033912
3470.0 0.000356
3490.0 0.00036144
3510.0 0.00035671
3530.0 0.00040419
3550.0 0.00048083
3570.0 0.00052864
3590.0 0.0005649
3610.0 0.00056966
3630.0 0.00054036
3650.0 0.00058075
3670.0 0.00069468
3690.0 0.0007806
3710.0 0.00081505
3730.0 0.00083435
3750.0 0.00087776
3770.0 0.00087977
3790.0 0.00084321
3810.0 0.00079363
3830.0 0.00074025
3850.0 0.00073819
3870.0 0.00078328
3890.0 0.00082751
3910.0 0.00086174
3930.0 0.0008721
3950.0 0.00093063
3970.0 0.00099422
3990.0 0.00095782
4010.0 0.00085558
4030.0 0.00075986
4050.0 0.00073146
4070.0 0.00076148
4090.0 0.00076764
4110.0 0.00074608
4130.0 0.00073667
4150.0 0.0007562
4170.0 0.00083474
4190.0 0.00090395
4210.0 0.00087563
4230.0 0.00081734
4250.0 0.00078593
4270.0 0.00076807
4290.0 0.00078171
4310.0 0.00080512
4330.0 0.00076675
4350.0 0.00067448
4370.0 0.00059707
4390.0 0.00054395
4410.0 0.00050213
4430.0 0.00050232
4450.0 0.0005464
4470.0 0.00059083
4490.0 0.00064299
4510.0 0.0007274
4530.0 0.00088986
4550.0 0.001074
4570.0 0.0011846
4590.0 0.0012668
4610.0 0.0013621
4630.0 0.0014082
4650.0 0.0013118
4670.0 0.0011005
4690.0 0.00093543
4710.0 0.00087871
4730.0 0.00084941
4750.0 0.00076115
4770.0 0.00069065
4790.0 0.00071726
4810.0 0.00077947
4830.0 0.00077612
4850.0 0.00071547
4870.0 0.0007008
4890.0 0.00073113
4910.0 0.00076488
4930.0 0.00076401
4950.0 0.00074285
4970.0 0.00070759
4990.0 0.00065038
5010.0 0.00059733
5030.0 0.00056722
5050.0 0.00055328
5070.0 0.00054389
5090.0 0.00053517
5110.0 0.00053439
5130.0 0.00054262
5150.0 0.00057309
5170.0 0.00063287
5190.0 0.00070546
5210.0 0.00078155
5230.0 0.00082794
5250.0 0.00085201
5270.0 0.00089563
5290.0 0.00093806
5310.0 0.00094814
5330.0 0.00091266
5350.0 0.00087145
5370.0 0.0008714
5390.0 0.00091829
5410.0 0.00096359
5430.0 0.00097918
5450.0 0.00097338
5470.0 0.0009449
5490.0 0.00090994
5510.0 0.00089215
5530.0 0.00089585
5550.0 0.00090908
5570.0 0.00091782
5590.0 0.00089046
5610.0 0.00083952
5630.0 0.00078955
5650.0 0.0007503
5670.0 0.00072622
5690.0 0.00069673
5710.0 0.00067414
5730.0 0.0006839
5750.0 0.00068231
5770.0 0.00066793
5790.0 0.0006737
5810.0 0.00068911
5830.0 0.00070355
5850.0 0.00070864
5870.0 0.00069385
5890.0 0.00066403
5910.0 0.00062998
5930.0 0.00058167
5950.0 0.00054707
5970.0 0.00054617
5990.0 0.00056324
6010.0 0.00056943
6030.0 0.00054931
6050.0 0.00054107
6070.0 0.00056194
6090.0 0.00058978
6110.0 0.00060014
6130.0 0.00057963
6150.0 0.00054585
6170.0 0.00052363
6190.0 0.00050165
6210.0 0.00047816
6230.0 0.00046029
6250.0 0.00045481
6270.0 0.00046657
6290.0 0.00048769
6310.0 0.00051484
6330.0 0.00054463
6350.0 0.00056937
6370.0 0.00058045
6390.0 0.0005816
6410.0 0.00058769
6430.0 0.0005949
6450.0 0.0005969
6470.0 0.00060456
6490.0 0.00061382
6510.0 0.00061636
6530.0 0.00060977
6550.0 0.00059252
6570.0 0.00057075
6590.0 0.00055411
6610.0 0.0005418
6630.0 0.000531
6650.0 0.00051273
6670.0 0.00049107
6690.0 0.00047486
6710.0 0.00046482
6730.0 0.00046172
6750.0 0.00045606
6770.0 0.00044691
6790.0 0.00043997
6810.0 0.00043444
6830.0 0.00043329
6850.0 0.00043363
6870.0 0.00043027
6890.0 0.00042758
6910.0 0.00041862
6930.0 0.00040884
6950.0 0.00040658
6970.0 0.00039972
6990.0 0.00038726
7010.0 0.00038133
7030.0 0.00037654
7050.0 0.00036807
7070.0 0.00035802
7090.0 0.00035088
7110.0 0.00035456
7130.0 0.00036837
7150.0 0.00038413
7170.0 0.00039429
7190.0 0.00039133
7210.0 0.00038374
7230.0 0.00037877
7250.0 0.00037375
7270.0 0.00037051
7290.0 0.00036573
7310.0 0.00036338
7330.0 0.00036969
7350.0 0.00037693
7370.0 0.00038077
7390.0 0.00037704
7410.0 0.00036783
7430.0 0.00036336
7450.0 0.00035927
7470.0 0.00034179
7490.0 0.00032905
7510.0 0.00031523
7530.0 0.00030506
7550.0 0.00030372
7570.0 0.00030726
7590.0 0.0003054
7610.0 0.00030233
7630.0 0.000301
7650.0 0.00029972
7670.0 0.00030539
7690.0 0.00031644
7710.0 0.00032954
7730.0 0.00033949
7750.0 0.00034921
7770.0 0.00035401
7790.0 0.00035307
7810.0 0.00034765
7830.0 0.00035129
7850.0 0.00035072
7870.0 0.00033929
7890.0 0.00032703
7910.0 0.00031659
7930.0 0.000306
7950.0 0.00029858
7970.0 0.0002974
7990.0 0.00030104
8010.0 0.00029769
8030.0 0.00029419
8050.0 0.0002891
8070.0 0.0002835
8090.0 0.00027768
8110.0 0.00027797
8130.0 0.00028006
8150.0 0.00027952
8170.0 0.00027742
8190.0 0.00027161
8210.0 0.00025781
8230.0 0.00024034
8250.0 0.00022957
8270.0 0.0002227
8290.0 0.00021838
8310.0 0.00021896
8330.0 0.00022239
8350.0 0.00021755
8370.0 0.00021244
8390.0 0.00021624
8410.0 0.00022605
8430.0 0.00024044
8450.0 0.00025439
8470.0 0.00026001
8490.0 0.00026438
8510.0 0.00026553
8530.0 0.00026694
8550.0 0.00027
8570.0 0.00027134
8590.0 0.00027261
8610.0 0.00028007
8630.0 0.00028303
8650.0 0.00027704
8670.0 0.00027682
8690.0 0.00027889
8710.0 0.00027838
8730.0 0.00027595
8750.0 0.00026812
8770.0 0.00026459
8790.0 0.00026256
8810.0 0.00025935
8830.0 0.00024469
8850.0 0.00022511
8870.0 0.00021078
8890.0 0.00020266
8910.0 0.00019067
8930.0 0.00017748
8950.0 0.00017076
8970.0 0.00016983
8990.0 0.00017069
9010.0 0.00016984
9030.0 0.00016864
9050.0 0.00016753
9070.0 0.00016651
9090.0 0.0001655
9110.0 0.0001645
9130.0 0.00016349
9150.0 0.0001625
9170.0 0.0001615
9190.0 0.00016051
9210.0 0.00015951
9230.0 0.00015853
9250.0 0.00015756
9270.0 0.00015658
9290.0 0.00015561
9310.0 0.00015465
9330.0 0.00015368
9350.0 0.00015272
9370.0 0.00015177
9390.0 0.00015082
9410.0 0.00014987
9430.0 0.00014892
9450.0 0.00014795
9470.0 0.000147
9490.0 0.00014611
9510.0 0.0001452
9530.0 0.00014429
9550.0 0.00014338
9570.0 0.00014248
9590.0 0.00014158
9610.0 0.00014068
9630.0 0.00013979
9650.0 0.0001389
9670.0 0.00013802
9690.0 0.00013714
9710.0 0.00013626
9730.0 0.00013539
9750.0 0.00013453
9770.0 0.00013366
9790.0 0.00013281
9810.0 0.00013196
9830.0 0.00013109
9850.0 0.00013013
9870.0 0.00012932
9890.0 0.00012852
9910.0 0.00012772
9930.0 0.00012689
9950.0 0.00012609
9970.0 0.00012528
9990.0 0.00012444
10010.0 0.00012351
10030.0 0.00012266
10050.0 0.00012191
10070.0 0.00012116
10090.0 0.0001204
10110.0 0.00011958
10130.0 0.00011859
10150.0 0.00011784
10170.0 0.00011713
10190.0 0.00011636
10210.0 0.00011562
10230.0 0.00011487
10250.0 0.00011408
10270.0 0.0001133
10290.0 0.00011255
10310.0 0.00011176
10330.0 0.00011096
10350.0 0.00011019
10370.0 0.00010943
10390.0 0.00010864
10410.0 0.00010785
10430.0 0.00010711
10450.0 0.00010633
10470.0 0.00010554
10490.0 0.00010478
10510.0 0.00010402
10530.0 0.00010322
10550.0 0.00010244
10570.0 0.00010168
10590.0 0.00010091
10610.0 0.00010012
10630.0 9.9357e-05
10650.0 9.8595e-05
10670.0 9.7795e-05
10690.0 9.7014e-05
10710.0 9.6252e-05
10730.0 9.5465e-05
10750.0 9.4652e-05
10770.0 9.389e-05
10790.0 9.3116e-05
10810.0 9.2315e-05
10830.0 9.1528e-05
10850.0 9.0768e-05
10870.0 8.9958e-05
10890.0 8.9153e-05
10910.0 8.8383e-05
10930.0 8.7611e-05
10950.0 8.6822e-05
10970.0 8.6066e-05
10990.0 8.5355e-05
11010.0 8.7048e-05
11030.0 8.6398e-05
11050.0 8.5776e-05
11070.0 8.515e-05
11090.0 8.4484e-05
11110.0 8.3845e-05
11130.0 8.321e-05
11150.0 8.255e-05
11170.0 8.189e-05
11190.0 8.1266e-05
11210.0 8.0639e-05
11230.0 8.0012e-05
11250.0 7.9426e-05
11270.0 7.8871e-05
11290.0 7.8321e-05
11310.0 7.7798e-05
11330.0 7.7328e-05
11350.0 7.6869e-05
11370.0 7.6423e-05
11390.0 7.6006e-05
11410.0 7.5608e-05
11430.0 7.5196e-05
11450.0 7.4793e-05
11470.0 7.4398e-05
11490.0 7.3985e-05
11510.0 7.3545e-05
11530.0 7.3103e-05
11550.0 7.2641e-05
11570.0 7.2135e-05
11590.0 7.1604e-05
11610.0 7.106e-05
11630.0 7.0466e-05
11650.0 6.9826e-05
11670.0 6.9184e-05
11690.0 6.8518e-05
11710.0 6.7807e-05
11730.0 6.7086e-05
11750.0 6.6378e-05
11770.0 6.5635e-05
11790.0 6.4879e-05
11810.0 6.4144e-05
11830.0 6.3412e-05
11850.0 6.2651e-05
11870.0 6.192e-05
11890.0 6.1221e-05
11910.0 6.0515e-05
11930.0 5.9818e-05
11950.0 5.9162e-05
11970.0 5.852e-05
11990.0 5.7874e-05
12010.0 5.7267e-05
12030.0 5.6694e-05
12050.0 5.613e-05
12070.0 5.5583e-05
12090.0 5.5092e-05
12110.0 5.4622e-05
12130.0 5.4171e-05
12150.0 5.3762e-05
12170.0 5.3395e-05
12190.0 5.3047e-05
12210.0 5.2742e-05
12230.0 5.2485e-05
12250.0 5.2266e-05
12270.0 5.2086e-05
12290.0 5.1951e-05
12310.0 5.1855e-05
12330.0 5.1796e-05
12350.0 5.1771e-05
12370.0 5.1772e-05
12390.0 5.1798e-05
12410.0 5.1849e-05
12430.0 5.1905e-05
12450.0 5.1964e-05
12470.0 5.2026e-05
12490.0 5.2079e-05
12510.0 5.2111e-05
12530.0 5.2126e-05
12550.0 5.2115e-05
12570.0 5.2069e-05
12590.0 5.1987e-05
12610.0 5.1862e-05
12630.0 5.169e-05
12650.0 5.1479e-05
12670.0 5.122e-05
12690.0 5.0911e-05
12710.0 5.0567e-05
12730.0 5.0189e-05
12750.0 4.9759e-05
12770.0 4.9304e-05
12790.0 4.8836e-05
12810.0 4.834e-05
12830.0 4.7817e-05
12850.0 4.7305e-05
12870.0 4.679e-05
12890.0 4.6256e-05
12910.0 4.573e-05
12930.0 4.5222e-05
12950.0 4.4701e-05
12970.0 4.4178e-05
12990.0 4.3682e-05
13010.0 4.3193e-05
13030.0 4.2698e-05
13050.0 4.2217e-05
13070.0 4.176e-05
13090.0 4.1298e-05
13110.0 4.0844e-05
13130.0 4.0416e-05
13150.0 4.0001e-05
13170.0 3.9585e-05
13190.0 3.9199e-05
13210.0 3.8841e-05
13230.0 3.8491e-05
13250.0 3.8158e-05
13270.0 3.7854e-05
13290.0 3.7563e-05
13310.0 3.7277e-05
13330.0 3.7012e-05
13350.0 3.6759e-05
13370.0 3.6508e-05
13390.0 3.6258e-05
13410.0 3.6022e-05
13430.0 3.5782e-05
13450.0 3.5535e-05
13470.0 3.529e-05
13490.0 3.5046e-05
13510.0 3.4785e-05
13530.0 3.4522e-05
13550.0 3.4262e-05
13570.0 3.3995e-05
13590.0 3.3717e-05
13610.0 3.3444e-05
13630.0 3.3174e-05
13650.0 3.2893e-05
13670.0 3.2613e-05
13690.0 3.234e-05
13710.0 3.2064e-05
13730.0 3.1775e-05
13750.0 3.1501e-05
13770.0 3.1229e-05
13790.0 3.0949e-05
13810.0 3.0669e-05
13830.0 3.04e-05
13850.0 3.012e-05
13870.0 2.9834e-05
13890.0 2.9556e-05
13910.0 2.9278e-05
13930.0 2.8988e-05
13950.0 2.8697e-05
13970.0 2.8419e-05
13990.0 2.8131e-05
14010.0 2.7837e-05
14030.0 2.7551e-05
14050.0 2.7267e-05
14070.0 2.6966e-05
14090.0 2.6673e-05
14110.0 2.6389e-05
14130.0 2.6101e-05
14150.0 2.581e-05
14170.0 2.5537e-05
14190.0 2.5271e-05
14210.0 2.5004e-05
14230.0 2.4751e-05
14250.0 2.4516e-05
14270.0 2.4283e-05
14290.0 2.406e-05
14310.0 2.386e-05
14330.0 2.3672e-05
14350.0 2.3491e-05
14370.0 2.3324e-05
14390.0 2.3174e-05
14410.0 2.3028e-05
14430.0 2.2889e-05
14450.0 2.2763e-05
14470.0 2.2643e-05
14490.0 2.2522e-05
14510.0 2.2411e-05
14530.0 2.2307e-05
14550.0 2.2203e-05
14570.0 2.21e-05
14590.0 2.2004e-05
14610.0 2.1909e-05
14630.0 2.1812e-05
14650.0 2.172e-05
14670.0 2.1634e-05
14690.0 2.1548e-05
14710.0 2.1467e-05
14730.0 2.1398e-05
14750.0 2.1336e-05
14770.0 2.1284e-05
14790.0 2.1248e-05
14810.0 2.1228e-05
14830.0 2.1225e-05
14850.0 2.1245e-05
14870.0 2.1287e-05
14890.0 2.135e-05
14910.0 2.1435e-05
14930.0 2.1533e-05
14950.0 2.1637e-05
14970.0 2.1747e-05
14990.0 2.1849e-05
15010.0 2.1937e-05
15030.0 2.201e-05
15050.0 2.2067e-05
15070.0 2.2107e-05
15090.0 2.2135e-05
15110.0 2.2156e-05
15130.0 2.2172e-05
15150.0 2.2186e-05
15170.0 2.2198e-05
15190.0 2.221e-05
15210.0 2.2224e-05
15230.0 2.2238e-05
15250.0 2.2251e-05
15270.0 2.2266e-05
15290.0 2.2282e-05
15310.0 2.2299e-05
15330.0 2.2316e-05
15350.0 2.2334e-05
15370.0 2.2353e-05
15390.0 2.2371e-05
15410.0 2.2391e-05
15430.0 2.2412e-05
15450.0 2.2433e-05
15470.0 2.2454e-05
15490.0 2.2477e-05
15510.0 2.2501e-05
15530.0 2.2524e-05
15550.0 2.2548e-05
15570.0 2.2574e-05
15590.0 2.2599e-05
15610.0 2.2624e-05
15630.0 2.2651e-05
15650.0 2.2679e-05
15670.0 2.2706e-05
15690.0 2.2734e-05
15710.0 2.2764e-05
15730.0 2.2793e-05
15750.0 2.2823e-05
15770.0 2.2853e-05
15790.0 2.2884e-05
15810.0 2.2915e-05
15830.0 2.2947e-05
15850.0 2.298e-05
15870.0 2.3012e-05
15890.0 2.3045e-05
15910.0 2.3079e-05
15930.0 2.3113e-05
15950.0 2.3147e-05
15970.0 2.3181e-05
15990.0 2.3217e-05
16010.0 2.3252e-05
16030.0 2.3287e-05
16050.0 2.3324e-05
16070.0 2.3361e-05
16090.0 2.3397e-05
16110.0 2.3434e-05
16130.0 2.3472e-05
16150.0 2.3509e-05
16170.0 2.3546e-05
16190.0 2.3585e-05
16210.0 2.3623e-05
16230.0 2.3661e-05
16250.0 2.37e-05
16270.0 2.3739e-05
16290.0 2.3778e-05
16310.0 2.3816e-05
16330.0 2.3856e-05
16350.0 2.3896e-05
16370.0 2.3934e-05
16390.0 2.3974e-05
16410.0 2.4014e-05
16430.0 2.4053e-05
16450.0 2.4092e-05
16470.0 2.4133e-05
16490.0 2.4172e-05
16510.0 2.4211e-05
16530.0 2.4251e-05
16550.0 2.4291e-05
16570.0 2.433e-05
16590.0 2.4369e-05
16610.0 2.4409e-05
16630.0 2.4449e-05
16650.0 2.4487e-05
16670.0 2.4527e-05
16690.0 2.4566e-05
16710.0 2.4603e-05
16730.0 2.4642e-05
16750.0 2.4681e-05
16770.0 2.4718e-05
16790.0 2.4755e-05
16810.0 2.4793e-05
16830.0 2.4831e-05
16850.0 2.4867e-05
16870.0 2.4904e-05
16890.0 2.494e-05
16910.0 2.4976e-05
16930.0 2.501e-05
16950.0 2.5046e-05
16970.0 2.5081e-05
16990.0 2.5114e-05
17010.0 2.5148e-05
17030.0 2.5182e-05
17050.0 2.5215e-05
17070.0 2.5246e-05
17090.0 2.5279e-05
17110.0 2.531e-05
17130.0 2.534e-05
17150.0 2.537e-05
17170.0 2.54e-05
17190.0 2.5429e-05
17210.0 2.5457e-05
17230.0 2.5485e-05
17250.0 2.5512e-05
17270.0 2.5538e-05
17290.0 2.5564e-05
17310.0 2.5589e-05
17330.0 2.5613e-05
17350.0 2.5636e-05
17370.0 2.5659e-05
17390.0 2.5681e-05
17410.0 2.5702e-05
17430.0 2.5723e-05
17450.0 2.5743e-05
17470.0 2.5761e-05
17490.0 2.5778e-05
17510.0 2.5796e-05
17530.0 2.5812e-05
17550.0 2.5826e-05
17570.0 2.5841e-05
17590.0 2.5855e-05
17610.0 2.5867e-05
17630.0 2.5878e-05
17650.0 2.589e-05
17670.0 2.5899e-05
17690.0 2.5906e-05
17710.0 2.5914e-05
17730.0 2.5921e-05
17750.0 2.5926e-05
17770.0 2.5931e-05
17790.0 2.5935e-05
17810.0 2.5937e-05
17830.0 2.5938e-05
17850.0 2.5938e-05
17870.0 2.5938e-05
17890.0 2.5935e-05
17910.0 2.5931e-05
17930.0 2.5928e-05
17950.0 2.5922e-05
17970.0 2.5915e-05
17990.0 2.5908e-05
18010.0 2.59e-05
18030.0 2.5888e-05
18050.0 2.5877e-05
18070.0 2.5865e-05
18090.0 2.5851e-05
18110.0 2.5835e-05
18130.0 2.582e-05
18150.0 2.5803e-05
18170.0 2.5784e-05
18190.0 2.5764e-05
18210.0 2.5744e-05
18230.0 2.5721e-05
18250.0 2.5697e-05
18270.0 2.5673e-05
18290.0 2.5647e-05
18310.0 2.5619e-05
18330.0 2.559e-05
18350.0 2.5562e-05
18370.0 2.553e-05
18390.0 2.5497e-05
18410.0 2.5464e-05
18430.0 2.5429e-05
18450.0 2.5392e-05
18470.0 2.5355e-05
18490.0 2.5317e-05
18510.0 2.5277e-05
18530.0 2.5235e-05
18550.0 2.5193e-05
18570.0 2.515e-05
18590.0 2.5104e-05
18610.0 2.5058e-05
18630.0 2.5011e-05
18650.0 2.4961e-05
18670.0 2.491e-05
18690.0 2.486e-05
18710.0 2.4808e-05
18730.0 2.4753e-05
18750.0 2.4699e-05
18770.0 2.4643e-05
18790.0 2.4585e-05
18810.0 2.4526e-05
18830.0 2.4466e-05
18850.0 2.4405e-05
18870.0 2.4342e-05
18890.0 2.4279e-05
18910.0 2.4215e-05
18930.0 2.4149e-05
18950.0 2.4082e-05
18970.0 2.4014e-05
18990.0 2.3945e-05
19010.0 2.3873e-05
19030.0 2.3802e-05
19050.0 2.373e-05
19070.0 2.3656e-05
19090.0 2.3581e-05
19110.0 2.3506e-05
19130.0 2.3429e-05
19150.0 2.335e-05
19170.0 2.3271e-05
19190.0 2.3191e-05
19210.0 2.3109e-05
19230.0 2.3027e-05
19250.0 2.2945e-05
19270.0 2.286e-05
19290.0 2.2775e-05
19310.0 2.269e-05
19330.0 2.2603e-05
19350.0 2.2514e-05
19370.0 2.2425e-05
19390.0 2.2336e-05
19410.0 2.2245e-05
19430.0 2.2153e-05
19450.0 2.2061e-05
19470.0 2.1969e-05
19490.0 2.1874e-05
19510.0 2.1779e-05
19530.0 2.1685e-05
19550.0 2.1587e-05
19570.0 2.149e-05
19590.0 2.1393e-05
19610.0 2.1294e-05
19630.0 2.1194e-05
19650.0 2.1095e-05
19670.0 2.0995e-05
19690.0 2.0893e-05
19710.0 2.0791e-05
19730.0 2.0689e-05
19750.0 2.0586e-05
19770.0 2.0481e-05
19790.0 2.0377e-05
19810.0 2.0273e-05
19830.0 2.0166e-05
19850.0 2.0059e-05
19870.0 1.9952e-05
19890.0 1.984e-05
19910.0 1.9722e-05
19930.0 1.9597e-05
19950.0 1.9461e-05
19970.0 1.9305e-05
19990.0 1.9128e-05
20010.0 1.8933e-05
20030.0 1.871e-05
20050.0 1.846e-05
20070.0 1.8197e-05
20090.0 1.792e-05
20110.0 1.762e-05
20130.0 1.7321e-05
20150.0 1.7027e-05
20170.0 1.6727e-05
20190.0 1.6427e-05
20210.0 1.6142e-05
20230.0 1.5861e-05
20250.0 1.558e-05
20270.0 1.5312e-05
20290.0 1.5058e-05
20310.0 1.4809e-05
20330.0 1.4565e-05
20350.0 1.4344e-05
20370.0 1.4131e-05
20390.0 1.3926e-05
20410.0 1.3735e-05
20430.0 1.3559e-05
20450.0 1.3388e-05
20470.0 1.3229e-05
20490.0 1.3084e-05
20510.0 1.2947e-05
20530.0 1.2818e-05
20550.0 1.2699e-05
20570.0 1.2591e-05
20590.0 1.2487e-05
20610.0 1.2391e-05
20630.0 1.2302e-05
20650.0 1.2217e-05
20670.0 1.2137e-05
20690.0 1.206e-05
20710.0 1.1987e-05
20730.0 1.1914e-05
20750.0 1.1843e-05
20770.0 1.1772e-05
20790.0 1.17e-05
20810.0 1.1626e-05
20830.0 1.1549e-05
20850.0 1.147e-05
20870.0 1.1386e-05
20890.0 1.1298e-05
20910.0 1.1206e-05
20930.0 1.1108e-05
20950.0 1.1005e-05
20970.0 1.0897e-05
20990.0 1.0786e-05
21010.0 1.0667e-05
21030.0 1.0545e-05
21050.0 1.042e-05
21070.0 1.029e-05
21090.0 1.0155e-05
21110.0 1.0021e-05
21130.0 9.8856e-06
21150.0 9.7463e-06
21170.0 9.607e-06
21190.0 9.4704e-06
21210.0 9.3314e-06
21230.0 9.1918e-06
21250.0 9.057e-06
21270.0 8.9243e-06
21290.0 8.7914e-06
21310.0 8.6619e-06
21330.0 8.5384e-06
21350.0 8.4156e-06
21370.0 8.2951e-06
21390.0 8.1799e-06
21410.0 8.0683e-06
21430.0 7.9566e-06
21450.0 7.85e-06
21470.0 7.7478e-06
21490.0 7.647e-06
21510.0 7.5481e-06
21530.0 7.4536e-06
21550.0 7.3609e-06
21570.0 7.2686e-06
21590.0 7.1791e-06
21610.0 7.0922e-06
21630.0 7.0057e-06
21650.0 6.9195e-06
21670.0 6.837e-06
21690.0 6.755e-06
21710.0 6.6731e-06
21730.0 6.5928e-06
21750.0 6.5143e-06
21770.0 6.4347e-06
21790.0 6.3559e-06
21810.0 6.2786e-06
21830.0 6.2015e-06
21850.0 6.1235e-06
21870.0 6.0465e-06
21890.0 5.9707e-06
21910.0 5.8935e-06
21930.0 5.8162e-06
21950.0 5.7401e-06
21970.0 5.6634e-06
21990.0 5.5849e-06
22010.0 5.5081e-06
22030.0 5.4318e-06
22050.0 5.3545e-06
22070.0 5.2774e-06
22090.0 5.2024e-06
22110.0 5.1269e-06
22130.0 5.0512e-06
22150.0 4.9774e-06
22170.0 4.9051e-06
22190.0 4.8322e-06
22210.0 4.7606e-06
22230.0 4.692e-06
22250.0 4.6238e-06
22270.0 4.5563e-06
22290.0 4.4911e-06
22310.0 4.4276e-06
22330.0 4.3638e-06
22350.0 4.3017e-06
22370.0 4.2415e-06
22390.0 4.1817e-06
22410.0 4.1219e-06
22430.0 4.0642e-06
22450.0 4.0072e-06
22470.0 3.9498e-06
22490.0 3.8931e-06
22510.0 3.8377e-06
22530.0 3.7815e-06
22550.0 3.7249e-06
22570.0 3.6698e-06
22590.0 3.615e-06
22610.0 3.5595e-06
22630.0 3.5047e-06
22650.0 3.4515e-06
