#lamb flux
1010.0 8.0175e-08
1030.0 8.8264e-08
1050.0 9.7569e-08
1070.0 1.0804e-07
1090.0 1.1994e-07
1110.0 1.3214e-07
1130.0 1.4443e-07
1150.0 1.5729e-07
1170.0 1.7056e-07
1190.0 1.8314e-07
1210.0 1.959e-07
1230.0 2.0908e-07
1250.0 2.2199e-07
1270.0 2.3453e-07
1290.0 2.4778e-07
1310.0 2.6101e-07
1330.0 2.7371e-07
1350.0 2.8655e-07
1370.0 2.998e-07
1390.0 3.1272e-07
1410.0 3.2526e-07
1430.0 3.3837e-07
1450.0 3.5147e-07
1470.0 3.6413e-07
1490.0 3.7692e-07
1510.0 3.9044e-07
1530.0 4.0324e-07
1550.0 4.1586e-07
1570.0 4.2892e-07
1590.0 4.4198e-07
1610.0 4.5445e-07
1630.0 4.673e-07
1650.0 4.8048e-07
1670.0 4.9322e-07
1690.0 5.0578e-07
1710.0 5.1881e-07
1730.0 5.319e-07
1750.0 5.4418e-07
1770.0 5.5679e-07
1790.0 5.6964e-07
1810.0 5.8203e-07
1830.0 5.9416e-07
1850.0 6.0701e-07
1870.0 6.1945e-07
1890.0 6.314e-07
1910.0 6.4353e-07
1930.0 6.5589e-07
1950.0 6.6755e-07
1970.0 6.7896e-07
1990.0 6.9072e-07
2010.0 7.0214e-07
2030.0 7.1295e-07
2050.0 7.2397e-07
2070.0 7.3512e-07
2090.0 7.4534e-07
2110.0 7.5531e-07
2130.0 7.6539e-07
2150.0 7.7499e-07
2170.0 7.8377e-07
2190.0 7.927e-07
2210.0 8.0138e-07
2230.0 8.0923e-07
2250.0 8.1667e-07
2270.0 8.2426e-07
2290.0 8.3106e-07
2310.0 8.37e-07
2330.0 8.4293e-07
2350.0 8.4869e-07
2370.0 8.5387e-07
2390.0 8.5942e-07
2410.0 8.6651e-07
2430.0 8.7493e-07
2450.0 8.8558e-07
2470.0 9.0053e-07
2490.0 9.2064e-07
2510.0 9.4404e-07
2530.0 9.7378e-07
2550.0 1.0137e-06
2570.0 1.0662e-06
2590.0 1.1376e-06
2610.0 1.2482e-06
2630.0 1.4061e-06
2650.0 1.6084e-06
2670.0 1.8633e-06
2690.0 2.1668e-06
2710.0 2.4773e-06
2730.0 2.7696e-06
2750.0 3.0436e-06
2770.0 3.2651e-06
2790.0 3.4233e-06
2810.0 3.5326e-06
2830.0 3.6022e-06
2850.0 3.6306e-06
2870.0 3.6362e-06
2890.0 3.629e-06
2910.0 3.6127e-06
2930.0 3.5904e-06
2950.0 3.5675e-06
2970.0 3.5446e-06
2990.0 3.5213e-06
3010.0 0.00011026
3030.0 0.0001096
3050.0 0.00010895
3070.0 0.00010825
3090.0 0.00010749
3110.0 0.00010658
3130.0 0.00010538
3150.0 0.00010379
3170.0 0.00010163
3190.0 9.8935e-05
3210.0 9.5873e-05
3230.0 9.2571e-05
3250.0 8.9232e-05
3270.0 8.6733e-05
3290.0 8.4843e-05
3310.0 8.4398e-05
3330.0 8.4928e-05
3350.0 8.6405e-05
3370.0 8.8819e-05
3390.0 9.205e-05
3410.0 9.5678e-05
3430.0 9.9837e-05
3450.0 0.00010469
3470.0 0.00011006
3490.0 0.00011584
3510.0 0.00012244
3530.0 0.00012966
3550.0 0.00013742
3570.0 0.00014603
3590.0 0.00015569
3610.0 0.00016652
3630.0 0.00017736
3650.0 0.00018889
3670.0 0.00019932
3690.0 0.00020711
3710.0 0.00021103
3730.0 0.00020872
3750.0 0.00020019
3770.0 0.00020339
3790.0 0.0001968
3810.0 0.00014988
3830.0 0.00014088
3850.0 0.00020371
3870.0 0.00018836
3890.0 0.00014338
3910.0 0.0001498
3930.0 0.00019717
3950.0 0.00023366
3970.0 0.00027129
3990.0 0.00019704
4010.0 0.00033138
4030.0 0.00030674
4050.0 0.00030547
4070.0 0.00035608
4090.0 0.00034042
4110.0 0.0003158
4130.0 0.00039666
4150.0 0.00052633
4170.0 0.00041821
4190.0 0.00036672
4210.0 0.00041308
4230.0 0.00051642
4250.0 0.00061104
4270.0 0.00066456
4290.0 0.0005973
4310.0 0.0005502
4330.0 0.00054825
4350.0 0.00070548
4370.0 0.00085678
4390.0 0.00068191
4410.0 0.00038811
4430.0 0.00027606
4450.0 0.0002541
4470.0 0.00017014
4490.0 0.00028936
4510.0 0.00058594
4530.0 0.00071167
4550.0 0.0006837
4570.0 0.00062047
4590.0 0.0006718
4610.0 0.0013064
4630.0 0.0018189
4650.0 0.0017085
4670.0 0.0015057
4690.0 0.0015687
4710.0 0.0016481
4730.0 0.0013287
4750.0 0.00084852
4770.0 0.00059311
4790.0 0.00066443
4810.0 0.00069427
4830.0 0.00068807
4850.0 0.00075159
4870.0 0.00099537
4890.0 0.0011546
4910.0 0.00088992
4930.0 0.00085872
4950.0 0.00099054
4970.0 0.0013316
4990.0 0.0017927
5010.0 0.0020551
5030.0 0.001625
5050.0 0.00097781
5070.0 0.00069859
5090.0 0.0005404
5110.0 0.00050755
5130.0 0.00060179
5150.0 0.00057783
5170.0 0.00054398
5190.0 0.00048787
5210.0 0.00053401
5230.0 0.00066558
5250.0 0.00077772
5270.0 0.00072191
5290.0 0.00078548
5310.0 0.0010521
5330.0 0.001112
5350.0 0.001095
5370.0 0.0012406
5390.0 0.0015427
5410.0 0.0013106
5430.0 0.00098986
5450.0 0.001
5470.0 0.001177
5490.0 0.0014894
5510.0 0.0018262
5530.0 0.002113
5550.0 0.001901
5570.0 0.0016977
5590.0 0.001394
5610.0 0.0014205
5630.0 0.0015969
5650.0 0.0014874
5670.0 0.0013736
5690.0 0.0011107
5710.0 0.0011398
5730.0 0.0011114
5750.0 0.00059102
5770.0 0.00043019
5790.0 0.00053621
5810.0 0.00057639
5830.0 0.00089134
5850.0 0.0011551
5870.0 0.0012253
5890.0 0.0011557
5910.0 0.0011181
5930.0 0.0010858
5950.0 0.001126
5970.0 0.0013945
5990.0 0.0011415
6010.0 0.00087342
6030.0 0.00070815
6050.0 0.00063104
6070.0 0.00075966
6090.0 0.00086404
6110.0 0.00087828
6130.0 0.00079709
6150.0 0.00062873
6170.0 0.00051057
6190.0 0.00063793
6210.0 0.00099852
6230.0 0.0014484
6250.0 0.0015393
6270.0 0.0011745
6290.0 0.0010028
6310.0 0.00076596
6330.0 0.00055973
6350.0 0.00055083
6370.0 0.00057937
6390.0 0.00070017
6410.0 0.00089821
6430.0 0.0010825
6450.0 0.0013366
6470.0 0.0014213
6490.0 0.0017133
6510.0 0.001924
6530.0 0.0019415
6550.0 0.0017895
6570.0 0.00147
6590.0 0.0014215
6610.0 0.0011799
6630.0 0.0012246
6650.0 0.0011799
6670.0 0.0010458
6690.0 0.00082943
6710.0 0.00080496
6730.0 0.00038695
6750.0 0.00049115
6770.0 0.00074397
6790.0 0.0009855
6810.0 0.00071734
6830.0 0.0007332
6850.0 0.00062007
6870.0 0.00058754
6890.0 0.00050173
6910.0 0.00059183
6930.0 0.0005552
6950.0 0.00066383
6970.0 0.00068
6990.0 0.00075299
7010.0 0.00074098
7030.0 0.00082677
7050.0 0.00071452
7070.0 0.00060338
7090.0 0.00063591
7110.0 0.00065967
7130.0 0.0007523
7150.0 0.00085687
7170.0 0.00095552
7190.0 0.0010023
7210.0 0.00088514
7230.0 0.00089414
7250.0 0.00097047
7270.0 0.0010598
7290.0 0.001286
7310.0 0.0013295
7330.0 0.0012181
7350.0 0.0010863
7370.0 0.00080511
7390.0 0.00084364
7410.0 0.001045
7430.0 0.0011873
7450.0 0.0012767
7470.0 0.0011862
7490.0 0.0010019
7510.0 0.0016017
7530.0 0.0014344
7550.0 0.0013296
7570.0 0.00089485
7590.0 0.00039391
7610.0 0.00027859
7630.0 0.00042054
7650.0 0.00056403
7670.0 0.00089643
7690.0 0.0010077
7710.0 0.00090734
7730.0 0.00089025
7750.0 0.0011614
7770.0 0.0011883
7790.0 0.0010942
7810.0 0.00089562
7830.0 0.00096117
7850.0 0.0010462
7870.0 0.0010245
7890.0 0.00080599
7910.0 0.0005391
7930.0 0.00054967
7950.0 0.00049426
7970.0 0.00041785
7990.0 0.00037764
8010.0 0.00031021
8030.0 0.00029169
8050.0 0.00031051
8070.0 0.00033606
8090.0 0.0003921
8110.0 0.00036704
8130.0 0.00024126
8150.0 0.00024073
8170.0 0.00015844
8190.0 0.00011807
8210.0 0.00021816
8230.0 0.00025497
8250.0 0.00013484
8270.0 0.00011211
8290.0 0.00015724
8310.0 0.0001286
8330.0 7.9365e-05
8350.0 6.301e-05
8370.0 2.5544e-05
8390.0 6.9066e-05
8410.0 8.2387e-05
8430.0 0.00010258
8450.0 0.00011499
8470.0 0.00017539
8490.0 0.0001475
8510.0 0.0001207
8530.0 7.5649e-05
8550.0 0.0001959
8570.0 0.00029451
8590.0 0.00022606
8610.0 0.0003233
8630.0 0.00035501
8650.0 0.00022629
8670.0 0.00029956
8690.0 0.00042527
8710.0 0.0003725
8730.0 0.0003935
8750.0 0.00031922
8770.0 0.00028888
8790.0 0.00031462
8810.0 0.00033285
8830.0 0.00020161
8850.0 0.00010812
8870.0 8.1761e-05
8890.0 0.00015237
8910.0 0.00022406
8930.0 0.00028583
8950.0 0.00032305
8970.0 0.00031441
8990.0 0.00024897
9010.0 0.00018405
9030.0 0.00014868
9050.0 0.00015436
9070.0 0.00015986
9090.0 0.00016425
9110.0 0.00016938
9130.0 0.00017312
9150.0 0.00017584
9170.0 0.00017873
9190.0 0.00018183
9210.0 0.00018508
9230.0 0.00018852
9250.0 0.00019201
9270.0 0.00019562
9290.0 0.00019933
9310.0 0.00020305
9330.0 0.00020684
9350.0 0.00021074
9370.0 0.00021469
9390.0 0.00021866
9410.0 0.00022274
9430.0 0.00022693
9450.0 0.0002311
9470.0 0.00023534
9490.0 0.0002397
9510.0 0.0002441
9530.0 0.00024853
9550.0 0.00025309
9570.0 0.00025772
9590.0 0.00026237
9610.0 0.00026709
9630.0 0.00027193
9650.0 0.00027681
9670.0 0.0002817
9690.0 0.00028671
9710.0 0.00029179
9730.0 0.00029688
9750.0 0.00030205
9770.0 0.00030736
9790.0 0.00031266
9810.0 0.00031799
9830.0 0.00032342
9850.0 0.00032892
9870.0 0.00033441
9890.0 0.00033998
9910.0 0.00034564
9930.0 0.00035131
9950.0 0.000357
9970.0 0.0003628
9990.0 0.00036865
10010.0 0.00033626
10030.0 0.00034146
10050.0 0.00034672
10070.0 0.00035191
10090.0 0.00035718
10110.0 0.00036255
10130.0 0.0003679
10150.0 0.00037323
10170.0 0.00037858
10190.0 0.00038399
10210.0 0.00038935
10230.0 0.00039469
10250.0 0.00040009
10270.0 0.00040546
10290.0 0.00041079
10310.0 0.00041614
10330.0 0.00042153
10350.0 0.00042683
10370.0 0.0004321
10390.0 0.0004374
10410.0 0.00044266
10430.0 0.00044783
10450.0 0.00045301
10470.0 0.00045818
10490.0 0.00046326
10510.0 0.00046828
10530.0 0.00047333
10550.0 0.00047829
10570.0 0.00048315
10590.0 0.00048799
10610.0 0.00049278
10630.0 0.00049745
10650.0 0.00050206
10670.0 0.00050666
10690.0 0.00051115
10710.0 0.00051552
10730.0 0.00051985
10750.0 0.00052414
10770.0 0.00052825
10790.0 0.00053229
10810.0 0.00053627
10830.0 0.0005401
10850.0 0.00054374
10870.0 0.00054723
10890.0 0.00055035
10910.0 0.00055287
10930.0 0.00055456
10950.0 0.00055493
10970.0 0.00055361
10990.0 0.00055041
11010.0 0.00056197
11030.0 0.00055352
11050.0 0.00054298
11070.0 0.00053018
11090.0 0.00051465
11110.0 0.00049852
11130.0 0.00048167
11150.0 0.00046353
11170.0 0.0004449
11190.0 0.00042691
11210.0 0.00040844
11230.0 0.00038965
11250.0 0.00037183
11270.0 0.00035484
11290.0 0.00033794
11310.0 0.00032204
11330.0 0.00030806
11350.0 0.00029489
11370.0 0.00028269
11390.0 0.00027206
11410.0 0.00026266
11430.0 0.0002538
11450.0 0.00024598
11470.0 0.00023902
11490.0 0.00023237
11510.0 0.00022582
11530.0 0.00021959
11550.0 0.00021334
11570.0 0.00020668
11590.0 0.00019981
11610.0 0.00019287
11630.0 0.00018542
11650.0 0.00017755
11670.0 0.00016986
11690.0 0.00016214
11710.0 0.00015425
11730.0 0.00014664
11750.0 0.0001396
11770.0 0.00013271
11790.0 0.00012624
11810.0 0.00012049
11830.0 0.00011529
11850.0 0.00011046
11870.0 0.00010631
11890.0 0.00010276
11910.0 9.9551e-05
11930.0 9.6689e-05
11950.0 9.4196e-05
11970.0 9.1888e-05
11990.0 8.9649e-05
12010.0 8.7525e-05
12030.0 8.5454e-05
12050.0 8.332e-05
12070.0 8.1115e-05
12090.0 7.8978e-05
12110.0 7.6806e-05
12130.0 7.4609e-05
12150.0 7.2518e-05
12170.0 7.0591e-05
12190.0 6.8765e-05
12210.0 6.7211e-05
12230.0 6.5998e-05
12250.0 6.5123e-05
12270.0 6.4651e-05
12290.0 6.4611e-05
12310.0 6.497e-05
12330.0 6.5802e-05
12350.0 6.7065e-05
12370.0 6.8641e-05
12390.0 7.0578e-05
12410.0 7.2961e-05
12430.0 7.5416e-05
12450.0 7.7983e-05
12470.0 8.0741e-05
12490.0 8.3507e-05
12510.0 8.6065e-05
12530.0 8.8595e-05
12550.0 9.1006e-05
12570.0 9.3068e-05
12590.0 9.4814e-05
12610.0 9.6314e-05
12630.0 9.7418e-05
12650.0 9.8043e-05
12670.0 9.8315e-05
12690.0 9.8185e-05
12710.0 9.764e-05
12730.0 9.6731e-05
12750.0 9.5435e-05
12770.0 9.381e-05
12790.0 9.1932e-05
12810.0 8.9779e-05
12830.0 8.7363e-05
12850.0 8.4866e-05
12870.0 8.226e-05
12890.0 7.9486e-05
12910.0 7.6684e-05
12930.0 7.3928e-05
12950.0 7.1076e-05
12970.0 6.8185e-05
12990.0 6.5436e-05
13010.0 6.2717e-05
13030.0 5.9968e-05
13050.0 5.731e-05
13070.0 5.4798e-05
13090.0 5.2267e-05
13110.0 4.9799e-05
13130.0 4.7496e-05
13150.0 4.5293e-05
13170.0 4.3118e-05
13190.0 4.115e-05
13210.0 3.9385e-05
13230.0 3.7741e-05
13250.0 3.6284e-05
13270.0 3.5079e-05
13290.0 3.4077e-05
13310.0 3.329e-05
13330.0 3.2774e-05
13350.0 3.2509e-05
13370.0 3.2498e-05
13390.0 3.2759e-05
13410.0 3.3228e-05
13430.0 3.3924e-05
13450.0 3.4852e-05
13470.0 3.5928e-05
13490.0 3.7102e-05
13510.0 3.8469e-05
13530.0 3.9884e-05
13550.0 4.1261e-05
13570.0 4.2646e-05
13590.0 4.4022e-05
13610.0 4.5265e-05
13630.0 4.6364e-05
13650.0 4.7389e-05
13670.0 4.8253e-05
13690.0 4.893e-05
13710.0 4.9463e-05
13730.0 4.9856e-05
13750.0 5.0055e-05
13770.0 5.0109e-05
13790.0 5.0025e-05
13810.0 4.9805e-05
13830.0 4.947e-05
13850.0 4.902e-05
13870.0 4.8455e-05
13890.0 4.7811e-05
13910.0 4.7092e-05
13930.0 4.6271e-05
13950.0 4.5386e-05
13970.0 4.4488e-05
13990.0 4.3525e-05
14010.0 4.2513e-05
14030.0 4.1514e-05
14050.0 4.0517e-05
14070.0 3.9475e-05
14090.0 3.8484e-05
14110.0 3.7557e-05
14130.0 3.6663e-05
14150.0 3.5822e-05
14170.0 3.5102e-05
14190.0 3.4476e-05
14210.0 3.394e-05
14230.0 3.3533e-05
14250.0 3.3258e-05
14270.0 3.3106e-05
14290.0 3.3095e-05
14310.0 3.3216e-05
14330.0 3.3464e-05
14350.0 3.3848e-05
14370.0 3.4341e-05
14390.0 3.4917e-05
14410.0 3.5609e-05
14430.0 3.6388e-05
14450.0 3.7202e-05
14470.0 3.8067e-05
14490.0 3.9012e-05
14510.0 3.9945e-05
14530.0 4.086e-05
14550.0 4.1807e-05
14570.0 4.2752e-05
14590.0 4.365e-05
14610.0 4.4556e-05
14630.0 4.549e-05
14650.0 4.6399e-05
14670.0 4.7307e-05
14690.0 4.8273e-05
14710.0 4.93e-05
14730.0 5.0329e-05
14750.0 5.1454e-05
14770.0 5.2703e-05
14790.0 5.4026e-05
14810.0 5.5424e-05
14830.0 5.7029e-05
14850.0 5.8729e-05
14870.0 6.0463e-05
14890.0 6.2294e-05
14910.0 6.4201e-05
14930.0 6.6013e-05
14950.0 6.7694e-05
14970.0 6.9274e-05
14990.0 7.0605e-05
15010.0 7.1639e-05
15030.0 7.2426e-05
15050.0 7.2976e-05
15070.0 7.3294e-05
15090.0 7.3469e-05
15110.0 7.3545e-05
15130.0 7.3558e-05
15150.0 7.3544e-05
15170.0 7.3508e-05
15190.0 7.3464e-05
15210.0 7.3424e-05
15230.0 7.3385e-05
15250.0 7.334e-05
15270.0 7.3299e-05
15290.0 7.3268e-05
15310.0 7.3232e-05
15330.0 7.3195e-05
15350.0 7.3165e-05
15370.0 7.3137e-05
15390.0 7.3101e-05
15410.0 7.3071e-05
15430.0 7.3046e-05
15450.0 7.3017e-05
15470.0 7.2986e-05
15490.0 7.2964e-05
15510.0 7.2941e-05
15530.0 7.2913e-05
15550.0 7.2889e-05
15570.0 7.2869e-05
15590.0 7.2843e-05
15610.0 7.2814e-05
15630.0 7.2794e-05
15650.0 7.2773e-05
15670.0 7.2745e-05
15690.0 7.2722e-05
15710.0 7.2704e-05
15730.0 7.2678e-05
15750.0 7.265e-05
15770.0 7.2629e-05
15790.0 7.2606e-05
15810.0 7.2573e-05
15830.0 7.2547e-05
15850.0 7.2525e-05
15870.0 7.2495e-05
15890.0 7.2464e-05
15910.0 7.244e-05
15930.0 7.2411e-05
15950.0 7.2373e-05
15970.0 7.2342e-05
15990.0 7.2312e-05
16010.0 7.2274e-05
16030.0 7.2233e-05
16050.0 7.2201e-05
16070.0 7.2164e-05
16090.0 7.212e-05
16110.0 7.208e-05
16130.0 7.2042e-05
16150.0 7.1991e-05
16170.0 7.1941e-05
16190.0 7.1897e-05
16210.0 7.1848e-05
16230.0 7.1791e-05
16250.0 7.174e-05
16270.0 7.1689e-05
16290.0 7.1628e-05
16310.0 7.1567e-05
16330.0 7.1511e-05
16350.0 7.1447e-05
16370.0 7.1373e-05
16390.0 7.1309e-05
16410.0 7.1243e-05
16430.0 7.1168e-05
16450.0 7.1092e-05
16470.0 7.1023e-05
16490.0 7.0942e-05
16510.0 7.0856e-05
16530.0 7.0775e-05
16550.0 7.0693e-05
16570.0 7.0599e-05
16590.0 7.0505e-05
16610.0 7.0419e-05
16630.0 7.0323e-05
16650.0 7.0222e-05
16670.0 7.0125e-05
16690.0 7.0026e-05
16710.0 6.9913e-05
16730.0 6.9804e-05
16750.0 6.9698e-05
16770.0 6.9583e-05
16790.0 6.9462e-05
16810.0 6.9349e-05
16830.0 6.9231e-05
16850.0 6.9103e-05
16870.0 6.8977e-05
16890.0 6.8854e-05
16910.0 6.8719e-05
16930.0 6.8578e-05
16950.0 6.8446e-05
16970.0 6.8309e-05
16990.0 6.8163e-05
17010.0 6.8019e-05
17030.0 6.7878e-05
17050.0 6.7725e-05
17070.0 6.7569e-05
17090.0 6.7418e-05
17110.0 6.7262e-05
17130.0 6.7094e-05
17150.0 6.6933e-05
17170.0 6.6773e-05
17190.0 6.6603e-05
17210.0 6.643e-05
17230.0 6.6263e-05
17250.0 6.6088e-05
17270.0 6.5904e-05
17290.0 6.5725e-05
17310.0 6.5546e-05
17330.0 6.5358e-05
17350.0 6.5165e-05
17370.0 6.4982e-05
17390.0 6.4791e-05
17410.0 6.4592e-05
17430.0 6.4397e-05
17450.0 6.4204e-05
17470.0 6.3995e-05
17490.0 6.3788e-05
17510.0 6.3587e-05
17530.0 6.3379e-05
17550.0 6.3164e-05
17570.0 6.2954e-05
17590.0 6.2745e-05
17610.0 6.2524e-05
17630.0 6.2304e-05
17650.0 6.2088e-05
17670.0 6.1865e-05
17690.0 6.1631e-05
17710.0 6.1409e-05
17730.0 6.1184e-05
17750.0 6.095e-05
17770.0 6.0717e-05
17790.0 6.0491e-05
17810.0 6.0252e-05
17830.0 6.001e-05
17850.0 5.9774e-05
17870.0 5.9536e-05
17890.0 5.9287e-05
17910.0 5.9041e-05
17930.0 5.8803e-05
17950.0 5.8554e-05
17970.0 5.8303e-05
17990.0 5.8057e-05
18010.0 5.7809e-05
18030.0 5.7548e-05
18050.0 5.7294e-05
18070.0 5.7043e-05
18090.0 5.6785e-05
18110.0 5.6522e-05
18130.0 5.6268e-05
18150.0 5.6011e-05
18170.0 5.5745e-05
18190.0 5.5483e-05
18210.0 5.5225e-05
18230.0 5.4956e-05
18250.0 5.4685e-05
18270.0 5.4424e-05
18290.0 5.4158e-05
18310.0 5.3885e-05
18330.0 5.3618e-05
18350.0 5.3354e-05
18370.0 5.308e-05
18390.0 5.2805e-05
18410.0 5.2538e-05
18430.0 5.2266e-05
18450.0 5.1985e-05
18470.0 5.1713e-05
18490.0 5.1444e-05
18510.0 5.1166e-05
18530.0 5.0889e-05
18550.0 5.0619e-05
18570.0 5.0343e-05
18590.0 5.006e-05
18610.0 4.9784e-05
18630.0 4.9511e-05
18650.0 4.9229e-05
18670.0 4.8947e-05
18690.0 4.8676e-05
18710.0 4.8398e-05
18730.0 4.8116e-05
18750.0 4.784e-05
18770.0 4.7566e-05
18790.0 4.728e-05
18810.0 4.6999e-05
18830.0 4.6725e-05
18850.0 4.6445e-05
18870.0 4.6162e-05
18890.0 4.5887e-05
18910.0 4.5612e-05
18930.0 4.5329e-05
18950.0 4.505e-05
18970.0 4.4776e-05
18990.0 4.4497e-05
19010.0 4.4211e-05
19030.0 4.3938e-05
19050.0 4.3664e-05
19070.0 4.3383e-05
19090.0 4.3106e-05
19110.0 4.2836e-05
19130.0 4.2557e-05
19150.0 4.2277e-05
19170.0 4.2005e-05
19190.0 4.1732e-05
19210.0 4.1452e-05
19230.0 4.1176e-05
19250.0 4.0909e-05
19270.0 4.0635e-05
19290.0 4.0359e-05
19310.0 4.0091e-05
19330.0 3.9823e-05
19350.0 3.9544e-05
19370.0 3.9274e-05
19390.0 3.9008e-05
19410.0 3.8737e-05
19430.0 3.8465e-05
19450.0 3.8202e-05
19470.0 3.7937e-05
19490.0 3.7666e-05
19510.0 3.7401e-05
19530.0 3.7141e-05
19550.0 3.6872e-05
19570.0 3.6603e-05
19590.0 3.6345e-05
19610.0 3.6084e-05
19630.0 3.5819e-05
19650.0 3.556e-05
19670.0 3.5306e-05
19690.0 3.5042e-05
19710.0 3.4782e-05
19730.0 3.4528e-05
19750.0 3.4272e-05
19770.0 3.4009e-05
19790.0 3.3756e-05
19810.0 3.3506e-05
19830.0 3.325e-05
19850.0 3.2994e-05
19870.0 3.2743e-05
19890.0 3.2481e-05
19910.0 3.2202e-05
19930.0 3.1914e-05
19950.0 3.1602e-05
19970.0 3.124e-05
19990.0 3.0827e-05
20010.0 2.9414e-05
20030.0 2.8907e-05
20050.0 2.8334e-05
20070.0 2.7728e-05
20090.0 2.7089e-05
20110.0 2.6384e-05
20130.0 2.568e-05
20150.0 2.4991e-05
20170.0 2.4286e-05
20190.0 2.358e-05
20210.0 2.2916e-05
20230.0 2.2272e-05
20250.0 2.1631e-05
20270.0 2.1036e-05
20290.0 2.0492e-05
20310.0 1.9973e-05
20330.0 1.9485e-05
20350.0 1.9074e-05
20370.0 1.8703e-05
20390.0 1.8372e-05
20410.0 1.8096e-05
20430.0 1.7873e-05
20450.0 1.7687e-05
20470.0 1.7549e-05
20490.0 1.7458e-05
20510.0 1.7405e-05
20530.0 1.7391e-05
20550.0 1.7413e-05
20570.0 1.7463e-05
20590.0 1.7545e-05
20610.0 1.7654e-05
20630.0 1.778e-05
20650.0 1.7926e-05
20670.0 1.81e-05
20690.0 1.828e-05
20710.0 1.8467e-05
20730.0 1.8671e-05
20750.0 1.8885e-05
20770.0 1.9092e-05
20790.0 1.9309e-05
20810.0 1.9537e-05
20830.0 1.976e-05
20850.0 1.998e-05
20870.0 2.0214e-05
20890.0 2.0448e-05
20910.0 2.067e-05
20930.0 2.0897e-05
20950.0 2.1131e-05
20970.0 2.1355e-05
20990.0 2.1574e-05
21010.0 2.1804e-05
21030.0 2.2027e-05
21050.0 2.2238e-05
21070.0 2.2448e-05
21090.0 2.266e-05
21110.0 2.2852e-05
21130.0 2.3033e-05
21150.0 2.321e-05
21170.0 2.3372e-05
21190.0 2.3512e-05
21210.0 2.3642e-05
21230.0 2.3756e-05
21250.0 2.384e-05
21270.0 2.3901e-05
21290.0 2.3938e-05
21310.0 2.3942e-05
21330.0 2.3914e-05
21350.0 2.3851e-05
21370.0 2.375e-05
21390.0 2.3612e-05
21410.0 2.3436e-05
21430.0 2.3208e-05
21450.0 2.2943e-05
21470.0 2.2648e-05
21490.0 2.2308e-05
21510.0 2.1928e-05
21530.0 2.1533e-05
21550.0 2.1113e-05
21570.0 2.0658e-05
21590.0 2.0201e-05
21610.0 1.9751e-05
21630.0 1.9292e-05
21650.0 1.8833e-05
21670.0 1.8423e-05
21690.0 1.8033e-05
21710.0 1.7668e-05
21730.0 1.7351e-05
21750.0 1.7085e-05
21770.0 1.6856e-05
21790.0 1.6684e-05
21810.0 1.657e-05
21830.0 1.6509e-05
21850.0 1.6503e-05
21870.0 1.6551e-05
21890.0 1.6643e-05
21910.0 1.6786e-05
21930.0 1.6974e-05
21950.0 1.7192e-05
21970.0 1.7447e-05
21990.0 1.7746e-05
22010.0 1.8056e-05
22030.0 1.8379e-05
22050.0 1.873e-05
22070.0 1.9091e-05
22090.0 1.9442e-05
22110.0 1.9803e-05
22130.0 2.0173e-05
22150.0 2.0525e-05
22170.0 2.0863e-05
22190.0 2.1206e-05
22210.0 2.1531e-05
22230.0 2.1821e-05
22250.0 2.2098e-05
22270.0 2.2357e-05
22290.0 2.2581e-05
22310.0 2.2775e-05
22330.0 2.2949e-05
22350.0 2.3085e-05
22370.0 2.3183e-05
22390.0 2.3248e-05
22410.0 2.3276e-05
22430.0 2.3261e-05
22450.0 2.3208e-05
22470.0 2.3111e-05
22490.0 2.2973e-05
22510.0 2.2798e-05
22530.0 2.2573e-05
22550.0 2.23e-05
22570.0 2.1996e-05
22590.0 2.1652e-05
22610.0 2.1258e-05
22630.0 2.0829e-05
22650.0 2.0385e-05
22670.0 1.9893e-05
22690.0 1.9367e-05
22710.0 1.8834e-05
