#lamb flux
1010.0 1.4335e-06
1030.0 1.5277e-06
1050.0 1.7174e-06
1070.0 1.9302e-06
1090.0 2.1527e-06
1110.0 2.3814e-06
1130.0 2.6114e-06
1150.0 2.8518e-06
1170.0 3.0977e-06
1190.0 3.3251e-06
1210.0 3.5493e-06
1230.0 3.7732e-06
1250.0 3.9855e-06
1270.0 4.1788e-06
1290.0 4.3726e-06
1310.0 4.5529e-06
1330.0 4.7111e-06
1350.0 4.8618e-06
1370.0 5.0124e-06
1390.0 5.1531e-06
1410.0 5.2874e-06
1430.0 5.4357e-06
1450.0 5.5924e-06
1470.0 5.7552e-06
1490.0 5.9375e-06
1510.0 6.1525e-06
1530.0 6.3811e-06
1550.0 6.6348e-06
1570.0 6.9262e-06
1590.0 7.251e-06
1610.0 7.6024e-06
1630.0 8.0033e-06
1650.0 8.4477e-06
1670.0 8.9223e-06
1690.0 9.4304e-06
1710.0 9.9827e-06
1730.0 1.0569e-05
1750.0 1.1167e-05
1770.0 1.1795e-05
1790.0 1.2446e-05
1810.0 1.3097e-05
1830.0 1.3743e-05
1850.0 1.4399e-05
1870.0 1.5028e-05
1890.0 1.5619e-05
1910.0 1.6178e-05
1930.0 1.6697e-05
1950.0 1.7145e-05
1970.0 1.7524e-05
1990.0 1.7846e-05
2010.0 1.8087e-05
2030.0 1.824e-05
2050.0 1.8325e-05
2070.0 1.8343e-05
2090.0 1.827e-05
2110.0 1.813e-05
2130.0 1.7939e-05
2150.0 1.769e-05
2170.0 1.7386e-05
2190.0 1.7059e-05
2210.0 1.6709e-05
2230.0 1.6334e-05
2250.0 1.5953e-05
2270.0 1.5584e-05
2290.0 1.5218e-05
2310.0 1.4862e-05
2330.0 1.4535e-05
2350.0 1.4239e-05
2370.0 1.3969e-05
2390.0 1.374e-05
2410.0 1.3566e-05
2430.0 1.3436e-05
2450.0 1.336e-05
2470.0 1.3355e-05
2490.0 1.3429e-05
2510.0 1.3572e-05
2530.0 1.3825e-05
2550.0 1.4247e-05
2570.0 1.4883e-05
2590.0 1.5805e-05
2610.0 1.723e-05
2630.0 1.9215e-05
2650.0 2.169e-05
2670.0 2.4721e-05
2690.0 2.8255e-05
2710.0 3.1886e-05
2730.0 3.5409e-05
2750.0 3.8876e-05
2770.0 4.202e-05
2790.0 4.4791e-05
2810.0 4.7389e-05
2830.0 4.9985e-05
2850.0 5.2521e-05
2870.0 5.5178e-05
2890.0 5.8091e-05
2910.0 6.123e-05
2930.0 6.4521e-05
2950.0 6.812e-05
2970.0 7.2011e-05
2990.0 7.6072e-05
3010.0 9.1049e-05
3030.0 9.6258e-05
3050.0 0.0001017
3070.0 0.00010711
3090.0 0.00011259
3110.0 0.00011783
3130.0 0.00012242
3150.0 0.00012616
3170.0 0.00012855
3190.0 0.00013262
3210.0 0.00014628
3230.0 0.0001674
3250.0 0.00017618
3270.0 0.00016693
3290.0 0.00015226
3310.0 0.0001446
3330.0 0.00014147
3350.0 0.00014124
3370.0 0.00014198
3390.0 0.00014372
3410.0 0.00014463
3430.0 0.00014011
3450.0 0.0001385
3470.0 0.00013806
3490.0 0.00015457
3510.0 0.00020352
3530.0 0.00025251
3550.0 0.00028772
3570.0 0.00032115
3590.0 0.00034045
3610.0 0.00033823
3630.0 0.00033215
3650.0 0.00034917
3670.0 0.0003985
3690.0 0.00045868
3710.0 0.00051177
3730.0 0.00055599
3750.0 0.00059536
3770.0 0.00058822
3790.0 0.00054743
3810.0 0.00050659
3830.0 0.00046697
3850.0 0.00045091
3870.0 0.00047241
3890.0 0.00051882
3910.0 0.00056634
3930.0 0.00061785
3950.0 0.00069296
3970.0 0.00074724
3990.0 0.00072422
4010.0 0.00065728
4030.0 0.00057755
4050.0 0.00052893
4070.0 0.00050807
4090.0 0.00049788
4110.0 0.00050474
4130.0 0.00050529
4150.0 0.00050755
4170.0 0.00052868
4190.0 0.00056427
4210.0 0.00056369
4230.0 0.00055548
4250.0 0.00055694
4270.0 0.00057307
4290.0 0.000603
4310.0 0.0006314
4330.0 0.00061471
4350.0 0.00056062
4370.0 0.0005075
4390.0 0.00045469
4410.0 0.00040201
4430.0 0.00038117
4450.0 0.00038888
4470.0 0.00040532
4490.0 0.00043341
4510.0 0.00049455
4530.0 0.00062135
4550.0 0.00080965
4570.0 0.00094627
4590.0 0.0010442
4610.0 0.0011874
4630.0 0.0012972
4650.0 0.0012558
4670.0 0.0010977
4690.0 0.00093167
4710.0 0.00081708
4730.0 0.00074255
4750.0 0.00066967
4770.0 0.00061524
4790.0 0.00063353
4810.0 0.00068359
4830.0 0.00070354
4850.0 0.00068811
4870.0 0.00070499
4890.0 0.00075361
4910.0 0.00079791
4930.0 0.00082656
4950.0 0.00083149
4970.0 0.00079806
4990.0 0.00072844
5010.0 0.00065204
5030.0 0.00058817
5050.0 0.0005458
5070.0 0.00051707
5090.0 0.00049483
5110.0 0.00048807
5130.0 0.00048787
5150.0 0.00049596
5170.0 0.00053252
5190.0 0.00059159
5210.0 0.00066911
5230.0 0.00073888
5250.0 0.00079861
5270.0 0.0008659
5290.0 0.00093647
5310.0 0.000981
5330.0 0.00098632
5350.0 0.00096589
5370.0 0.00096375
5390.0 0.001004
5410.0 0.0010781
5430.0 0.0011559
5450.0 0.0012228
5470.0 0.0012674
5490.0 0.0012767
5510.0 0.0012688
5530.0 0.0012599
5550.0 0.0012512
5570.0 0.0012335
5590.0 0.0012107
5610.0 0.0011807
5630.0 0.0011303
5650.0 0.0010568
5670.0 0.0009894
5690.0 0.00095179
5710.0 0.00093334
5730.0 0.00091004
5750.0 0.00089599
5770.0 0.00089921
5790.0 0.00091277
5810.0 0.00091766
5830.0 0.00092432
5850.0 0.00093121
5870.0 0.00091747
5890.0 0.00089902
5910.0 0.0008742
5930.0 0.00081487
5950.0 0.00074293
5970.0 0.00069273
5990.0 0.00067109
6010.0 0.00065784
6030.0 0.00063583
6050.0 0.00062473
6070.0 0.00064975
6090.0 0.00068655
6110.0 0.00070448
6130.0 0.00069853
6150.0 0.00068497
6170.0 0.00067761
6190.0 0.00066955
6210.0 0.00064662
6230.0 0.00060305
6250.0 0.00056081
6270.0 0.00053564
6290.0 0.00051936
6310.0 0.00053097
6330.0 0.00057572
6350.0 0.00063197
6370.0 0.00067241
6390.0 0.0007051
6410.0 0.00074407
6430.0 0.00077395
6450.0 0.00079491
6470.0 0.00081531
6490.0 0.00083537
6510.0 0.00084951
6530.0 0.00085522
6550.0 0.00086008
6570.0 0.00084831
6590.0 0.00081724
6610.0 0.00078711
6630.0 0.00076094
6650.0 0.00072698
6670.0 0.00068683
6690.0 0.00065553
6710.0 0.00063688
6730.0 0.00061819
6750.0 0.00060448
6770.0 0.000604
6790.0 0.00060445
6810.0 0.00059416
6830.0 0.00058226
6850.0 0.00058582
6870.0 0.00058896
6890.0 0.0005788
6910.0 0.00057344
6930.0 0.00057016
6950.0 0.00055983
6970.0 0.00054482
6990.0 0.00052943
7010.0 0.00051623
7030.0 0.00049981
7050.0 0.00047105
7070.0 0.00044016
7090.0 0.00043433
7110.0 0.00045021
7130.0 0.00046758
7150.0 0.0004801
7170.0 0.00049431
7190.0 0.00050624
7210.0 0.00050434
7230.0 0.00050368
7250.0 0.00051286
7270.0 0.00050841
7290.0 0.00049821
7310.0 0.00049852
7330.0 0.00051337
7350.0 0.00053556
7370.0 0.00054982
7390.0 0.00055966
7410.0 0.00056964
7430.0 0.00056984
7450.0 0.00056151
7470.0 0.0005511
7490.0 0.00052874
7510.0 0.00050515
7530.0 0.00049658
7550.0 0.00048844
7570.0 0.00048068
7590.0 0.00047991
7610.0 0.00047787
7630.0 0.00047848
7650.0 0.00049466
7670.0 0.00051783
7690.0 0.00053959
7710.0 0.00055481
7730.0 0.00056821
7750.0 0.00058162
7770.0 0.00059412
7790.0 0.00060494
7810.0 0.00060686
7830.0 0.00059086
7850.0 0.00056732
7870.0 0.00054344
7890.0 0.00052211
7910.0 0.0005125
7930.0 0.00050228
7950.0 0.0004891
7970.0 0.00047444
7990.0 0.00046612
8010.0 0.00043619
8030.0 0.00043215
8050.0 0.00042735
8070.0 0.0004198
8090.0 0.0004129
8110.0 0.00040932
8130.0 0.0004085
8150.0 0.00040455
8170.0 0.00039843
8190.0 0.00038525
8210.0 0.00036345
8230.0 0.00034316
8250.0 0.0003331
8270.0 0.00031843
8290.0 0.00029235
8310.0 0.00026694
8330.0 0.00025031
8350.0 0.00024161
8370.0 0.00024818
8390.0 0.00026641
8410.0 0.00028329
8430.0 0.00029991
8450.0 0.00032152
8470.0 0.00034039
8490.0 0.00036106
8510.0 0.0003815
8530.0 0.00040136
8550.0 0.00041691
8570.0 0.00042787
8590.0 0.00043602
8610.0 0.00044404
8630.0 0.00044441
8650.0 0.00043482
8670.0 0.00043406
8690.0 0.00044774
8710.0 0.00046583
8730.0 0.00047043
8750.0 0.00046166
8770.0 0.00046018
8790.0 0.0004581
8810.0 0.00044377
8830.0 0.00041026
8850.0 0.0003696
8870.0 0.00033985
8890.0 0.00032798
8910.0 0.0003149
8930.0 0.00029229
8950.0 0.00027264
8970.0 0.0002658
8990.0 0.00026774
9010.0 0.00026676
9030.0 0.00026379
9050.0 0.00026164
9070.0 0.00026021
9090.0 0.00025888
9110.0 0.00025758
9130.0 0.00025628
9150.0 0.000255
9170.0 0.00025372
9190.0 0.0002525
9210.0 0.00025138
9230.0 0.00025008
9250.0 0.00024883
9270.0 0.0002476
9290.0 0.00024639
9310.0 0.00024519
9330.0 0.00024401
9350.0 0.00024286
9370.0 0.00024171
9390.0 0.00024056
9410.0 0.00023943
9430.0 0.00023827
9450.0 0.0002369
9470.0 0.00023561
9490.0 0.00023476
9510.0 0.0002338
9530.0 0.00023282
9550.0 0.0002318
9570.0 0.00023077
9590.0 0.00022975
9610.0 0.00022873
9630.0 0.0002277
9650.0 0.00022668
9670.0 0.00022569
9690.0 0.00022469
9710.0 0.00022369
9730.0 0.00022271
9750.0 0.00022174
9770.0 0.00022074
9790.0 0.00021977
9810.0 0.00021882
9830.0 0.00021785
9850.0 0.00021684
9870.0 0.00021591
9890.0 0.00021497
9910.0 0.00021402
9930.0 0.00021307
9950.0 0.00021192
9970.0 0.00021103
9990.0 0.00021011
10010.0 0.00020917
10030.0 0.00020823
10050.0 0.0002073
10070.0 0.00020639
10090.0 0.00020547
10110.0 0.00020444
10130.0 0.00020305
10150.0 0.00020216
10170.0 0.00020136
10190.0 0.00020044
10210.0 0.00019954
10230.0 0.00019863
10250.0 0.00019763
10270.0 0.00019662
10290.0 0.00019566
10310.0 0.00019463
10330.0 0.00019355
10350.0 0.00019253
10370.0 0.0001915
10390.0 0.00019041
10410.0 0.00018931
10430.0 0.00018828
10450.0 0.00018718
10470.0 0.00018604
10490.0 0.00018494
10510.0 0.00018384
10530.0 0.00018262
10550.0 0.00018144
10570.0 0.00018031
10590.0 0.00017911
10610.0 0.00017786
10630.0 0.00017668
10650.0 0.00017546
10670.0 0.00017416
10690.0 0.00017288
10710.0 0.00017162
10730.0 0.0001703
10750.0 0.0001689
10770.0 0.00016761
10790.0 0.00016627
10810.0 0.00016485
10830.0 0.00016346
10850.0 0.0001621
10870.0 0.00016062
10890.0 0.00015913
10910.0 0.00015769
10930.0 0.00015622
10950.0 0.00015468
10970.0 0.00015317
10990.0 0.00015172
11010.0 0.00014923
11030.0 0.00014761
11050.0 0.00014609
11070.0 0.00014459
11090.0 0.00014304
11110.0 0.00014164
11130.0 0.00014031
11150.0 0.00013898
11170.0 0.00013771
11190.0 0.00013657
11210.0 0.00013545
11230.0 0.00013437
11250.0 0.00013339
11270.0 0.0001325
11290.0 0.00013163
11310.0 0.00013082
11330.0 0.00013011
11350.0 0.00012943
11370.0 0.00012876
11390.0 0.00012814
11410.0 0.00012753
11430.0 0.00012687
11450.0 0.00012621
11470.0 0.00012553
11490.0 0.00012479
11510.0 0.00012396
11530.0 0.0001231
11550.0 0.00012217
11570.0 0.00012114
11590.0 0.00012003
11610.0 0.00011888
11630.0 0.00011761
11650.0 0.00011623
11670.0 0.00011483
11690.0 0.00011336
11710.0 0.00011177
11730.0 0.00011012
11750.0 0.00010846
11770.0 0.00010667
11790.0 0.00010479
11810.0 0.0001029
11830.0 0.00010095
11850.0 9.884e-05
11870.0 9.6748e-05
11890.0 9.4691e-05
11910.0 9.2558e-05
11930.0 9.0401e-05
11950.0 8.8342e-05
11970.0 8.6299e-05
11990.0 8.4225e-05
12010.0 8.2268e-05
12030.0 8.0425e-05
12050.0 7.8613e-05
12070.0 7.6863e-05
12090.0 7.5307e-05
12110.0 7.3828e-05
12130.0 7.242e-05
12150.0 7.1153e-05
12170.0 7.0027e-05
12190.0 6.8964e-05
12210.0 6.804e-05
12230.0 6.7269e-05
12250.0 6.6617e-05
12270.0 6.6082e-05
12290.0 6.5686e-05
12310.0 6.5413e-05
12330.0 6.5247e-05
12350.0 6.5189e-05
12370.0 6.5216e-05
12390.0 6.5322e-05
12410.0 6.5512e-05
12430.0 6.5734e-05
12450.0 6.5986e-05
12470.0 6.6279e-05
12490.0 6.6586e-05
12510.0 6.6875e-05
12530.0 6.7174e-05
12550.0 6.7472e-05
12570.0 6.7731e-05
12590.0 6.7955e-05
12610.0 6.8155e-05
12630.0 6.8301e-05
12650.0 6.8369e-05
12670.0 6.8376e-05
12690.0 6.8304e-05
12710.0 6.8142e-05
12730.0 6.7891e-05
12750.0 6.7538e-05
12770.0 6.7089e-05
12790.0 6.6558e-05
12810.0 6.5935e-05
12830.0 6.5221e-05
12850.0 6.4467e-05
12870.0 6.3669e-05
12890.0 6.2813e-05
12910.0 6.1944e-05
12930.0 6.1089e-05
12950.0 6.0213e-05
12970.0 5.9339e-05
12990.0 5.852e-05
13010.0 5.7727e-05
13030.0 5.6945e-05
13050.0 5.6207e-05
13070.0 5.5523e-05
13090.0 5.4849e-05
13110.0 5.4204e-05
13130.0 5.3605e-05
13150.0 5.3034e-05
13170.0 5.247e-05
13190.0 5.1948e-05
13210.0 5.1462e-05
13230.0 5.099e-05
13250.0 5.0538e-05
13270.0 5.0121e-05
13290.0 4.972e-05
13310.0 4.9324e-05
13330.0 4.8951e-05
13350.0 4.8593e-05
13370.0 4.8233e-05
13390.0 4.7871e-05
13410.0 4.7523e-05
13430.0 4.7164e-05
13450.0 4.6791e-05
13470.0 4.6412e-05
13490.0 4.603e-05
13510.0 4.5614e-05
13530.0 4.5186e-05
13550.0 4.4756e-05
13570.0 4.4309e-05
13590.0 4.3837e-05
13610.0 4.3367e-05
13630.0 4.2899e-05
13650.0 4.2409e-05
13670.0 4.1917e-05
13690.0 4.144e-05
13710.0 4.0957e-05
13730.0 4.0456e-05
13750.0 3.9984e-05
13770.0 3.9521e-05
13790.0 3.905e-05
13810.0 3.859e-05
13830.0 3.8155e-05
13850.0 3.7717e-05
13870.0 3.7282e-05
13890.0 3.6875e-05
13910.0 3.6485e-05
13930.0 3.6098e-05
13950.0 3.5733e-05
13970.0 3.5403e-05
13990.0 3.5084e-05
14010.0 3.4781e-05
14030.0 3.4507e-05
14050.0 3.4253e-05
14070.0 3.4004e-05
14090.0 3.3778e-05
14110.0 3.3572e-05
14130.0 3.3373e-05
14150.0 3.3181e-05
14170.0 3.3007e-05
14190.0 3.2839e-05
14210.0 3.2673e-05
14230.0 3.2516e-05
14250.0 3.2367e-05
14270.0 3.2217e-05
14290.0 3.2069e-05
14310.0 3.193e-05
14330.0 3.1794e-05
14350.0 3.1656e-05
14370.0 3.1523e-05
14390.0 3.1397e-05
14410.0 3.1267e-05
14430.0 3.1138e-05
14450.0 3.1016e-05
14470.0 3.0895e-05
14490.0 3.077e-05
14510.0 3.0652e-05
14530.0 3.0537e-05
14550.0 3.0419e-05
14570.0 3.0298e-05
14590.0 3.0181e-05
14610.0 3.0059e-05
14630.0 2.993e-05
14650.0 2.9805e-05
14670.0 2.9685e-05
14690.0 2.9567e-05
14710.0 2.9462e-05
14730.0 2.9385e-05
14750.0 2.9335e-05
14770.0 2.9326e-05
14790.0 2.9369e-05
14810.0 2.947e-05
14830.0 2.9649e-05
14850.0 2.9908e-05
14870.0 3.0237e-05
14890.0 3.0646e-05
14910.0 3.1133e-05
14930.0 3.165e-05
14950.0 3.2176e-05
14970.0 3.271e-05
14990.0 3.3198e-05
15010.0 3.361e-05
15030.0 3.3955e-05
15050.0 3.423e-05
15070.0 3.4427e-05
15090.0 3.4575e-05
15110.0 3.4691e-05
15130.0 3.4784e-05
15150.0 3.4866e-05
15170.0 3.4944e-05
15190.0 3.502e-05
15210.0 3.5096e-05
15230.0 3.5174e-05
15250.0 3.5252e-05
15270.0 3.5333e-05
15290.0 3.5415e-05
15310.0 3.5499e-05
15330.0 3.5585e-05
15350.0 3.5672e-05
15370.0 3.5761e-05
15390.0 3.5851e-05
15410.0 3.5943e-05
15430.0 3.6037e-05
15450.0 3.6132e-05
15470.0 3.6228e-05
15490.0 3.6326e-05
15510.0 3.6426e-05
15530.0 3.6527e-05
15550.0 3.6629e-05
15570.0 3.6733e-05
15590.0 3.6838e-05
15610.0 3.6944e-05
15630.0 3.7051e-05
15650.0 3.716e-05
15670.0 3.7271e-05
15690.0 3.7382e-05
15710.0 3.7495e-05
15730.0 3.7608e-05
15750.0 3.7723e-05
15770.0 3.784e-05
15790.0 3.7957e-05
15810.0 3.8075e-05
15830.0 3.8194e-05
15850.0 3.8314e-05
15870.0 3.8435e-05
15890.0 3.8557e-05
15910.0 3.8681e-05
15930.0 3.8804e-05
15950.0 3.8929e-05
15970.0 3.9054e-05
15990.0 3.9181e-05
16010.0 3.9308e-05
16030.0 3.9435e-05
16050.0 3.9563e-05
16070.0 3.9692e-05
16090.0 3.9821e-05
16110.0 3.9951e-05
16130.0 4.0082e-05
16150.0 4.0212e-05
16170.0 4.0343e-05
16190.0 4.0475e-05
16210.0 4.0607e-05
16230.0 4.0739e-05
16250.0 4.0871e-05
16270.0 4.1004e-05
16290.0 4.1136e-05
16310.0 4.1269e-05
16330.0 4.1402e-05
16350.0 4.1534e-05
16370.0 4.1667e-05
16390.0 4.18e-05
16410.0 4.1932e-05
16430.0 4.2064e-05
16450.0 4.2196e-05
16470.0 4.2328e-05
16490.0 4.2459e-05
16510.0 4.259e-05
16530.0 4.2721e-05
16550.0 4.2851e-05
16570.0 4.298e-05
16590.0 4.3109e-05
16610.0 4.3237e-05
16630.0 4.3365e-05
16650.0 4.3491e-05
16670.0 4.3618e-05
16690.0 4.3743e-05
16710.0 4.3867e-05
16730.0 4.399e-05
16750.0 4.4113e-05
16770.0 4.4234e-05
16790.0 4.4354e-05
16810.0 4.4474e-05
16830.0 4.4592e-05
16850.0 4.4708e-05
16870.0 4.4824e-05
16890.0 4.4938e-05
16910.0 4.505e-05
16930.0 4.5162e-05
16950.0 4.5272e-05
16970.0 4.538e-05
16990.0 4.5486e-05
17010.0 4.5591e-05
17030.0 4.5695e-05
17050.0 4.5797e-05
17070.0 4.5896e-05
17090.0 4.5995e-05
17110.0 4.6091e-05
17130.0 4.6185e-05
17150.0 4.6277e-05
17170.0 4.6368e-05
17190.0 4.6456e-05
17210.0 4.6543e-05
17230.0 4.6627e-05
17250.0 4.6709e-05
17270.0 4.6789e-05
17290.0 4.6866e-05
17310.0 4.6942e-05
17330.0 4.7015e-05
17350.0 4.7085e-05
17370.0 4.7154e-05
17390.0 4.722e-05
17410.0 4.7283e-05
17430.0 4.7344e-05
17450.0 4.7403e-05
17470.0 4.7458e-05
17490.0 4.7512e-05
17510.0 4.7563e-05
17530.0 4.7611e-05
17550.0 4.7656e-05
17570.0 4.7699e-05
17590.0 4.7739e-05
17610.0 4.7776e-05
17630.0 4.781e-05
17650.0 4.7842e-05
17670.0 4.7871e-05
17690.0 4.7897e-05
17710.0 4.792e-05
17730.0 4.7941e-05
17750.0 4.7958e-05
17770.0 4.7973e-05
17790.0 4.7984e-05
17810.0 4.7993e-05
17830.0 4.7999e-05
17850.0 4.8002e-05
17870.0 4.8002e-05
17890.0 4.7998e-05
17910.0 4.7992e-05
17930.0 4.7983e-05
17950.0 4.7971e-05
17970.0 4.7956e-05
17990.0 4.7938e-05
18010.0 4.7917e-05
18030.0 4.7893e-05
18050.0 4.7865e-05
18070.0 4.7835e-05
18090.0 4.7802e-05
18110.0 4.7766e-05
18130.0 4.7727e-05
18150.0 4.7685e-05
18170.0 4.764e-05
18190.0 4.7592e-05
18210.0 4.7541e-05
18230.0 4.7486e-05
18250.0 4.7429e-05
18270.0 4.737e-05
18290.0 4.7307e-05
18310.0 4.7241e-05
18330.0 4.7172e-05
18350.0 4.7101e-05
18370.0 4.7026e-05
18390.0 4.6949e-05
18410.0 4.6869e-05
18430.0 4.6786e-05
18450.0 4.67e-05
18470.0 4.6612e-05
18490.0 4.652e-05
18510.0 4.6426e-05
18530.0 4.633e-05
18550.0 4.623e-05
18570.0 4.6128e-05
18590.0 4.6024e-05
18610.0 4.5916e-05
18630.0 4.5807e-05
18650.0 4.5694e-05
18670.0 4.5579e-05
18690.0 4.5462e-05
18710.0 4.5342e-05
18730.0 4.5219e-05
18750.0 4.5095e-05
18770.0 4.4968e-05
18790.0 4.4838e-05
18810.0 4.4706e-05
18830.0 4.4572e-05
18850.0 4.4436e-05
18870.0 4.4297e-05
18890.0 4.4157e-05
18910.0 4.4014e-05
18930.0 4.3869e-05
18950.0 4.3722e-05
18970.0 4.3573e-05
18990.0 4.3422e-05
19010.0 4.3269e-05
19030.0 4.3114e-05
19050.0 4.2957e-05
19070.0 4.2799e-05
19090.0 4.2638e-05
19110.0 4.2476e-05
19130.0 4.2312e-05
19150.0 4.2146e-05
19170.0 4.1979e-05
19190.0 4.181e-05
19210.0 4.1639e-05
19230.0 4.1467e-05
19250.0 4.1293e-05
19270.0 4.1118e-05
19290.0 4.0942e-05
19310.0 4.0764e-05
19330.0 4.0584e-05
19350.0 4.0404e-05
19370.0 4.0222e-05
19390.0 4.0039e-05
19410.0 3.9854e-05
19430.0 3.9669e-05
19450.0 3.9482e-05
19470.0 3.9295e-05
19490.0 3.9106e-05
19510.0 3.8916e-05
19530.0 3.8726e-05
19550.0 3.8534e-05
19570.0 3.8341e-05
19590.0 3.8148e-05
19610.0 3.7954e-05
19630.0 3.7759e-05
19650.0 3.7563e-05
19670.0 3.7367e-05
19690.0 3.717e-05
19710.0 3.6972e-05
19730.0 3.6774e-05
19750.0 3.6575e-05
19770.0 3.6375e-05
19790.0 3.6175e-05
19810.0 3.5975e-05
19830.0 3.5773e-05
19850.0 3.5569e-05
19870.0 3.5363e-05
19890.0 3.515e-05
19910.0 3.4924e-05
19930.0 3.468e-05
19950.0 3.4409e-05
19970.0 3.4097e-05
19990.0 3.3735e-05
20010.0 3.3329e-05
20030.0 3.2864e-05
20050.0 3.2343e-05
20070.0 3.1792e-05
20090.0 3.1216e-05
20110.0 3.0596e-05
20130.0 2.998e-05
20150.0 2.9379e-05
20170.0 2.8772e-05
20190.0 2.8167e-05
20210.0 2.7592e-05
20230.0 2.7032e-05
20250.0 2.6471e-05
20270.0 2.5938e-05
20290.0 2.5433e-05
20310.0 2.4939e-05
20330.0 2.4457e-05
20350.0 2.4019e-05
20370.0 2.36e-05
20390.0 2.3197e-05
20410.0 2.2824e-05
20430.0 2.2482e-05
20450.0 2.2153e-05
20470.0 2.1848e-05
20490.0 2.1573e-05
20510.0 2.1317e-05
20530.0 2.1079e-05
20550.0 2.0863e-05
20570.0 2.0667e-05
20590.0 2.0484e-05
20610.0 2.0315e-05
20630.0 2.0159e-05
20650.0 2.0013e-05
20670.0 1.9876e-05
20690.0 1.9744e-05
20710.0 1.9617e-05
20730.0 1.9492e-05
20750.0 1.9368e-05
20770.0 1.9242e-05
20790.0 1.9113e-05
20810.0 1.8981e-05
20830.0 1.8843e-05
20850.0 1.8699e-05
20870.0 1.8548e-05
20890.0 1.8388e-05
20910.0 1.8223e-05
20930.0 1.8049e-05
20950.0 1.7866e-05
20970.0 1.7678e-05
20990.0 1.7485e-05
21010.0 1.7282e-05
21030.0 1.7074e-05
21050.0 1.6865e-05
21070.0 1.665e-05
21090.0 1.6429e-05
21110.0 1.621e-05
21130.0 1.5992e-05
21150.0 1.5769e-05
21170.0 1.5548e-05
21190.0 1.5332e-05
21210.0 1.5113e-05
21230.0 1.4894e-05
21250.0 1.4683e-05
21270.0 1.4474e-05
21290.0 1.4266e-05
21310.0 1.4063e-05
21330.0 1.3869e-05
21350.0 1.3676e-05
21370.0 1.3487e-05
21390.0 1.3306e-05
21410.0 1.3131e-05
21430.0 1.2959e-05
21450.0 1.2795e-05
21470.0 1.2641e-05
21490.0 1.2491e-05
21510.0 1.2347e-05
21530.0 1.2212e-05
21550.0 1.2083e-05
21570.0 1.1959e-05
21590.0 1.1842e-05
21610.0 1.1731e-05
21630.0 1.1625e-05
21650.0 1.1522e-05
21670.0 1.1425e-05
21690.0 1.133e-05
21710.0 1.1238e-05
21730.0 1.1148e-05
21750.0 1.1061e-05
21770.0 1.0974e-05
21790.0 1.0888e-05
21810.0 1.0803e-05
21830.0 1.0719e-05
21850.0 1.0634e-05
21870.0 1.055e-05
21890.0 1.0466e-05
21910.0 1.0382e-05
21930.0 1.0297e-05
21950.0 1.0213e-05
21970.0 1.0127e-05
21990.0 1.0041e-05
22010.0 9.9546e-06
22030.0 9.8676e-06
22050.0 9.779e-06
22070.0 9.6892e-06
22090.0 9.599e-06
22110.0 9.5068e-06
22130.0 9.4121e-06
22150.0 9.3165e-06
22170.0 9.2196e-06
22190.0 9.1191e-06
22210.0 9.0166e-06
22230.0 8.9141e-06
22250.0 8.8087e-06
22270.0 8.7004e-06
22290.0 8.5919e-06
22310.0 8.4823e-06
22330.0 8.3685e-06
22350.0 8.254e-06
22370.0 8.14e-06
22390.0 8.0234e-06
22410.0 7.9037e-06
22430.0 7.7862e-06
22450.0 7.6684e-06
22470.0 7.5475e-06
22490.0 7.4271e-06
22510.0 7.3091e-06
22530.0 7.1883e-06
22550.0 7.0665e-06
22570.0 6.9488e-06
22590.0 6.8322e-06
22610.0 6.7146e-06
22630.0 6.6e-06
22650.0 6.4905e-06
