#lamb flux
1010.0 1.7454e-08
1030.0 1.9671e-08
1050.0 2.2222e-08
1070.0 2.5093e-08
1090.0 2.8354e-08
1110.0 3.1698e-08
1130.0 3.5065e-08
1150.0 3.8591e-08
1170.0 4.2229e-08
1190.0 4.5678e-08
1210.0 4.9174e-08
1230.0 5.2787e-08
1250.0 5.6326e-08
1270.0 5.9763e-08
1290.0 6.3395e-08
1310.0 6.7025e-08
1330.0 7.0505e-08
1350.0 7.4025e-08
1370.0 7.7658e-08
1390.0 8.12e-08
1410.0 8.4637e-08
1430.0 8.823e-08
1450.0 9.1823e-08
1470.0 9.5294e-08
1490.0 9.8802e-08
1510.0 1.0251e-07
1530.0 1.0602e-07
1550.0 1.0948e-07
1570.0 1.1306e-07
1590.0 1.1664e-07
1610.0 1.2006e-07
1630.0 1.2358e-07
1650.0 1.2719e-07
1670.0 1.3068e-07
1690.0 1.3413e-07
1710.0 1.377e-07
1730.0 1.4128e-07
1750.0 1.4465e-07
1770.0 1.481e-07
1790.0 1.5162e-07
1810.0 1.5501e-07
1830.0 1.5833e-07
1850.0 1.6184e-07
1870.0 1.6524e-07
1890.0 1.685e-07
1910.0 1.7181e-07
1930.0 1.7518e-07
1950.0 1.7836e-07
1970.0 1.8147e-07
1990.0 1.8466e-07
2010.0 1.8776e-07
2030.0 1.9069e-07
2050.0 1.9367e-07
2070.0 1.9669e-07
2090.0 1.9944e-07
2110.0 2.0212e-07
2130.0 2.0482e-07
2150.0 2.0738e-07
2170.0 2.0972e-07
2190.0 2.1208e-07
2210.0 2.1437e-07
2230.0 2.1642e-07
2250.0 2.1835e-07
2270.0 2.2031e-07
2290.0 2.2204e-07
2310.0 2.2352e-07
2330.0 2.2497e-07
2350.0 2.2631e-07
2370.0 2.274e-07
2390.0 2.2842e-07
2410.0 2.2952e-07
2430.0 2.3051e-07
2450.0 2.3149e-07
2470.0 2.3274e-07
2490.0 2.3439e-07
2510.0 2.3634e-07
2530.0 2.3938e-07
2550.0 2.4469e-07
2570.0 2.5333e-07
2590.0 2.6678e-07
2610.0 2.8912e-07
2630.0 3.2131e-07
2650.0 3.615e-07
2670.0 4.1011e-07
2690.0 4.6502e-07
2710.0 5.1787e-07
2730.0 5.6448e-07
2750.0 6.0536e-07
2770.0 6.3587e-07
2790.0 6.5563e-07
2810.0 6.6791e-07
2830.0 6.7492e-07
2850.0 6.767e-07
2870.0 6.7598e-07
2890.0 6.7423e-07
2910.0 6.7167e-07
2930.0 6.6835e-07
2950.0 6.6524e-07
2970.0 6.623e-07
2990.0 6.5913e-07
3010.0 1.364e-05
3030.0 1.3569e-05
3050.0 1.3499e-05
3070.0 1.3417e-05
3090.0 1.3331e-05
3110.0 1.3226e-05
3130.0 1.3085e-05
3150.0 1.2901e-05
3170.0 1.266e-05
3190.0 1.2368e-05
3210.0 1.2049e-05
3230.0 1.173e-05
3250.0 1.1464e-05
3270.0 1.1288e-05
3290.0 1.1248e-05
3310.0 1.1335e-05
3330.0 1.1577e-05
3350.0 1.1937e-05
3370.0 1.2421e-05
3390.0 1.3016e-05
3410.0 1.3656e-05
3430.0 1.4372e-05
3450.0 1.519e-05
3470.0 1.6076e-05
3490.0 1.7005e-05
3510.0 1.8042e-05
3530.0 1.9142e-05
3550.0 2.0242e-05
3570.0 2.1389e-05
3590.0 2.2665e-05
3610.0 2.3979e-05
3630.0 2.5361e-05
3650.0 2.6798e-05
3670.0 2.815e-05
3690.0 2.9206e-05
3710.0 2.9863e-05
3730.0 2.9991e-05
3750.0 2.9588e-05
3770.0 2.722e-05
3790.0 2.4559e-05
3810.0 2.277e-05
3830.0 1.9887e-05
3850.0 1.4798e-05
3870.0 1.052e-05
3890.0 1.7589e-05
3910.0 2.8605e-05
3930.0 3.4595e-05
3950.0 3.3993e-05
3970.0 3.4746e-05
3990.0 4.0811e-05
4010.0 5.2423e-05
4030.0 5.3056e-05
4050.0 4.7022e-05
4070.0 4.1678e-05
4090.0 3.9402e-05
4110.0 4.7493e-05
4130.0 4.9642e-05
4150.0 4.8443e-05
4170.0 4.9126e-05
4190.0 5.0083e-05
4210.0 4.9437e-05
4230.0 5.4605e-05
4250.0 5.9686e-05
4270.0 6.0546e-05
4290.0 6.13e-05
4310.0 6.2872e-05
4330.0 6.9323e-05
4350.0 7.9945e-05
4370.0 9.0765e-05
4390.0 8.6162e-05
4410.0 7.0559e-05
4430.0 5.9209e-05
4450.0 5.0717e-05
4470.0 4.9231e-05
4490.0 5.409e-05
4510.0 6.0675e-05
4530.0 6.7041e-05
4550.0 7.765e-05
4570.0 9.1883e-05
4590.0 0.00011139
4610.0 0.00014305
4630.0 0.00017379
4650.0 0.0001787
4670.0 0.00017254
4690.0 0.00018389
4710.0 0.00019418
4730.0 0.0001647
4750.0 0.00011768
4770.0 9.5879e-05
4790.0 9.2656e-05
4810.0 8.6156e-05
4830.0 8.1302e-05
4850.0 9.3105e-05
4870.0 0.00012017
4890.0 0.00013812
4910.0 0.00011719
4930.0 0.0001037
4950.0 0.0001161
4970.0 0.00015561
4990.0 0.00020187
5010.0 0.00021477
5030.0 0.00017765
5050.0 0.00011468
5070.0 7.8799e-05
5090.0 6.9928e-05
5110.0 7.308e-05
5130.0 7.8678e-05
5150.0 8.2651e-05
5170.0 8.2556e-05
5190.0 8.0805e-05
5210.0 7.8271e-05
5230.0 8.0242e-05
5250.0 8.5787e-05
5270.0 9.8756e-05
5290.0 0.00011398
5310.0 0.00012564
5330.0 0.00012895
5350.0 0.00012999
5370.0 0.00014133
5390.0 0.00015278
5410.0 0.00014866
5430.0 0.00012854
5450.0 0.00011827
5470.0 0.00013254
5490.0 0.00017008
5510.0 0.00021738
5530.0 0.00024179
5550.0 0.00023456
5570.0 0.00021269
5590.0 0.00018977
5610.0 0.00017541
5630.0 0.00016662
5650.0 0.00017047
5670.0 0.00016649
5690.0 0.00015459
5710.0 0.00014646
5730.0 0.00013296
5750.0 9.552e-05
5770.0 8.2961e-05
5790.0 9.3356e-05
5810.0 0.00011288
5830.0 0.00012858
5850.0 0.00014111
5870.0 0.00014535
5890.0 0.00014049
5910.0 0.00013456
5930.0 0.00013498
5950.0 0.00014146
5970.0 0.00015083
5990.0 0.00014294
6010.0 0.00012029
6030.0 9.9916e-05
6050.0 8.6709e-05
6070.0 8.6182e-05
6090.0 9.7144e-05
6110.0 0.00010671
6130.0 0.00010285
6150.0 9.4836e-05
6170.0 0.00010311
6190.0 0.00012429
6210.0 0.00015163
6230.0 0.0001747
6250.0 0.00017515
6270.0 0.00015682
6290.0 0.00012989
6310.0 0.00010321
6330.0 8.205e-05
6350.0 7.3868e-05
6370.0 7.9921e-05
6390.0 9.4501e-05
6410.0 0.00010915
6430.0 0.00012655
6450.0 0.00014727
6470.0 0.00018008
6490.0 0.00022172
6510.0 0.00024526
6530.0 0.00022808
6550.0 0.0002094
6570.0 0.00020337
6590.0 0.00019548
6610.0 0.00017455
6630.0 0.00015716
6650.0 0.00014462
6670.0 0.00014989
6690.0 0.00014802
6710.0 0.00013149
6730.0 0.00011949
6750.0 0.00010707
6770.0 0.00010395
6790.0 0.00011451
6810.0 0.00011785
6830.0 0.000121
6850.0 0.00011851
6870.0 0.00011341
6890.0 0.0001107
6910.0 0.00010655
6930.0 0.00010008
6950.0 0.0001018
6970.0 0.00010331
6990.0 0.00011537
7010.0 0.00012294
7030.0 0.00011263
7050.0 0.00010562
7070.0 0.00010252
7090.0 9.3852e-05
7110.0 8.7941e-05
7130.0 8.985e-05
7150.0 9.4306e-05
7170.0 0.00010006
7190.0 0.00010076
7210.0 9.9965e-05
7230.0 0.00010411
7250.0 0.00011932
7270.0 0.0001396
7290.0 0.00015137
7310.0 0.00014789
7330.0 0.00013161
7350.0 0.00011792
7370.0 0.00011371
7390.0 0.0001147
7410.0 0.00011987
7430.0 0.00013101
7450.0 0.00014186
7470.0 0.00015589
7490.0 0.00017267
7510.0 0.00016782
7530.0 0.00015884
7550.0 0.00013262
7570.0 0.00010845
7590.0 8.6034e-05
7610.0 7.8049e-05
7630.0 8.2237e-05
7650.0 9.4103e-05
7670.0 0.00010424
7690.0 0.00011798
7710.0 0.00012972
7730.0 0.00013463
7750.0 0.00013626
7770.0 0.00013551
7790.0 0.00013211
7810.0 0.00013567
7830.0 0.00013157
7850.0 0.00011747
7870.0 0.00010578
7890.0 9.7405e-05
7910.0 8.6419e-05
7930.0 7.4118e-05
7950.0 6.7541e-05
7970.0 6.686e-05
7990.0 6.9654e-05
8010.0 7.3849e-05
8030.0 7.4583e-05
8050.0 7.4518e-05
8070.0 7.2598e-05
8090.0 7.2987e-05
8110.0 6.9072e-05
8130.0 6.29e-05
8150.0 5.9016e-05
8170.0 5.6386e-05
8190.0 5.7003e-05
8210.0 5.8402e-05
8230.0 6.1552e-05
8250.0 5.9862e-05
8270.0 5.351e-05
8290.0 4.198e-05
8310.0 2.8545e-05
8330.0 1.8682e-05
8350.0 1.3383e-05
8370.0 1.5455e-05
8390.0 1.7342e-05
8410.0 2.2168e-05
8430.0 2.6938e-05
8450.0 2.9603e-05
8470.0 3.142e-05
8490.0 3.1704e-05
8510.0 3.2661e-05
8530.0 3.569e-05
8550.0 4.0454e-05
8570.0 4.8305e-05
8590.0 5.8077e-05
8610.0 6.8753e-05
8630.0 8.0173e-05
8650.0 8.8393e-05
8670.0 8.7895e-05
8690.0 8.3839e-05
8710.0 7.8938e-05
8730.0 7.4888e-05
8750.0 7.0746e-05
8770.0 6.8388e-05
8790.0 6.6852e-05
8810.0 6.2781e-05
8830.0 5.5182e-05
8850.0 4.7033e-05
8870.0 3.9717e-05
8890.0 3.6739e-05
8910.0 3.7914e-05
8930.0 3.8763e-05
8950.0 4.2858e-05
8970.0 4.378e-05
8990.0 4.4677e-05
9010.0 4.5173e-05
9030.0 4.5341e-05
9050.0 4.5625e-05
9070.0 4.5839e-05
9090.0 4.5997e-05
9110.0 4.6112e-05
9130.0 4.6236e-05
9150.0 4.6376e-05
9170.0 4.6521e-05
9190.0 4.6672e-05
9210.0 4.6852e-05
9230.0 4.7021e-05
9250.0 4.7206e-05
9270.0 4.7401e-05
9290.0 4.7604e-05
9310.0 4.7822e-05
9330.0 4.8051e-05
9350.0 4.8286e-05
9370.0 4.8534e-05
9390.0 4.8794e-05
9410.0 4.9062e-05
9430.0 4.9335e-05
9450.0 4.9625e-05
9470.0 4.9924e-05
9490.0 5.0228e-05
9510.0 5.0543e-05
9530.0 5.0871e-05
9550.0 5.1202e-05
9570.0 5.1541e-05
9590.0 5.1893e-05
9610.0 5.2252e-05
9630.0 5.2615e-05
9650.0 5.2987e-05
9670.0 5.3372e-05
9690.0 5.3759e-05
9710.0 5.4152e-05
9730.0 5.4555e-05
9750.0 5.4965e-05
9770.0 5.5373e-05
9790.0 5.5793e-05
9810.0 5.622e-05
9830.0 5.6649e-05
9850.0 5.7081e-05
9870.0 5.7524e-05
9890.0 5.7968e-05
9910.0 5.8412e-05
9930.0 5.8863e-05
9950.0 5.9318e-05
9970.0 5.9772e-05
9990.0 6.0227e-05
10010.0 5.8671e-05
10030.0 5.9109e-05
10050.0 5.9543e-05
10070.0 5.9975e-05
10090.0 6.0421e-05
10110.0 6.0859e-05
10130.0 6.1297e-05
10150.0 6.1739e-05
10170.0 6.2176e-05
10190.0 6.2605e-05
10210.0 6.3038e-05
10230.0 6.3471e-05
10250.0 6.3894e-05
10270.0 6.4315e-05
10290.0 6.4738e-05
10310.0 6.5151e-05
10330.0 6.5554e-05
10350.0 6.5959e-05
10370.0 6.6359e-05
10390.0 6.6747e-05
10410.0 6.713e-05
10430.0 6.7514e-05
10450.0 6.7883e-05
10470.0 6.8243e-05
10490.0 6.8599e-05
10510.0 6.8949e-05
10530.0 6.9279e-05
10550.0 6.9604e-05
10570.0 6.9927e-05
10590.0 7.0234e-05
10610.0 7.0528e-05
10630.0 7.0818e-05
10650.0 7.1097e-05
10670.0 7.1356e-05
10690.0 7.1608e-05
10710.0 7.1852e-05
10730.0 7.2079e-05
10750.0 7.2287e-05
10770.0 7.2496e-05
10790.0 7.2688e-05
10810.0 7.286e-05
10830.0 7.302e-05
10850.0 7.3168e-05
10870.0 7.3276e-05
10890.0 7.3342e-05
10910.0 7.3356e-05
10930.0 7.3272e-05
10950.0 7.3029e-05
10970.0 7.2606e-05
10990.0 7.1986e-05
11010.0 6.9458e-05
11030.0 6.8293e-05
11050.0 6.6926e-05
11070.0 6.5318e-05
11090.0 6.3398e-05
11110.0 6.1426e-05
11130.0 5.9379e-05
11150.0 5.7184e-05
11170.0 5.4945e-05
11190.0 5.2806e-05
11210.0 5.0637e-05
11230.0 4.8465e-05
11250.0 4.6447e-05
11270.0 4.4567e-05
11290.0 4.274e-05
11310.0 4.1067e-05
11330.0 3.9639e-05
11350.0 3.8324e-05
11370.0 3.7134e-05
11390.0 3.6116e-05
11410.0 3.5222e-05
11430.0 3.4373e-05
11450.0 3.3606e-05
11470.0 3.2898e-05
11490.0 3.2185e-05
11510.0 3.1436e-05
11530.0 3.0687e-05
11550.0 2.9901e-05
11570.0 2.9033e-05
11590.0 2.812e-05
11610.0 2.7191e-05
11630.0 2.6192e-05
11650.0 2.5144e-05
11670.0 2.4135e-05
11690.0 2.3138e-05
11710.0 2.2136e-05
11730.0 2.1192e-05
11750.0 2.0338e-05
11770.0 1.952e-05
11790.0 1.8768e-05
11810.0 1.8116e-05
11830.0 1.7537e-05
11850.0 1.7004e-05
11870.0 1.655e-05
11890.0 1.616e-05
11910.0 1.5799e-05
11930.0 1.5463e-05
11950.0 1.5155e-05
11970.0 1.4851e-05
11990.0 1.4533e-05
12010.0 1.4213e-05
12030.0 1.3887e-05
12050.0 1.3538e-05
12070.0 1.3169e-05
12090.0 1.2813e-05
12110.0 1.2451e-05
12130.0 1.2089e-05
12150.0 1.1753e-05
12170.0 1.1451e-05
12190.0 1.1173e-05
12210.0 1.0947e-05
12230.0 1.0784e-05
12250.0 1.068e-05
12270.0 1.0643e-05
12290.0 1.0676e-05
12310.0 1.0771e-05
12330.0 1.0938e-05
12350.0 1.1166e-05
12370.0 1.1437e-05
12390.0 1.1754e-05
12410.0 1.213e-05
12430.0 1.2506e-05
12450.0 1.2888e-05
12470.0 1.3286e-05
12490.0 1.3673e-05
12510.0 1.402e-05
12530.0 1.4349e-05
12550.0 1.4649e-05
12570.0 1.4892e-05
12590.0 1.5084e-05
12610.0 1.5232e-05
12630.0 1.5321e-05
12650.0 1.5348e-05
12670.0 1.5326e-05
12690.0 1.5253e-05
12710.0 1.5133e-05
12730.0 1.4973e-05
12750.0 1.4769e-05
12770.0 1.4534e-05
12790.0 1.4277e-05
12810.0 1.3993e-05
12830.0 1.3683e-05
12850.0 1.3368e-05
12870.0 1.3042e-05
12890.0 1.2695e-05
12910.0 1.2343e-05
12930.0 1.1992e-05
12950.0 1.1624e-05
12970.0 1.1242e-05
12990.0 1.0872e-05
13010.0 1.0498e-05
13030.0 1.0113e-05
13050.0 9.7333e-06
13070.0 9.3703e-06
13090.0 9.0015e-06
13110.0 8.6406e-06
13130.0 8.305e-06
13150.0 7.9869e-06
13170.0 7.6782e-06
13190.0 7.4061e-06
13210.0 7.1705e-06
13230.0 6.9614e-06
13250.0 6.7884e-06
13270.0 6.6582e-06
13290.0 6.5648e-06
13310.0 6.5105e-06
13330.0 6.4973e-06
13350.0 6.5202e-06
13370.0 6.5803e-06
13390.0 6.6762e-06
13410.0 6.7918e-06
13430.0 6.9319e-06
13450.0 7.0949e-06
13470.0 7.2656e-06
13490.0 7.4373e-06
13510.0 7.623e-06
13530.0 7.8023e-06
13550.0 7.9658e-06
13570.0 8.1203e-06
13590.0 8.2645e-06
13610.0 8.3857e-06
13630.0 8.485e-06
13650.0 8.57e-06
13670.0 8.6331e-06
13690.0 8.6736e-06
13710.0 8.6961e-06
13730.0 8.7009e-06
13750.0 8.6861e-06
13770.0 8.656e-06
13790.0 8.6108e-06
13810.0 8.552e-06
13830.0 8.4833e-06
13850.0 8.4022e-06
13870.0 8.3097e-06
13890.0 8.2107e-06
13910.0 8.1049e-06
13930.0 7.9883e-06
13950.0 7.866e-06
13970.0 7.7446e-06
13990.0 7.6167e-06
14010.0 7.4849e-06
14030.0 7.3566e-06
14050.0 7.2306e-06
14070.0 7.1017e-06
14090.0 6.9814e-06
14110.0 6.8712e-06
14130.0 6.7678e-06
14150.0 6.674e-06
14170.0 6.5968e-06
14190.0 6.5333e-06
14210.0 6.4834e-06
14230.0 6.4508e-06
14250.0 6.4348e-06
14270.0 6.4354e-06
14290.0 6.4538e-06
14310.0 6.4868e-06
14330.0 6.5341e-06
14350.0 6.597e-06
14370.0 6.6706e-06
14390.0 6.7508e-06
14410.0 6.8429e-06
14430.0 6.9423e-06
14450.0 7.043e-06
14470.0 7.1477e-06
14490.0 7.2611e-06
14510.0 7.3729e-06
14530.0 7.4844e-06
14550.0 7.6036e-06
14570.0 7.7289e-06
14590.0 7.8555e-06
14610.0 7.993e-06
14630.0 8.1474e-06
14650.0 8.3101e-06
14670.0 8.4842e-06
14690.0 8.6808e-06
14710.0 8.8984e-06
14730.0 9.1199e-06
14750.0 9.3621e-06
14770.0 9.6262e-06
14790.0 9.896e-06
14810.0 1.0168e-05
14830.0 1.0464e-05
14850.0 1.0757e-05
14870.0 1.1034e-05
14890.0 1.1308e-05
14910.0 1.1572e-05
14930.0 1.1806e-05
14950.0 1.2007e-05
14970.0 1.2184e-05
14990.0 1.2322e-05
15010.0 1.2419e-05
15030.0 1.2485e-05
15050.0 1.2521e-05
15070.0 1.2532e-05
15090.0 1.2528e-05
15110.0 1.2513e-05
15130.0 1.2491e-05
15150.0 1.2467e-05
15170.0 1.2441e-05
15190.0 1.2413e-05
15210.0 1.2386e-05
15230.0 1.236e-05
15250.0 1.2332e-05
15270.0 1.2305e-05
15290.0 1.228e-05
15310.0 1.2254e-05
15330.0 1.2227e-05
15350.0 1.2201e-05
15370.0 1.2176e-05
15390.0 1.2149e-05
15410.0 1.2123e-05
15430.0 1.2099e-05
15450.0 1.2073e-05
15470.0 1.2047e-05
15490.0 1.2022e-05
15510.0 1.1997e-05
15530.0 1.1971e-05
15550.0 1.1946e-05
15570.0 1.1921e-05
15590.0 1.1896e-05
15610.0 1.1869e-05
15630.0 1.1845e-05
15650.0 1.182e-05
15670.0 1.1794e-05
15690.0 1.1769e-05
15710.0 1.1744e-05
15730.0 1.1718e-05
15750.0 1.1692e-05
15770.0 1.1667e-05
15790.0 1.1642e-05
15810.0 1.1615e-05
15830.0 1.1589e-05
15850.0 1.1564e-05
15870.0 1.1538e-05
15890.0 1.1511e-05
15910.0 1.1486e-05
15930.0 1.146e-05
15950.0 1.1432e-05
15970.0 1.1406e-05
15990.0 1.138e-05
16010.0 1.1352e-05
16030.0 1.1324e-05
16050.0 1.1298e-05
16070.0 1.1271e-05
16090.0 1.1242e-05
16110.0 1.1215e-05
16130.0 1.1188e-05
16150.0 1.1159e-05
16170.0 1.113e-05
16190.0 1.1102e-05
16210.0 1.1074e-05
16230.0 1.1044e-05
16250.0 1.1015e-05
16270.0 1.0987e-05
16290.0 1.0957e-05
16310.0 1.0927e-05
16330.0 1.0898e-05
16350.0 1.0867e-05
16370.0 1.0836e-05
16390.0 1.0806e-05
16410.0 1.0775e-05
16430.0 1.0744e-05
16450.0 1.0712e-05
16470.0 1.0682e-05
16490.0 1.065e-05
16510.0 1.0617e-05
16530.0 1.0586e-05
16550.0 1.0554e-05
16570.0 1.052e-05
16590.0 1.0487e-05
16610.0 1.0455e-05
16630.0 1.0421e-05
16650.0 1.0387e-05
16670.0 1.0354e-05
16690.0 1.032e-05
16710.0 1.0285e-05
16730.0 1.025e-05
16750.0 1.0216e-05
16770.0 1.0181e-05
16790.0 1.0145e-05
16810.0 1.011e-05
16830.0 1.0075e-05
16850.0 1.0038e-05
16870.0 1.0002e-05
16890.0 9.9668e-06
16910.0 9.9296e-06
16930.0 9.8917e-06
16950.0 9.8554e-06
16970.0 9.8185e-06
16990.0 9.7803e-06
17010.0 9.7427e-06
17030.0 9.7058e-06
17050.0 9.6671e-06
17070.0 9.6283e-06
17090.0 9.5904e-06
17110.0 9.5519e-06
17130.0 9.5116e-06
17150.0 9.4726e-06
17170.0 9.4341e-06
17190.0 9.3942e-06
17210.0 9.3541e-06
17230.0 9.3152e-06
17250.0 9.2752e-06
17270.0 9.2338e-06
17290.0 9.1936e-06
17310.0 9.1536e-06
17330.0 9.1122e-06
17350.0 9.0705e-06
17370.0 9.0304e-06
17390.0 8.9893e-06
17410.0 8.9472e-06
17430.0 8.906e-06
17450.0 8.8652e-06
17470.0 8.8221e-06
17490.0 8.7796e-06
17510.0 8.7382e-06
17530.0 8.696e-06
17550.0 8.6527e-06
17570.0 8.6107e-06
17590.0 8.5688e-06
17610.0 8.5254e-06
17630.0 8.4823e-06
17650.0 8.4401e-06
17670.0 8.3969e-06
17690.0 8.3522e-06
17710.0 8.3096e-06
17730.0 8.2668e-06
17750.0 8.2228e-06
17770.0 8.1791e-06
17790.0 8.1366e-06
17810.0 8.0924e-06
17830.0 8.0479e-06
17850.0 8.0045e-06
17870.0 7.9611e-06
17890.0 7.9162e-06
17910.0 7.8718e-06
17930.0 7.8288e-06
17950.0 7.7845e-06
17970.0 7.7399e-06
17990.0 7.6963e-06
18010.0 7.6527e-06
18030.0 7.6071e-06
18050.0 7.5628e-06
18070.0 7.5192e-06
18090.0 7.4746e-06
18110.0 7.4295e-06
18130.0 7.386e-06
18150.0 7.3421e-06
18170.0 7.297e-06
18190.0 7.2528e-06
18210.0 7.2092e-06
18230.0 7.1642e-06
18250.0 7.119e-06
18270.0 7.0755e-06
18290.0 7.0314e-06
18310.0 6.9865e-06
18330.0 6.9424e-06
18350.0 6.8992e-06
18370.0 6.8544e-06
18390.0 6.8098e-06
18410.0 6.7663e-06
18430.0 6.7224e-06
18450.0 6.6772e-06
18470.0 6.6335e-06
18490.0 6.5904e-06
18510.0 6.5462e-06
18530.0 6.5021e-06
18550.0 6.4593e-06
18570.0 6.4156e-06
18590.0 6.371e-06
18610.0 6.3277e-06
18630.0 6.2848e-06
18650.0 6.2409e-06
18670.0 6.197e-06
18690.0 6.1548e-06
18710.0 6.1117e-06
18730.0 6.0681e-06
18750.0 6.0255e-06
18770.0 5.9834e-06
18790.0 5.9395e-06
18810.0 5.8965e-06
18830.0 5.8547e-06
18850.0 5.8121e-06
18870.0 5.7691e-06
18890.0 5.7273e-06
18910.0 5.6858e-06
18930.0 5.6431e-06
18950.0 5.601e-06
18970.0 5.5599e-06
18990.0 5.518e-06
19010.0 5.4751e-06
19030.0 5.4344e-06
19050.0 5.3935e-06
19070.0 5.3517e-06
19090.0 5.3105e-06
19110.0 5.2706e-06
19130.0 5.2292e-06
19150.0 5.1878e-06
19170.0 5.1476e-06
19190.0 5.1075e-06
19210.0 5.0663e-06
19230.0 5.0258e-06
19250.0 4.9867e-06
19270.0 4.9465e-06
19290.0 4.9062e-06
19310.0 4.8672e-06
19330.0 4.828e-06
19350.0 4.7874e-06
19370.0 4.7482e-06
19390.0 4.7097e-06
19410.0 4.6704e-06
19430.0 4.6309e-06
19450.0 4.593e-06
19470.0 4.5547e-06
19490.0 4.5156e-06
19510.0 4.4774e-06
19530.0 4.44e-06
19550.0 4.4013e-06
19570.0 4.3627e-06
19590.0 4.3257e-06
19610.0 4.2883e-06
19630.0 4.2502e-06
19650.0 4.2132e-06
19670.0 4.1769e-06
19690.0 4.1392e-06
19710.0 4.102e-06
19730.0 4.0659e-06
19750.0 4.0294e-06
19770.0 3.9919e-06
19790.0 3.9559e-06
19810.0 3.9204e-06
19830.0 3.8839e-06
19850.0 3.8476e-06
19870.0 3.8121e-06
19890.0 3.7752e-06
19910.0 3.7362e-06
19930.0 3.6965e-06
19950.0 3.654e-06
19970.0 3.6057e-06
19990.0 3.5519e-06
20010.0 3.5637e-06
20030.0 3.4972e-06
20050.0 3.4236e-06
20070.0 3.3473e-06
20090.0 3.2685e-06
20110.0 3.183e-06
20130.0 3.0996e-06
20150.0 3.0194e-06
20170.0 2.9388e-06
20190.0 2.8595e-06
20210.0 2.7863e-06
20230.0 2.7165e-06
20250.0 2.6481e-06
20270.0 2.5857e-06
20290.0 2.5295e-06
20310.0 2.4771e-06
20330.0 2.4291e-06
20350.0 2.3897e-06
20370.0 2.3556e-06
20390.0 2.3266e-06
20410.0 2.3042e-06
20430.0 2.288e-06
20450.0 2.2769e-06
20470.0 2.2717e-06
20490.0 2.2717e-06
20510.0 2.2765e-06
20530.0 2.2862e-06
20550.0 2.2998e-06
20570.0 2.3161e-06
20590.0 2.3363e-06
20610.0 2.3593e-06
20630.0 2.3835e-06
20650.0 2.4098e-06
20670.0 2.439e-06
20690.0 2.4678e-06
20710.0 2.4968e-06
20730.0 2.5274e-06
20750.0 2.5585e-06
20770.0 2.5881e-06
20790.0 2.6186e-06
20810.0 2.6503e-06
20830.0 2.6811e-06
20850.0 2.7116e-06
20870.0 2.7441e-06
20890.0 2.7769e-06
20910.0 2.8084e-06
20930.0 2.8413e-06
20950.0 2.8755e-06
20970.0 2.909e-06
20990.0 2.9423e-06
21010.0 2.9777e-06
21030.0 3.0125e-06
21050.0 3.0459e-06
21070.0 3.0795e-06
21090.0 3.1135e-06
21110.0 3.1446e-06
21130.0 3.1739e-06
21150.0 3.2026e-06
21170.0 3.229e-06
21190.0 3.252e-06
21210.0 3.2734e-06
21230.0 3.2924e-06
21250.0 3.3073e-06
21270.0 3.3189e-06
21290.0 3.3274e-06
21310.0 3.3318e-06
21330.0 3.332e-06
21350.0 3.3282e-06
21370.0 3.3198e-06
21390.0 3.3069e-06
21410.0 3.2896e-06
21430.0 3.2662e-06
21450.0 3.2384e-06
21470.0 3.2067e-06
21490.0 3.1695e-06
21510.0 3.1273e-06
21530.0 3.0829e-06
21550.0 3.0349e-06
21570.0 2.982e-06
21590.0 2.9282e-06
21610.0 2.8743e-06
21630.0 2.8184e-06
21650.0 2.7614e-06
21670.0 2.7095e-06
21690.0 2.659e-06
21710.0 2.6104e-06
21730.0 2.5668e-06
21750.0 2.5291e-06
21770.0 2.4947e-06
21790.0 2.4668e-06
21810.0 2.446e-06
21830.0 2.4313e-06
21850.0 2.4232e-06
21870.0 2.4221e-06
21890.0 2.4273e-06
21910.0 2.439e-06
21930.0 2.4571e-06
21950.0 2.4801e-06
21970.0 2.5086e-06
21990.0 2.5438e-06
22010.0 2.5818e-06
22030.0 2.623e-06
22050.0 2.669e-06
22070.0 2.7179e-06
22090.0 2.7666e-06
22110.0 2.818e-06
22130.0 2.8717e-06
22150.0 2.924e-06
22170.0 2.9752e-06
22190.0 3.0278e-06
22210.0 3.0782e-06
22230.0 3.1238e-06
22250.0 3.1677e-06
22270.0 3.2087e-06
22290.0 3.2442e-06
22310.0 3.2748e-06
22330.0 3.3017e-06
22350.0 3.3223e-06
22370.0 3.3363e-06
22390.0 3.3445e-06
22410.0 3.346e-06
22430.0 3.3408e-06
22450.0 3.3291e-06
22470.0 3.3102e-06
22490.0 3.2847e-06
22510.0 3.2538e-06
22530.0 3.2152e-06
22550.0 3.1692e-06
22570.0 3.1193e-06
22590.0 3.0639e-06
22610.0 3.0012e-06
