#lamb flux
1010.0 0.00019771
1030.0 0.00025144
1050.0 0.00031299
1070.0 0.00038144
1090.0 0.00045729
1110.0 0.00053199
1130.0 0.00060266
1150.0 0.00067098
1170.0 0.00073424
1190.0 0.00078465
1210.0 0.00082658
1230.0 0.00086063
1250.0 0.00088272
1270.0 0.00089274
1290.0 0.00089635
1310.0 0.00089054
1330.0 0.00087439
1350.0 0.00085406
1370.0 0.00083817
1390.0 0.00081414
1410.0 0.00078358
1430.0 0.00075051
1450.0 0.00071449
1470.0 0.00067595
1490.0 0.00063734
1510.0 0.00059944
1530.0 0.0005604
1550.0 0.00052323
1570.0 0.00048908
1590.0 0.00045924
1610.0 0.0004364
1630.0 0.00041725
1650.0 0.00040147
1670.0 0.00038831
1690.0 0.00037803
1710.0 0.00037115
1730.0 0.00036694
1750.0 0.0003624
1770.0 0.00036052
1790.0 0.00036117
1810.0 0.00036391
1830.0 0.00036862
1850.0 0.00037047
1870.0 0.00037523
1890.0 0.00038198
1910.0 0.00039127
1930.0 0.00040327
1950.0 0.00041757
1970.0 0.00043466
1990.0 0.00045521
2010.0 0.00047904
2030.0 0.00050626
2050.0 0.00053782
2070.0 0.0005741
2090.0 0.00061462
2110.0 0.00066032
2130.0 0.00071199
2150.0 0.0007695
2170.0 0.00083283
2190.0 0.00090338
2210.0 0.00098111
2230.0 0.0010655
2250.0 0.0011572
2270.0 0.0012572
2290.0 0.0013641
2310.0 0.0014774
2330.0 0.0015982
2350.0 0.0017258
2370.0 0.0018582
2390.0 0.0019957
2410.0 0.002138
2430.0 0.0022813
2450.0 0.0024239
2470.0 0.0025646
2490.0 0.0027005
2510.0 0.0028294
2530.0 0.0029541
2550.0 0.0030807
2570.0 0.0032201
2590.0 0.0033879
2610.0 0.0036187
2630.0 0.0039419
2650.0 0.0043706
2670.0 0.0049397
2690.0 0.0056797
2710.0 0.0065483
2730.0 0.0075147
2750.0 0.0086098
2770.0 0.0097431
2790.0 0.010829
2810.0 0.011869
2830.0 0.012853
2850.0 0.013669
2870.0 0.01437
2890.0 0.014997
2910.0 0.015548
2930.0 0.016028
2950.0 0.016493
2970.0 0.016948
2990.0 0.017376
3010.0 0.017793
3030.0 0.018219
3050.0 0.018639
3070.0 0.019022
3090.0 0.019398
3110.0 0.019749
3130.0 0.020042
3150.0 0.020278
3170.0 0.020462
3190.0 0.020581
3210.0 0.020664
3230.0 0.020751
3250.0 0.020882
3270.0 0.021085
3290.0 0.021393
3310.0 0.021838
3330.0 0.022388
3350.0 0.023003
3370.0 0.023691
3390.0 0.024412
3410.0 0.025083
3430.0 0.025701
3450.0 0.026205
3470.0 0.027707
3490.0 0.02774
3510.0 0.024651
3530.0 0.025355
3550.0 0.030489
3570.0 0.034522
3590.0 0.037312
3610.0 0.039964
3630.0 0.041589
3650.0 0.037585
3670.0 0.033795
3690.0 0.034079
3710.0 0.037609
3730.0 0.042463
3750.0 0.04169
3770.0 0.04177
3790.0 0.043425
3810.0 0.040961
3830.0 0.036115
3850.0 0.032418
3870.0 0.031285
3890.0 0.035064
3910.0 0.038094
3930.0 0.03918
3950.0 0.039914
3970.0 0.041206
3990.0 0.043088
4010.0 0.043236
4030.0 0.040606
4050.0 0.036931
4070.0 0.036709
4090.0 0.038921
4110.0 0.041212
4130.0 0.040192
4150.0 0.039129
4170.0 0.038738
4190.0 0.040346
4210.0 0.039893
4230.0 0.036769
4250.0 0.032832
4270.0 0.029652
4290.0 0.027074
4310.0 0.025129
4330.0 0.025085
4350.0 0.027305
4370.0 0.028069
4390.0 0.029004
4410.0 0.030018
4430.0 0.030384
4450.0 0.02986
4470.0 0.029178
4490.0 0.030372
4510.0 0.031134
4530.0 0.031803
4550.0 0.032361
4570.0 0.032739
4590.0 0.033583
4610.0 0.034024
4630.0 0.034987
4650.0 0.036234
4670.0 0.03514
4690.0 0.032805
4710.0 0.029946
4730.0 0.028757
4750.0 0.028333
4770.0 0.02744
4790.0 0.026312
4810.0 0.025287
4830.0 0.026122
4850.0 0.027358
4870.0 0.024652
4890.0 0.024032
4910.0 0.023101
4930.0 0.0236
4950.0 0.0218
4970.0 0.019897
4990.0 0.019403
5010.0 0.018087
5030.0 0.016914
5050.0 0.017082
5070.0 0.01845
5090.0 0.019135
5110.0 0.021187
5130.0 0.021827
5150.0 0.022546
5170.0 0.023265
5190.0 0.022713
5210.0 0.023043
5230.0 0.023505
5250.0 0.023625
5270.0 0.024161
5290.0 0.023833
5310.0 0.023325
5330.0 0.022102
5350.0 0.020912
5370.0 0.019649
5390.0 0.020009
5410.0 0.020279
5430.0 0.020351
5450.0 0.020466
5470.0 0.020219
5490.0 0.019921
5510.0 0.019611
5530.0 0.019121
5550.0 0.019086
5570.0 0.019325
5590.0 0.019597
5610.0 0.019553
5630.0 0.01913
5650.0 0.018907
5670.0 0.018413
5690.0 0.017897
5710.0 0.017299
5730.0 0.017103
5750.0 0.016988
5770.0 0.016573
5790.0 0.016483
5810.0 0.016365
5830.0 0.01672
5850.0 0.016961
5870.0 0.01705
5890.0 0.016813
5910.0 0.016792
5930.0 0.016694
5950.0 0.016732
5970.0 0.016463
5990.0 0.016157
6010.0 0.016389
6030.0 0.016592
6050.0 0.016268
6070.0 0.016154
6090.0 0.016036
6110.0 0.016157
6130.0 0.016148
6150.0 0.015691
6170.0 0.014597
6190.0 0.013495
6210.0 0.012915
6230.0 0.012734
6250.0 0.012824
6270.0 0.013253
6290.0 0.013691
6310.0 0.014304
6330.0 0.014716
6350.0 0.014879
6370.0 0.014929
6390.0 0.014644
6410.0 0.014314
6430.0 0.013869
6450.0 0.013554
6470.0 0.013409
6490.0 0.013403
6510.0 0.013353
6530.0 0.013339
6550.0 0.0131
6570.0 0.012766
6590.0 0.012694
6610.0 0.012468
6630.0 0.012212
6650.0 0.011945
6670.0 0.011583
6690.0 0.011301
6710.0 0.010974
6730.0 0.010846
6750.0 0.010669
6770.0 0.010508
6790.0 0.010551
6810.0 0.010395
6830.0 0.010215
6850.0 0.010106
6870.0 0.009905
6890.0 0.0098022
6910.0 0.0097239
6930.0 0.0095629
6950.0 0.0095163
6970.0 0.0093631
6990.0 0.0093666
7010.0 0.0092357
7030.0 0.0092096
7050.0 0.009095
7070.0 0.0089422
7090.0 0.0087791
7110.0 0.0085037
7130.0 0.0084814
7150.0 0.0085964
7170.0 0.0086928
7190.0 0.0087501
7210.0 0.0088374
7230.0 0.0089814
7250.0 0.0089794
7270.0 0.008898
7290.0 0.0088149
7310.0 0.0086111
7330.0 0.0082191
7350.0 0.0081238
7370.0 0.0080664
7390.0 0.0079266
7410.0 0.007906
7430.0 0.0078442
7450.0 0.0077287
7470.0 0.0076489
7490.0 0.0075144
7510.0 0.007148
7530.0 0.007202
7550.0 0.0072828
7570.0 0.0069952
7590.0 0.0065747
7610.0 0.0066423
7630.0 0.006651
7650.0 0.0066172
7670.0 0.0066795
7690.0 0.0066869
7710.0 0.0067642
7730.0 0.0069525
7750.0 0.0072697
7770.0 0.0075611
7790.0 0.0078464
7810.0 0.0080987
7830.0 0.0083745
7850.0 0.0084466
7870.0 0.0085028
7890.0 0.0083998
7910.0 0.0081626
7930.0 0.0079875
7950.0 0.0078515
7970.0 0.007792
7990.0 0.007777
8010.0 0.0070698
8030.0 0.0070271
8050.0 0.0068875
8070.0 0.0068219
8090.0 0.0066293
8110.0 0.0066801
8130.0 0.0067637
8150.0 0.0068812
8170.0 0.0068129
8190.0 0.0069173
8210.0 0.0068247
8230.0 0.006478
8250.0 0.0063655
8270.0 0.0062546
8290.0 0.0061495
8310.0 0.0059236
8330.0 0.0059951
8350.0 0.005967
8370.0 0.0059744
8390.0 0.0060811
8410.0 0.0060488
8430.0 0.006132
8450.0 0.0062084
8470.0 0.0062548
8490.0 0.0063313
8510.0 0.0062202
8530.0 0.006001
8550.0 0.0060505
8570.0 0.0060561
8590.0 0.0058717
8610.0 0.0059972
8630.0 0.0059146
8650.0 0.0057972
8670.0 0.0057588
8690.0 0.0057487
8710.0 0.0055161
8730.0 0.0056
8750.0 0.0054119
8770.0 0.0053861
8790.0 0.0052349
8810.0 0.0051713
8830.0 0.0051684
8850.0 0.0049352
8870.0 0.0046856
8890.0 0.0046251
8910.0 0.0043591
8930.0 0.0040247
8950.0 0.0040239
8970.0 0.0038861
8990.0 0.0038579
9010.0 0.003824
9030.0 0.0037977
9050.0 0.0037707
9070.0 0.0037435
9090.0 0.0037161
9110.0 0.0036884
9130.0 0.0036607
9150.0 0.0036332
9170.0 0.0036056
9190.0 0.0035779
9210.0 0.0035501
9230.0 0.0035223
9250.0 0.0034944
9270.0 0.0034665
9290.0 0.0034386
9310.0 0.0034108
9330.0 0.003383
9350.0 0.0033552
9370.0 0.0033275
9390.0 0.0032999
9410.0 0.0032723
9430.0 0.0032448
9450.0 0.0032174
9470.0 0.0031921
9490.0 0.0031658
9510.0 0.0031376
9530.0 0.0031098
9550.0 0.0030826
9570.0 0.0030557
9590.0 0.003029
9610.0 0.0030026
9630.0 0.0029764
9650.0 0.0029504
9670.0 0.0029245
9690.0 0.0028989
9710.0 0.0028735
9730.0 0.0028483
9750.0 0.0028232
9770.0 0.0027985
9790.0 0.0027739
9810.0 0.0027495
9830.0 0.0027249
9850.0 0.0026971
9870.0 0.0026727
9890.0 0.0026513
9910.0 0.0026295
9930.0 0.0026031
9950.0 0.0025804
9970.0 0.0025598
9990.0 0.0025387
10010.0 0.0025174
10030.0 0.002496
10050.0 0.0024748
10070.0 0.0024539
10090.0 0.0024333
10110.0 0.0024124
10130.0 0.0023916
10150.0 0.0023717
10170.0 0.0023518
10190.0 0.0023318
10210.0 0.0023125
10230.0 0.0022936
10250.0 0.0022745
10270.0 0.0022558
10290.0 0.0022376
10310.0 0.0022194
10330.0 0.0022011
10350.0 0.0021835
10370.0 0.0021663
10390.0 0.0021489
10410.0 0.0021316
10430.0 0.002115
10450.0 0.0020987
10470.0 0.0020824
10490.0 0.0020666
10510.0 0.0020511
10530.0 0.0020352
10550.0 0.0020198
10570.0 0.002005
10590.0 0.0019901
10610.0 0.0019753
10630.0 0.0019611
10650.0 0.0019471
10670.0 0.0019328
10690.0 0.001919
10710.0 0.0019057
10730.0 0.0018923
10750.0 0.0018787
10770.0 0.001866
10790.0 0.0018534
10810.0 0.0018407
10830.0 0.0018283
10850.0 0.0018165
10870.0 0.0018043
10890.0 0.0017924
10910.0 0.0017811
10930.0 0.00177
10950.0 0.0017591
10970.0 0.0017488
10990.0 0.0017392
11010.0 0.0018421
11030.0 0.001835
11050.0 0.0018281
11070.0 0.0018209
11090.0 0.0018129
11110.0 0.0018046
11130.0 0.001796
11150.0 0.0017864
11170.0 0.0017763
11190.0 0.0017662
11210.0 0.0017556
11230.0 0.0017445
11250.0 0.0017336
11270.0 0.0017231
11290.0 0.0017123
11310.0 0.0017019
11330.0 0.0016925
11350.0 0.0016833
11370.0 0.0016744
11390.0 0.0016664
11410.0 0.0016589
11430.0 0.0016514
11450.0 0.0016443
11470.0 0.0016377
11490.0 0.001631
11510.0 0.001624
11530.0 0.0016172
11550.0 0.0016103
11570.0 0.0016028
11590.0 0.0015951
11610.0 0.0015874
11630.0 0.0015791
11650.0 0.0015703
11670.0 0.0015618
11690.0 0.0015533
11710.0 0.0015444
11730.0 0.0015357
11750.0 0.0015275
11770.0 0.0015191
11790.0 0.0015107
11810.0 0.0015029
11830.0 0.0014953
11850.0 0.0014874
11870.0 0.00148
11890.0 0.0014732
11910.0 0.0014664
11930.0 0.0014599
11950.0 0.0014541
11970.0 0.0014488
11990.0 0.0014438
12010.0 0.0014396
12030.0 0.0014364
12050.0 0.0014339
12070.0 0.0014321
12090.0 0.0014317
12110.0 0.001432
12130.0 0.0014332
12150.0 0.0014353
12170.0 0.0014383
12190.0 0.0014419
12210.0 0.0014463
12230.0 0.001451
12250.0 0.0014562
12270.0 0.0014617
12290.0 0.0014672
12310.0 0.0014728
12330.0 0.0014783
12350.0 0.0014837
12370.0 0.0014887
12390.0 0.0014934
12410.0 0.0014976
12430.0 0.0015012
12450.0 0.0015041
12470.0 0.0015061
12490.0 0.0015073
12510.0 0.0015076
12530.0 0.0015068
12550.0 0.0015046
12570.0 0.0015015
12590.0 0.0014974
12610.0 0.0014917
12630.0 0.0014848
12650.0 0.0014775
12670.0 0.0014689
12690.0 0.0014591
12710.0 0.001449
12730.0 0.0014385
12750.0 0.0014267
12770.0 0.0014148
12790.0 0.0014031
12810.0 0.0013911
12830.0 0.0013786
12850.0 0.0013671
12870.0 0.0013558
12890.0 0.0013444
12910.0 0.0013337
12930.0 0.0013238
12950.0 0.0013141
12970.0 0.0013046
12990.0 0.0012963
13010.0 0.0012885
13030.0 0.0012808
13050.0 0.0012737
13070.0 0.0012672
13090.0 0.0012608
13110.0 0.0012545
13130.0 0.0012488
13150.0 0.0012432
13170.0 0.0012374
13190.0 0.001232
13210.0 0.001227
13230.0 0.0012218
13250.0 0.0012167
13270.0 0.0012118
13290.0 0.0012069
13310.0 0.0012016
13330.0 0.0011965
13350.0 0.0011913
13370.0 0.0011858
13390.0 0.0011798
13410.0 0.001174
13430.0 0.0011678
13450.0 0.001161
13470.0 0.0011542
13490.0 0.0011472
13510.0 0.0011394
13530.0 0.0011314
13550.0 0.0011235
13570.0 0.0011153
13590.0 0.0011065
13610.0 0.0010978
13630.0 0.0010892
13650.0 0.0010801
13670.0 0.0010708
13690.0 0.0010618
13710.0 0.0010525
13730.0 0.0010426
13750.0 0.0010332
13770.0 0.0010238
13790.0 0.001014
13810.0 0.0010042
13830.0 0.00099486
13850.0 0.00098519
13870.0 0.00097538
13890.0 0.00096593
13910.0 0.00095661
13930.0 0.00094705
13950.0 0.00093763
13970.0 0.00092876
13990.0 0.00091975
14010.0 0.00091073
14030.0 0.0009021
14050.0 0.00089364
14070.0 0.00088488
14090.0 0.00087643
14110.0 0.00086828
14130.0 0.00086003
14150.0 0.00085171
14170.0 0.00084378
14190.0 0.00083592
14210.0 0.0008279
14230.0 0.00082007
14250.0 0.0008125
14270.0 0.0008048
14290.0 0.00079711
14310.0 0.00078987
14330.0 0.00078275
14350.0 0.00077563
14370.0 0.00076881
14390.0 0.00076235
14410.0 0.00075588
14430.0 0.0007496
14450.0 0.00074366
14470.0 0.00073787
14490.0 0.00073204
14510.0 0.0007265
14530.0 0.00072118
14550.0 0.00071582
14570.0 0.00071052
14590.0 0.00070542
14610.0 0.00070031
14630.0 0.00069511
14650.0 0.00069005
14670.0 0.00068508
14690.0 0.00068004
14710.0 0.000675
14730.0 0.00067019
14750.0 0.00066537
14770.0 0.00066053
14790.0 0.00065584
14810.0 0.00065128
14830.0 0.00064662
14850.0 0.00064207
14870.0 0.00063768
14890.0 0.0006333
14910.0 0.00062893
14930.0 0.00062471
14950.0 0.00062062
14970.0 0.00061654
14990.0 0.00061261
15010.0 0.00060889
15030.0 0.00060526
15050.0 0.00060169
15070.0 0.00059831
15090.0 0.00059502
15110.0 0.00059174
15130.0 0.00058851
15150.0 0.00058536
15170.0 0.00058217
15190.0 0.00057897
15210.0 0.00057583
15230.0 0.00057271
15250.0 0.00056954
15270.0 0.0005664
15290.0 0.00056333
15310.0 0.00056023
15330.0 0.00055713
15350.0 0.00055408
15370.0 0.00055105
15390.0 0.00054796
15410.0 0.00054492
15430.0 0.00054193
15450.0 0.00053893
15470.0 0.00053591
15490.0 0.00053297
15510.0 0.00053003
15530.0 0.00052707
15550.0 0.00052415
15570.0 0.00052128
15590.0 0.00051837
15610.0 0.00051546
15630.0 0.00051264
15650.0 0.00050982
15670.0 0.00050697
15690.0 0.00050417
15710.0 0.00050143
15730.0 0.00049865
15750.0 0.00049589
15770.0 0.00049318
15790.0 0.00049049
15810.0 0.00048776
15830.0 0.00048509
15850.0 0.00048247
15870.0 0.00047983
15890.0 0.00047721
15910.0 0.00047465
15930.0 0.00047208
15950.0 0.0004695
15970.0 0.00046697
15990.0 0.00046448
16010.0 0.00046197
16030.0 0.00045947
16050.0 0.00045705
16070.0 0.00045463
16090.0 0.00045219
16110.0 0.00044981
16130.0 0.00044747
16150.0 0.00044508
16170.0 0.00044273
16190.0 0.00044045
16210.0 0.00043816
16230.0 0.00043586
16250.0 0.00043362
16270.0 0.00043141
16290.0 0.00042918
16310.0 0.00042698
16330.0 0.00042483
16350.0 0.00042268
16370.0 0.00042049
16390.0 0.0004184
16410.0 0.00041632
16430.0 0.00041423
16450.0 0.00041217
16470.0 0.00041017
16490.0 0.00040814
16510.0 0.00040611
16530.0 0.00040414
16550.0 0.0004022
16570.0 0.00040022
16590.0 0.00039828
16610.0 0.00039641
16630.0 0.00039452
16650.0 0.00039263
16670.0 0.0003908
16690.0 0.00038898
16710.0 0.00038712
16730.0 0.00038532
16750.0 0.00038356
16770.0 0.00038179
16790.0 0.00038001
16810.0 0.00037831
16830.0 0.00037661
16850.0 0.00037489
16870.0 0.00037321
16890.0 0.00037157
16910.0 0.0003699
16930.0 0.00036824
16950.0 0.00036664
16970.0 0.00036505
16990.0 0.00036344
17010.0 0.00036188
17030.0 0.00036035
17050.0 0.00035879
17070.0 0.00035725
17090.0 0.00035576
17110.0 0.00035427
17130.0 0.00035275
17150.0 0.00035128
17170.0 0.00034986
17190.0 0.0003484
17210.0 0.00034696
17230.0 0.00034558
17250.0 0.00034418
17270.0 0.00034276
17290.0 0.00034139
17310.0 0.00034005
17330.0 0.00033868
17350.0 0.00033732
17370.0 0.00033603
17390.0 0.00033472
17410.0 0.0003334
17430.0 0.00033212
17450.0 0.00033087
17470.0 0.00032956
17490.0 0.00032829
17510.0 0.00032707
17530.0 0.00032583
17550.0 0.00032458
17570.0 0.00032338
17590.0 0.0003222
17610.0 0.00032099
17630.0 0.00031979
17650.0 0.00031864
17670.0 0.00031747
17690.0 0.00031627
17710.0 0.00031514
17730.0 0.00031402
17750.0 0.00031287
17770.0 0.00031174
17790.0 0.00031066
17810.0 0.00030954
17830.0 0.00030842
17850.0 0.00030735
17870.0 0.00030627
17890.0 0.00030517
17910.0 0.00030409
17930.0 0.00030306
17950.0 0.000302
17970.0 0.00030093
17990.0 0.00029991
18010.0 0.00029889
18030.0 0.00029782
18050.0 0.0002968
18070.0 0.0002958
18090.0 0.00029478
18110.0 0.00029375
18130.0 0.00029277
18150.0 0.00029179
18170.0 0.00029077
18190.0 0.00028979
18210.0 0.00028883
18230.0 0.00028783
18250.0 0.00028683
18270.0 0.00028588
18290.0 0.00028492
18310.0 0.00028394
18330.0 0.00028298
18350.0 0.00028206
18370.0 0.00028108
18390.0 0.00028012
18410.0 0.00027919
18430.0 0.00027825
18450.0 0.00027727
18470.0 0.00027634
18490.0 0.00027543
18510.0 0.00027448
18530.0 0.00027354
18550.0 0.00027264
18570.0 0.00027171
18590.0 0.00027075
18610.0 0.00026983
18630.0 0.00026893
18650.0 0.00026799
18670.0 0.00026704
18690.0 0.00026616
18710.0 0.00026524
18730.0 0.0002643
18750.0 0.00026339
18770.0 0.0002625
18790.0 0.00026154
18810.0 0.00026061
18830.0 0.00025972
18850.0 0.0002588
18870.0 0.00025786
18890.0 0.00025696
18910.0 0.00025606
18930.0 0.00025512
18950.0 0.00025419
18970.0 0.00025329
18990.0 0.00025237
19010.0 0.0002514
19030.0 0.0002505
19050.0 0.00024959
19070.0 0.00024865
19090.0 0.00024772
19110.0 0.00024682
19130.0 0.00024587
19150.0 0.00024492
19170.0 0.000244
19190.0 0.00024308
19210.0 0.00024211
19230.0 0.00024116
19250.0 0.00024025
19270.0 0.0002393
19290.0 0.00023834
19310.0 0.00023741
19330.0 0.00023648
19350.0 0.00023548
19370.0 0.00023453
19390.0 0.00023359
19410.0 0.00023262
19430.0 0.00023163
19450.0 0.00023069
19470.0 0.00022973
19490.0 0.00022874
19510.0 0.00022777
19530.0 0.00022681
19550.0 0.00022581
19570.0 0.0002248
19590.0 0.00022384
19610.0 0.00022285
19630.0 0.00022184
19650.0 0.00022085
19670.0 0.00021988
19690.0 0.00021885
19710.0 0.00021783
19730.0 0.00021684
19750.0 0.00021583
19770.0 0.00021477
19790.0 0.00021376
19810.0 0.00021276
19830.0 0.00021172
19850.0 0.00021068
19870.0 0.00020968
19890.0 0.00020864
19910.0 0.00020758
19930.0 0.00020656
19950.0 0.00020555
19970.0 0.00020451
19990.0 0.0002035
20010.0 0.00020254
20030.0 0.00020157
20050.0 0.00020058
20070.0 0.00019964
20090.0 0.0001987
20110.0 0.0001977
20130.0 0.00019673
20150.0 0.00019578
20170.0 0.0001948
20190.0 0.0001938
20210.0 0.00019283
20230.0 0.00019186
20250.0 0.00019086
20270.0 0.00018989
20290.0 0.00018895
20310.0 0.000188
20330.0 0.00018705
20350.0 0.00018618
20370.0 0.00018533
20390.0 0.00018448
20410.0 0.00018368
20430.0 0.00018294
20450.0 0.00018221
20470.0 0.00018151
20490.0 0.00018088
20510.0 0.00018029
20530.0 0.00017973
20550.0 0.00017923
20570.0 0.00017879
20590.0 0.00017839
20610.0 0.00017804
20630.0 0.00017776
20650.0 0.00017752
20670.0 0.00017734
20690.0 0.00017721
20710.0 0.00017713
20730.0 0.00017708
20750.0 0.00017707
20770.0 0.00017708
20790.0 0.0001771
20810.0 0.00017713
20830.0 0.00017715
20850.0 0.00017714
20870.0 0.00017711
20890.0 0.00017703
20910.0 0.00017689
20930.0 0.00017669
20950.0 0.00017642
20970.0 0.00017607
20990.0 0.00017565
21010.0 0.00017512
21030.0 0.00017451
21050.0 0.00017383
21070.0 0.00017306
21090.0 0.0001722
21110.0 0.00017129
21130.0 0.00017033
21150.0 0.00016928
21170.0 0.00016821
21190.0 0.00016712
21210.0 0.00016598
21230.0 0.0001648
21250.0 0.00016365
21270.0 0.0001625
21290.0 0.00016132
21310.0 0.00016015
21330.0 0.00015902
21350.0 0.00015787
21370.0 0.00015671
21390.0 0.00015558
21410.0 0.00015445
21430.0 0.00015327
21450.0 0.00015211
21470.0 0.00015096
21490.0 0.00014977
21510.0 0.00014855
21530.0 0.00014735
21550.0 0.00014613
21570.0 0.00014485
21590.0 0.00014358
21610.0 0.00014232
21630.0 0.00014101
21650.0 0.00013967
21670.0 0.00013839
21690.0 0.00013709
21710.0 0.00013577
21730.0 0.00013447
21750.0 0.00013322
21770.0 0.00013193
21790.0 0.00013065
21810.0 0.00012943
21830.0 0.00012822
21850.0 0.000127
21870.0 0.00012582
21890.0 0.00012468
21910.0 0.00012353
21930.0 0.00012239
21950.0 0.00012129
21970.0 0.00012019
21990.0 0.00011905
22010.0 0.00011796
22030.0 0.00011688
22050.0 0.00011576
22070.0 0.00011464
22090.0 0.00011355
22110.0 0.00011243
22130.0 0.00011128
22150.0 0.00011014
22170.0 0.00010899
22190.0 0.0001078
22210.0 0.0001066
22230.0 0.00010544
22250.0 0.00010425
22270.0 0.00010303
22290.0 0.00010184
22310.0 0.00010065
22330.0 9.9428e-05
22350.0 9.8224e-05
22370.0 9.7053e-05
22390.0 9.5873e-05
22410.0 9.4677e-05
22430.0 9.3542e-05
22450.0 9.2427e-05
22470.0 9.1303e-05
22490.0 9.0211e-05
22510.0 8.9171e-05
22530.0 8.8125e-05
22550.0 8.7093e-05
22570.0 8.6122e-05
22590.0 8.5179e-05
22610.0 8.4242e-05
22630.0 8.3342e-05
22650.0 8.2495e-05
22670.0 8.165e-05
22690.0 8.0825e-05
22710.0 8.0043e-05
22730.0 7.9283e-05
22750.0 7.8517e-05
22770.0 7.7792e-05
22790.0 7.71e-05
22810.0 7.6415e-05
22830.0 7.5747e-05
22850.0 7.5117e-05
22870.0 7.4505e-05
22890.0 7.3903e-05
22910.0 7.3336e-05
22930.0 7.2801e-05
22950.0 7.2284e-05
22970.0 7.1792e-05
22990.0 7.1347e-05
23010.0 7.0928e-05
23030.0 7.0539e-05
23050.0 7.0189e-05
23070.0 6.9877e-05
23090.0 6.9597e-05
23110.0 6.9357e-05
23130.0 6.9156e-05
23150.0 6.8993e-05
23170.0 6.887e-05
23190.0 6.8783e-05
23210.0 6.8724e-05
23230.0 6.8704e-05
23250.0 6.8712e-05
23270.0 6.8736e-05
23290.0 6.8784e-05
23310.0 6.8857e-05
23330.0 6.8923e-05
23350.0 6.8986e-05
23370.0 6.9053e-05
23390.0 6.9105e-05
23410.0 6.913e-05
23430.0 6.9139e-05
23450.0 6.9143e-05
