#lamb flux
1010.0 8.7771e-06
1030.0 9.5042e-06
1050.0 1.053e-05
1070.0 1.1686e-05
1090.0 1.2946e-05
1110.0 1.4249e-05
1130.0 1.5568e-05
1150.0 1.6954e-05
1170.0 1.8382e-05
1190.0 1.9726e-05
1210.0 2.1071e-05
1230.0 2.2438e-05
1250.0 2.3756e-05
1270.0 2.4996e-05
1290.0 2.627e-05
1310.0 2.7497e-05
1330.0 2.8625e-05
1350.0 2.973e-05
1370.0 3.0844e-05
1390.0 3.1901e-05
1410.0 3.2907e-05
1430.0 3.3967e-05
1450.0 3.5036e-05
1470.0 3.6083e-05
1490.0 3.7175e-05
1510.0 3.8378e-05
1530.0 3.9562e-05
1550.0 4.0788e-05
1570.0 4.212e-05
1590.0 4.3522e-05
1610.0 4.4946e-05
1630.0 4.6504e-05
1650.0 4.8175e-05
1670.0 4.9882e-05
1690.0 5.1648e-05
1710.0 5.3535e-05
1730.0 5.5495e-05
1750.0 5.7426e-05
1770.0 5.9436e-05
1790.0 6.1501e-05
1810.0 6.3529e-05
1830.0 6.5522e-05
1850.0 6.7566e-05
1870.0 6.952e-05
1890.0 7.1348e-05
1910.0 7.3104e-05
1930.0 7.4775e-05
1950.0 7.6241e-05
1970.0 7.7535e-05
1990.0 7.8716e-05
2010.0 7.9699e-05
2030.0 8.0454e-05
2050.0 8.1078e-05
2070.0 8.1567e-05
2090.0 8.1818e-05
2110.0 8.1924e-05
2130.0 8.1944e-05
2150.0 8.1836e-05
2170.0 8.1592e-05
2190.0 8.1336e-05
2210.0 8.1052e-05
2230.0 8.0706e-05
2250.0 8.0364e-05
2270.0 8.0099e-05
2290.0 7.9841e-05
2310.0 7.9598e-05
2330.0 7.946e-05
2350.0 7.9415e-05
2370.0 7.9422e-05
2390.0 7.9546e-05
2410.0 7.9843e-05
2430.0 8.0248e-05
2450.0 8.0785e-05
2470.0 8.1538e-05
2490.0 8.253e-05
2510.0 8.3712e-05
2530.0 8.5322e-05
2550.0 8.7704e-05
2570.0 9.1188e-05
2590.0 9.6241e-05
2610.0 0.00010414
2630.0 0.00011528
2650.0 0.00012924
2670.0 0.00014634
2690.0 0.00016608
2710.0 0.00018589
2730.0 0.00020426
2750.0 0.000221
2770.0 0.00023409
2790.0 0.00024306
2810.0 0.00024862
2830.0 0.00025114
2850.0 0.00025146
2870.0 0.00025061
2890.0 0.00024904
2910.0 0.00024736
2930.0 0.00024609
2950.0 0.000245
2970.0 0.00024425
2990.0 0.00024414
3010.0 0.00032739
3030.0 0.0003284
3050.0 0.00033002
3070.0 0.00033245
3090.0 0.00033503
3110.0 0.00033756
3130.0 0.00033998
3150.0 0.00034322
3170.0 0.00034461
3190.0 0.00039815
3210.0 0.00063185
3230.0 0.0010077
3250.0 0.0011944
3270.0 0.0010732
3290.0 0.0008625
3310.0 0.00074937
3330.0 0.00070955
3350.0 0.00071558
3370.0 0.00073487
3390.0 0.00075729
3410.0 0.0007778
3430.0 0.00077944
3450.0 0.00079184
3470.0 0.00080907
3490.0 0.0008645
3510.0 0.00096883
3530.0 0.0010915
3550.0 0.0013112
3570.0 0.0015785
3590.0 0.0017197
3610.0 0.0017493
3630.0 0.0017542
3650.0 0.0017754
3670.0 0.0019302
3690.0 0.0022952
3710.0 0.0026924
3730.0 0.0029691
3750.0 0.0031843
3770.0 0.0031956
3790.0 0.0030315
3810.0 0.0027988
3830.0 0.002484
3850.0 0.0022305
3870.0 0.00213
3890.0 0.0023671
3910.0 0.0028262
3930.0 0.0032939
3950.0 0.0036677
3970.0 0.0038623
3990.0 0.0039017
4010.0 0.0038473
4030.0 0.0034437
4050.0 0.0028671
4070.0 0.002561
4090.0 0.0025932
4110.0 0.002784
4130.0 0.0028759
4150.0 0.0028934
4170.0 0.0028857
4190.0 0.0029252
4210.0 0.0029479
4230.0 0.0030487
4250.0 0.0031395
4270.0 0.0032194
4290.0 0.0032562
4310.0 0.0033203
4330.0 0.0034004
4350.0 0.0034465
4370.0 0.0033312
4390.0 0.0030562
4410.0 0.0026895
4430.0 0.0023457
4450.0 0.0021433
4470.0 0.0021589
4490.0 0.0023298
4510.0 0.0026168
4530.0 0.0030532
4550.0 0.0037276
4570.0 0.0045204
4590.0 0.0054391
4610.0 0.0063506
4630.0 0.0069091
4650.0 0.0070773
4670.0 0.0069757
4690.0 0.006498
4710.0 0.0056795
4730.0 0.0047505
4750.0 0.003979
4770.0 0.0034892
4790.0 0.0033901
4810.0 0.0034976
4830.0 0.0036843
4850.0 0.003946
4870.0 0.0042578
4890.0 0.0044412
4910.0 0.004615
4930.0 0.00496
4950.0 0.0053324
4970.0 0.0054326
4990.0 0.0051635
5010.0 0.0046128
5030.0 0.0039465
5050.0 0.0034199
5070.0 0.0030968
5090.0 0.0029409
5110.0 0.0029276
5130.0 0.0029434
5150.0 0.0029374
5170.0 0.0029707
5190.0 0.0031197
5210.0 0.0034297
5230.0 0.0038322
5250.0 0.0043448
5270.0 0.0048843
5290.0 0.0052972
5310.0 0.0056096
5330.0 0.0059024
5350.0 0.0060628
5370.0 0.005998
5390.0 0.005861
5410.0 0.005857
5430.0 0.0061436
5450.0 0.0067346
5470.0 0.0073792
5490.0 0.0077773
5510.0 0.0078715
5530.0 0.0077803
5550.0 0.0075841
5570.0 0.007323
5590.0 0.0070754
5610.0 0.0068711
5630.0 0.0067107
5650.0 0.0064668
5670.0 0.0060381
5690.0 0.0055613
5710.0 0.0051793
5730.0 0.0048695
5750.0 0.004744
5770.0 0.0048149
5790.0 0.0049146
5810.0 0.004934
5830.0 0.0049288
5850.0 0.004872
5870.0 0.0047397
5890.0 0.0046781
5910.0 0.0046699
5930.0 0.004508
5950.0 0.0041672
5970.0 0.0037284
5990.0 0.0032912
6010.0 0.0029821
6030.0 0.0028686
6050.0 0.0029523
6070.0 0.003086
6090.0 0.0030728
6110.0 0.0029921
6130.0 0.0030231
6150.0 0.0031624
6170.0 0.0032958
6190.0 0.003365
6210.0 0.0033598
6230.0 0.0032247
6250.0 0.002951
6270.0 0.0026188
6290.0 0.0023522
6310.0 0.0022862
6330.0 0.0024045
6350.0 0.0025749
6370.0 0.0027469
6390.0 0.0030203
6410.0 0.0034043
6430.0 0.0037098
6450.0 0.003869
6470.0 0.0039769
6490.0 0.0040682
6510.0 0.0041097
6530.0 0.0041297
6550.0 0.0041832
6570.0 0.0042107
6590.0 0.004192
6610.0 0.004102
6630.0 0.0039244
6650.0 0.0036753
6670.0 0.00343
6690.0 0.0032681
6710.0 0.0031478
6730.0 0.0030145
6750.0 0.0029407
6770.0 0.0029884
6790.0 0.0030569
6810.0 0.0030589
6830.0 0.0030061
6850.0 0.0029304
6870.0 0.0028547
6890.0 0.0027901
6910.0 0.0027934
6930.0 0.0028187
6950.0 0.002821
6970.0 0.0028188
6990.0 0.0027865
7010.0 0.0027031
7030.0 0.0025489
7050.0 0.002336
7070.0 0.0021715
7090.0 0.0021531
7110.0 0.0022059
7130.0 0.0021787
7150.0 0.0020956
7170.0 0.0021069
7190.0 0.0022477
7210.0 0.0024124
7230.0 0.002542
7250.0 0.0026112
7270.0 0.0025636
7290.0 0.0024591
7310.0 0.0023933
7330.0 0.0024236
7350.0 0.0025003
7370.0 0.0025549
7390.0 0.0026451
7410.0 0.002808
7430.0 0.0029689
7450.0 0.0030767
7470.0 0.0030952
7490.0 0.0029494
7510.0 0.0027614
7530.0 0.0026819
7550.0 0.0025771
7570.0 0.0024686
7590.0 0.0024214
7610.0 0.0024196
7630.0 0.0024763
7650.0 0.0026215
7670.0 0.0028128
7690.0 0.0029903
7710.0 0.0031134
7730.0 0.0032169
7750.0 0.0033061
7770.0 0.0033659
7790.0 0.0034246
7810.0 0.003431
7830.0 0.0033249
7850.0 0.0032024
7870.0 0.0031196
7890.0 0.0030828
7910.0 0.0030773
7930.0 0.0030108
7950.0 0.0029236
7970.0 0.0028236
7990.0 0.002747
8010.0 0.0025947
8030.0 0.0025921
8050.0 0.0025823
8070.0 0.0025472
8090.0 0.0025197
8110.0 0.0024909
8130.0 0.0024922
8150.0 0.0024741
8170.0 0.0024352
8190.0 0.0023638
8210.0 0.0022668
8230.0 0.0021792
8250.0 0.0021455
8270.0 0.0020358
8290.0 0.0018022
8310.0 0.0015474
8330.0 0.0013749
8350.0 0.0013237
8370.0 0.0014291
8390.0 0.0015992
8410.0 0.0017064
8430.0 0.001785
8450.0 0.0019132
8470.0 0.0020568
8490.0 0.0022388
8510.0 0.0024412
8530.0 0.002647
8550.0 0.0028082
8570.0 0.0029265
8590.0 0.0030152
8610.0 0.0030731
8630.0 0.0030687
8650.0 0.0030138
8670.0 0.0030178
8690.0 0.0031584
8710.0 0.0033481
8730.0 0.0034294
8750.0 0.0033957
8770.0 0.0034194
8790.0 0.0034189
8810.0 0.0032864
8830.0 0.0030453
8850.0 0.0027459
8870.0 0.0025216
8890.0 0.0024488
8910.0 0.0023904
8930.0 0.0022329
8950.0 0.0020712
8970.0 0.0020079
8990.0 0.0020196
9010.0 0.0019967
9030.0 0.0019657
9050.0 0.001948
9070.0 0.0019379
9090.0 0.0019289
9110.0 0.0019202
9130.0 0.0019114
9150.0 0.0019029
9170.0 0.0018942
9190.0 0.0018865
9210.0 0.0018808
9230.0 0.0018713
9250.0 0.0018625
9270.0 0.0018541
9290.0 0.0018461
9310.0 0.0018381
9330.0 0.0018304
9350.0 0.0018229
9370.0 0.0018154
9390.0 0.001808
9410.0 0.0018007
9430.0 0.0017931
9450.0 0.0017834
9470.0 0.0017745
9490.0 0.00177
9510.0 0.0017642
9530.0 0.0017583
9550.0 0.001752
9570.0 0.0017456
9590.0 0.0017392
9610.0 0.0017328
9630.0 0.0017264
9650.0 0.00172
9670.0 0.0017139
9690.0 0.0017076
9710.0 0.0017014
9730.0 0.0016953
9750.0 0.0016893
9770.0 0.0016831
9790.0 0.0016771
9810.0 0.0016712
9830.0 0.0016651
9850.0 0.001659
9870.0 0.0016532
9890.0 0.0016474
9910.0 0.0016414
9930.0 0.0016354
9950.0 0.0016253
9970.0 0.0016206
9990.0 0.0016155
10010.0 0.0016105
10030.0 0.001605
10050.0 0.0015992
10070.0 0.0015935
10090.0 0.0015878
10110.0 0.0015812
10130.0 0.0015726
10150.0 0.0015669
10170.0 0.0015616
10190.0 0.0015554
10210.0 0.0015495
10230.0 0.0015436
10250.0 0.0015369
10270.0 0.0015303
10290.0 0.0015239
10310.0 0.0015171
10330.0 0.0015097
10350.0 0.0015028
10370.0 0.0014959
10390.0 0.0014884
10410.0 0.0014809
10430.0 0.0014739
10450.0 0.0014662
10470.0 0.0014582
10490.0 0.0014505
10510.0 0.0014428
10530.0 0.0014341
10550.0 0.0014257
10570.0 0.0014176
10590.0 0.001409
10610.0 0.0014
10630.0 0.0013914
10650.0 0.0013825
10670.0 0.0013729
10690.0 0.0013634
10710.0 0.0013542
10730.0 0.0013443
10750.0 0.0013338
10770.0 0.0013241
10790.0 0.001314
10810.0 0.0013033
10830.0 0.0012927
10850.0 0.0012824
10870.0 0.001271
10890.0 0.0012594
10910.0 0.0012483
10930.0 0.0012368
10950.0 0.0012246
10970.0 0.0012125
10990.0 0.0012009
11010.0 0.0012572
11030.0 0.0012443
11050.0 0.0012319
11070.0 0.0012195
11090.0 0.0012063
11110.0 0.0011941
11130.0 0.0011822
11150.0 0.00117
11170.0 0.001158
11190.0 0.0011468
11210.0 0.0011354
11230.0 0.0011239
11250.0 0.0011132
11270.0 0.0011029
11290.0 0.0010924
11310.0 0.0010822
11330.0 0.0010729
11350.0 0.0010636
11370.0 0.0010543
11390.0 0.0010453
11410.0 0.0010364
11430.0 0.0010267
11450.0 0.001017
11470.0 0.0010071
11490.0 0.00099643
11510.0 0.00098477
11530.0 0.00097292
11550.0 0.00096047
11570.0 0.00094681
11590.0 0.00093258
11610.0 0.0009182
11630.0 0.00090276
11650.0 0.00088645
11670.0 0.00087046
11690.0 0.0008542
11710.0 0.00083717
11730.0 0.00082014
11750.0 0.00080363
11770.0 0.00078643
11790.0 0.00076895
11810.0 0.00075195
11830.0 0.00073496
11850.0 0.00071713
11870.0 0.00069983
11890.0 0.00068314
11910.0 0.00066612
11930.0 0.00064914
11950.0 0.00063308
11970.0 0.00061726
11990.0 0.00060133
12010.0 0.00058635
12030.0 0.00057227
12050.0 0.00055851
12070.0 0.00054529
12090.0 0.00053356
12110.0 0.00052252
12130.0 0.00051213
12150.0 0.00050291
12170.0 0.00049485
12190.0 0.00048747
12210.0 0.00048127
12230.0 0.00047631
12250.0 0.00047239
12270.0 0.00046956
12290.0 0.00046783
12310.0 0.00046706
12330.0 0.00046728
12350.0 0.00046837
12370.0 0.00047007
12390.0 0.00047243
12410.0 0.00047556
12430.0 0.00047878
12450.0 0.00048217
12470.0 0.00048588
12490.0 0.00048961
12510.0 0.00049299
12530.0 0.00049639
12550.0 0.00049967
12570.0 0.00050241
12590.0 0.00050469
12610.0 0.00050666
12630.0 0.00050799
12650.0 0.00050846
12670.0 0.00050831
12690.0 0.00050739
12710.0 0.00050559
12730.0 0.00050296
12750.0 0.00049945
12770.0 0.00049509
12790.0 0.00049001
12810.0 0.00048417
12830.0 0.00047757
12850.0 0.00047065
12870.0 0.00046336
12890.0 0.0004556
12910.0 0.00044774
12930.0 0.00043999
12950.0 0.00043206
12970.0 0.00042412
12990.0 0.00041663
13010.0 0.00040932
13030.0 0.00040209
13050.0 0.00039519
13070.0 0.00038871
13090.0 0.0003823
13110.0 0.0003761
13130.0 0.00037028
13150.0 0.00036468
13170.0 0.00035913
13190.0 0.00035392
13210.0 0.00034904
13230.0 0.00034426
13250.0 0.00033966
13270.0 0.00033537
13290.0 0.00033123
13310.0 0.00032716
13330.0 0.00032334
13350.0 0.0003197
13370.0 0.00031612
13390.0 0.00031262
13410.0 0.00030936
13430.0 0.00030614
13450.0 0.00030294
13470.0 0.00029985
13490.0 0.00029687
13510.0 0.00029381
13530.0 0.00029081
13550.0 0.00028791
13570.0 0.000285
13590.0 0.00028205
13610.0 0.00027917
13630.0 0.00027636
13650.0 0.00027347
13670.0 0.00027061
13690.0 0.00026784
13710.0 0.00026506
13730.0 0.00026221
13750.0 0.00025952
13770.0 0.00025687
13790.0 0.00025421
13810.0 0.00025161
13830.0 0.00024914
13850.0 0.00024667
13870.0 0.00024423
13890.0 0.00024192
13910.0 0.0002397
13930.0 0.00023748
13950.0 0.00023535
13970.0 0.00023337
13990.0 0.00023142
14010.0 0.00022949
14030.0 0.00022766
14050.0 0.00022588
14070.0 0.00022405
14090.0 0.00022227
14110.0 0.00022055
14130.0 0.00021881
14150.0 0.00021705
14170.0 0.00021538
14190.0 0.00021374
14210.0 0.00021208
14230.0 0.00021051
14250.0 0.00020905
14270.0 0.00020763
14290.0 0.00020628
14310.0 0.00020509
14330.0 0.00020401
14350.0 0.00020302
14370.0 0.00020215
14390.0 0.0002014
14410.0 0.00020072
14430.0 0.00020011
14450.0 0.00019959
14470.0 0.00019912
14490.0 0.00019865
14510.0 0.00019824
14530.0 0.00019785
14550.0 0.00019746
14570.0 0.00019708
14590.0 0.00019674
14610.0 0.00019642
14630.0 0.00019613
14650.0 0.00019594
14670.0 0.00019587
14690.0 0.00019594
14710.0 0.00019624
14730.0 0.00019678
14750.0 0.00019764
14770.0 0.00019889
14790.0 0.00020055
14810.0 0.00020262
14830.0 0.00020535
14850.0 0.00020861
14870.0 0.0002123
14890.0 0.00021653
14910.0 0.00022128
14930.0 0.00022613
14950.0 0.00023092
14970.0 0.0002357
14990.0 0.00024002
15010.0 0.00024367
15030.0 0.00024673
15050.0 0.00024921
15070.0 0.00025104
15090.0 0.00025247
15110.0 0.00025364
15130.0 0.00025464
15150.0 0.00025554
15170.0 0.00025642
15190.0 0.00025728
15210.0 0.00025816
15230.0 0.00025905
15250.0 0.00025995
15270.0 0.00026088
15290.0 0.00026182
15310.0 0.00026278
15330.0 0.00026376
15350.0 0.00026476
15370.0 0.00026577
15390.0 0.0002668
15410.0 0.00026785
15430.0 0.00026891
15450.0 0.00026999
15470.0 0.00027109
15490.0 0.0002722
15510.0 0.00027333
15530.0 0.00027448
15550.0 0.00027564
15570.0 0.00027681
15590.0 0.000278
15610.0 0.0002792
15630.0 0.00028042
15650.0 0.00028165
15670.0 0.00028289
15690.0 0.00028415
15710.0 0.00028542
15730.0 0.0002867
15750.0 0.00028799
15770.0 0.0002893
15790.0 0.00029062
15810.0 0.00029194
15830.0 0.00029328
15850.0 0.00029463
15870.0 0.00029599
15890.0 0.00029736
15910.0 0.00029873
15930.0 0.00030012
15950.0 0.00030151
15970.0 0.00030291
15990.0 0.00030432
16010.0 0.00030573
16030.0 0.00030716
16050.0 0.00030858
16070.0 0.00031002
16090.0 0.00031145
16110.0 0.0003129
16130.0 0.00031434
16150.0 0.00031579
16170.0 0.00031724
16190.0 0.0003187
16210.0 0.00032016
16230.0 0.00032161
16250.0 0.00032307
16270.0 0.00032454
16290.0 0.000326
16310.0 0.00032746
16330.0 0.00032892
16350.0 0.00033037
16370.0 0.00033183
16390.0 0.00033328
16410.0 0.00033473
16430.0 0.00033617
16450.0 0.00033761
16470.0 0.00033905
16490.0 0.00034048
16510.0 0.00034191
16530.0 0.00034333
16550.0 0.00034474
16570.0 0.00034614
16590.0 0.00034753
16610.0 0.00034892
16630.0 0.0003503
16650.0 0.00035166
16670.0 0.00035302
16690.0 0.00035437
16710.0 0.0003557
16730.0 0.00035702
16750.0 0.00035833
16770.0 0.00035962
16790.0 0.0003609
16810.0 0.00036217
16830.0 0.00036342
16850.0 0.00036466
16870.0 0.00036588
16890.0 0.00036708
16910.0 0.00036827
16930.0 0.00036944
16950.0 0.00037059
16970.0 0.00037172
16990.0 0.00037283
17010.0 0.00037393
17030.0 0.000375
17050.0 0.00037605
17070.0 0.00037708
17090.0 0.00037809
17110.0 0.00037908
17130.0 0.00038004
17150.0 0.00038098
17170.0 0.0003819
17190.0 0.00038279
17210.0 0.00038366
17230.0 0.0003845
17250.0 0.00038532
17270.0 0.00038612
17290.0 0.00038688
17310.0 0.00038763
17330.0 0.00038834
17350.0 0.00038903
17370.0 0.00038969
17390.0 0.00039032
17410.0 0.00039092
17430.0 0.0003915
17450.0 0.00039205
17470.0 0.00039256
17490.0 0.00039305
17510.0 0.00039351
17530.0 0.00039395
17550.0 0.00039434
17570.0 0.00039472
17590.0 0.00039506
17610.0 0.00039537
17630.0 0.00039565
17650.0 0.0003959
17670.0 0.00039611
17690.0 0.0003963
17710.0 0.00039646
17730.0 0.00039658
17750.0 0.00039667
17770.0 0.00039674
17790.0 0.00039677
17810.0 0.00039677
17830.0 0.00039673
17850.0 0.00039667
17870.0 0.00039658
17890.0 0.00039645
17910.0 0.00039629
17930.0 0.0003961
17950.0 0.00039588
17970.0 0.00039563
17990.0 0.00039535
18010.0 0.00039503
18030.0 0.00039469
18050.0 0.00039431
18070.0 0.00039391
18090.0 0.00039347
18110.0 0.000393
18130.0 0.00039251
18150.0 0.00039198
18170.0 0.00039142
18190.0 0.00039083
18210.0 0.00039022
18230.0 0.00038957
18250.0 0.0003889
18270.0 0.0003882
18290.0 0.00038747
18310.0 0.00038671
18330.0 0.00038592
18350.0 0.00038511
18370.0 0.00038426
18390.0 0.0003834
18410.0 0.0003825
18430.0 0.00038158
18450.0 0.00038063
18470.0 0.00037966
18490.0 0.00037866
18510.0 0.00037764
18530.0 0.00037659
18550.0 0.00037552
18570.0 0.00037442
18590.0 0.00037331
18610.0 0.00037216
18630.0 0.000371
18650.0 0.00036981
18670.0 0.0003686
18690.0 0.00036738
18710.0 0.00036613
18730.0 0.00036486
18750.0 0.00036356
18770.0 0.00036226
18790.0 0.00036092
18810.0 0.00035958
18830.0 0.00035821
18850.0 0.00035682
18870.0 0.00035542
18890.0 0.000354
18910.0 0.00035257
18930.0 0.00035111
18950.0 0.00034965
18970.0 0.00034816
18990.0 0.00034667
19010.0 0.00034515
19030.0 0.00034363
19050.0 0.00034209
19070.0 0.00034053
19090.0 0.00033897
19110.0 0.00033739
19130.0 0.0003358
19150.0 0.0003342
19170.0 0.00033259
19190.0 0.00033097
19210.0 0.00032934
19230.0 0.0003277
19250.0 0.00032605
19270.0 0.00032439
19290.0 0.00032272
19310.0 0.00032105
19330.0 0.00031936
19350.0 0.00031767
19370.0 0.00031598
19390.0 0.00031428
19410.0 0.00031257
19430.0 0.00031085
19450.0 0.00030914
19470.0 0.00030741
19490.0 0.00030568
19510.0 0.00030395
19530.0 0.00030222
19550.0 0.00030048
19570.0 0.00029874
19590.0 0.000297
19610.0 0.00029525
19630.0 0.00029351
19650.0 0.00029176
19670.0 0.00029001
19690.0 0.00028826
19710.0 0.00028651
19730.0 0.00028476
19750.0 0.00028301
19770.0 0.00028126
19790.0 0.00027951
19810.0 0.00027776
19830.0 0.00027601
19850.0 0.00027425
19870.0 0.00027246
19890.0 0.00027063
19910.0 0.0002687
19930.0 0.00026662
19950.0 0.00026432
19970.0 0.00026167
19990.0 0.00025862
20010.0 0.00025521
20030.0 0.00025131
20050.0 0.00024694
20070.0 0.00024233
20090.0 0.00023752
20110.0 0.00023235
20130.0 0.00022722
20150.0 0.00022223
20170.0 0.00021721
20190.0 0.00021223
20210.0 0.00020752
20230.0 0.00020295
20250.0 0.0001984
20270.0 0.00019411
20290.0 0.00019007
20310.0 0.00018615
20330.0 0.00018236
20350.0 0.00017895
20370.0 0.00017571
20390.0 0.00017263
20410.0 0.00016979
20430.0 0.00016721
20450.0 0.00016475
20470.0 0.00016249
20490.0 0.00016046
20510.0 0.00015858
20530.0 0.00015684
20550.0 0.00015527
20570.0 0.00015383
20590.0 0.00015249
20610.0 0.00015124
20630.0 0.00015008
20650.0 0.00014898
20670.0 0.00014793
20690.0 0.00014691
20710.0 0.00014591
20730.0 0.00014491
20750.0 0.0001439
20770.0 0.00014287
20790.0 0.00014181
20810.0 0.0001407
20830.0 0.00013955
20850.0 0.00013836
20870.0 0.00013709
20890.0 0.00013577
20910.0 0.00013441
20930.0 0.000133
20950.0 0.00013152
20970.0 0.00013002
20990.0 0.00012849
21010.0 0.00012689
21030.0 0.00012529
21050.0 0.00012369
21070.0 0.00012206
21090.0 0.00012041
21110.0 0.0001188
21130.0 0.00011721
21150.0 0.0001156
21170.0 0.00011402
21190.0 0.0001125
21210.0 0.00011097
21230.0 0.00010946
21250.0 0.00010802
21270.0 0.00010661
21290.0 0.00010521
21310.0 0.00010387
21330.0 0.00010259
21350.0 0.00010133
21370.0 0.00010011
21390.0 9.8954e-05
21410.0 9.7844e-05
21430.0 9.6758e-05
21450.0 9.5736e-05
21470.0 9.477e-05
21490.0 9.3842e-05
21510.0 9.2956e-05
21530.0 9.2123e-05
21550.0 9.1329e-05
21570.0 9.0567e-05
21590.0 8.9844e-05
21610.0 8.9155e-05
21630.0 8.8492e-05
21650.0 8.7851e-05
21670.0 8.7235e-05
21690.0 8.6635e-05
21710.0 8.6049e-05
21730.0 8.5474e-05
21750.0 8.491e-05
21770.0 8.4353e-05
21790.0 8.3803e-05
21810.0 8.3259e-05
21830.0 8.272e-05
21850.0 8.2185e-05
21870.0 8.1655e-05
21890.0 8.113e-05
21910.0 8.0609e-05
21930.0 8.009e-05
21950.0 7.9576e-05
21970.0 7.9062e-05
21990.0 7.8548e-05
22010.0 7.8033e-05
22030.0 7.7517e-05
22050.0 7.6995e-05
22070.0 7.6467e-05
22090.0 7.5934e-05
22110.0 7.5391e-05
22130.0 7.4835e-05
22150.0 7.4271e-05
22170.0 7.3698e-05
22190.0 7.3105e-05
22210.0 7.2499e-05
22230.0 7.1889e-05
22250.0 7.1261e-05
22270.0 7.0614e-05
22290.0 6.9962e-05
22310.0 6.93e-05
22330.0 6.8608e-05
22350.0 6.7905e-05
22370.0 6.7197e-05
22390.0 6.6465e-05
22410.0 6.5701e-05
22430.0 6.4939e-05
22450.0 6.4162e-05
22470.0 6.3349e-05
22490.0 6.2523e-05
22510.0 6.1696e-05
22530.0 6.0833e-05
22550.0 5.9943e-05
22570.0 5.9065e-05
22590.0 5.8178e-05
22610.0 5.7265e-05
22630.0 5.6358e-05
22650.0 5.5478e-05
22670.0 5.4583e-05
22690.0 5.3691e-05
22710.0 5.2835e-05
22730.0 5.1999e-05
22750.0 5.1153e-05
22770.0 5.0355e-05
22790.0 4.9602e-05
22810.0 4.8863e-05
22830.0 4.8152e-05
22850.0 4.7494e-05
22870.0 4.6863e-05
22890.0 4.625e-05
22910.0 4.5681e-05
22930.0 4.515e-05
22950.0 4.4637e-05
22970.0 4.4145e-05
22990.0 4.3697e-05
23010.0 4.3265e-05
23030.0 4.2846e-05
23050.0 4.245e-05
23070.0 4.2075e-05
