#lamb flux
1010.0 3.954e-05
1030.0 4.157e-05
1050.0 4.3909e-05
1070.0 4.6543e-05
1090.0 4.9536e-05
1110.0 5.2609e-05
1130.0 5.5705e-05
1150.0 5.8952e-05
1170.0 6.2306e-05
1190.0 6.5492e-05
1210.0 6.8726e-05
1230.0 7.2073e-05
1250.0 7.536e-05
1270.0 7.8559e-05
1290.0 8.1944e-05
1310.0 8.5335e-05
1330.0 8.8596e-05
1350.0 9.1902e-05
1370.0 9.5322e-05
1390.0 9.8668e-05
1410.0 0.00010193
1430.0 0.00010534
1450.0 0.00010876
1470.0 0.00011208
1490.0 0.00011544
1510.0 0.000119
1530.0 0.00012239
1550.0 0.00012574
1570.0 0.00012921
1590.0 0.00013269
1610.0 0.00013603
1630.0 0.00013947
1650.0 0.00014301
1670.0 0.00014643
1690.0 0.00014982
1710.0 0.00015333
1730.0 0.00015686
1750.0 0.00016019
1770.0 0.00016361
1790.0 0.00016709
1810.0 0.00017045
1830.0 0.00017375
1850.0 0.00017725
1870.0 0.00018065
1890.0 0.00018393
1910.0 0.00018726
1930.0 0.00019067
1950.0 0.00019393
1970.0 0.00019714
1990.0 0.00020047
2010.0 0.00020375
2030.0 0.00020692
2050.0 0.0002102
2070.0 0.00021357
2090.0 0.00021678
2110.0 0.00022
2130.0 0.00022335
2150.0 0.00022668
2170.0 0.00022992
2190.0 0.00023333
2210.0 0.00023682
2230.0 0.00024025
2250.0 0.00024375
2270.0 0.00024748
2290.0 0.0002512
2310.0 0.0002549
2330.0 0.00025881
2350.0 0.00026287
2370.0 0.00026692
2390.0 0.00027115
2410.0 0.00027569
2430.0 0.00028025
2450.0 0.00028484
2470.0 0.00028953
2490.0 0.00029417
2510.0 0.0002985
2530.0 0.00030296
2550.0 0.00030824
2570.0 0.00031547
2590.0 0.00032625
2610.0 0.000344
2630.0 0.00037086
2650.0 0.00040676
2670.0 0.0004531
2690.0 0.00050975
2710.0 0.00057078
2730.0 0.00063277
2750.0 0.00069684
2770.0 0.00075817
2790.0 0.00081476
2810.0 0.00086955
2830.0 0.00092514
2850.0 0.00097808
2870.0 0.0010315
2890.0 0.0010877
2910.0 0.0011456
2930.0 0.0012031
2950.0 0.0012637
2970.0 0.0013269
2990.0 0.0013899
3010.0 0.0027657
3030.0 0.0028923
3050.0 0.00302
3070.0 0.0031411
3090.0 0.0032593
3110.0 0.0033641
3130.0 0.0034391
3150.0 0.0034704
3170.0 0.0034313
3190.0 0.0033059
3210.0 0.0030921
3230.0 0.002832
3250.0 0.0028351
3270.0 0.0021073
3290.0 0.0023659
3310.0 0.0016999
3330.0 0.0018293
3350.0 0.0020605
3370.0 0.002304
3390.0 0.0025534
3410.0 0.0028017
3430.0 0.003055
3450.0 0.0033065
3470.0 0.0035451
3490.0 0.0037181
3510.0 0.0040346
3530.0 0.0047159
3550.0 0.0053717
3570.0 0.0060203
3590.0 0.0073907
3610.0 0.0071827
3630.0 0.0077619
3650.0 0.0076224
3670.0 0.0082907
3690.0 0.0090542
3710.0 0.0095799
3730.0 0.011053
3750.0 0.011516
3770.0 0.011665
3790.0 0.011096
3810.0 0.0097833
3830.0 0.008994
3850.0 0.0079084
3870.0 0.0086196
3890.0 0.0098074
3910.0 0.011564
3930.0 0.013417
3950.0 0.014579
3970.0 0.016587
3990.0 0.017065
4010.0 0.016592
4030.0 0.016855
4050.0 0.015468
4070.0 0.014807
4090.0 0.014415
4110.0 0.013753
4130.0 0.01484
4150.0 0.014306
4170.0 0.014287
4190.0 0.014008
4210.0 0.015017
4230.0 0.014396
4250.0 0.015523
4270.0 0.015481
4290.0 0.015552
4310.0 0.016599
4330.0 0.017677
4350.0 0.017804
4370.0 0.017438
4390.0 0.01661
4410.0 0.014699
4430.0 0.012243
4450.0 0.011298
4470.0 0.011632
4490.0 0.011624
4510.0 0.013159
4530.0 0.014434
4550.0 0.017034
4570.0 0.022058
4590.0 0.026965
4610.0 0.029506
4630.0 0.033848
4650.0 0.037023
4670.0 0.037277
4690.0 0.034005
4710.0 0.031582
4730.0 0.02805
4750.0 0.023002
4770.0 0.01943
4790.0 0.017314
4810.0 0.018895
4830.0 0.020989
4850.0 0.023571
4870.0 0.022519
4890.0 0.025772
4910.0 0.02692
4930.0 0.029367
4950.0 0.034431
4970.0 0.036612
4990.0 0.038566
5010.0 0.035682
5030.0 0.029952
5050.0 0.024427
5070.0 0.019393
5090.0 0.017465
5110.0 0.017157
5130.0 0.016871
5150.0 0.017663
5170.0 0.017079
5190.0 0.018015
5210.0 0.018336
5230.0 0.019702
5250.0 0.023065
5270.0 0.025046
5290.0 0.02718
5310.0 0.030588
5330.0 0.033087
5350.0 0.033856
5370.0 0.033886
5390.0 0.033159
5410.0 0.03253
5430.0 0.032945
5450.0 0.036878
5470.0 0.043233
5490.0 0.049398
5510.0 0.055144
5530.0 0.056537
5550.0 0.05595
5570.0 0.054463
5590.0 0.053077
5610.0 0.052449
5630.0 0.052453
5650.0 0.052676
5670.0 0.051956
5690.0 0.048351
5710.0 0.044135
5730.0 0.039395
5750.0 0.036826
5770.0 0.034802
5790.0 0.035486
5810.0 0.037307
5830.0 0.03856
5850.0 0.037326
5870.0 0.035421
5890.0 0.034687
5910.0 0.033627
5930.0 0.03286
5950.0 0.031994
5970.0 0.030634
5990.0 0.026999
6010.0 0.023428
6030.0 0.021405
6050.0 0.020707
6070.0 0.020222
6090.0 0.0202
6110.0 0.020613
6130.0 0.020805
6150.0 0.02205
6170.0 0.024404
6190.0 0.026887
6210.0 0.028214
6230.0 0.028597
6250.0 0.026302
6270.0 0.023229
6290.0 0.019964
6310.0 0.017453
6330.0 0.016128
6350.0 0.01567
6370.0 0.016453
6390.0 0.018446
6410.0 0.021676
6430.0 0.025868
6450.0 0.029382
6470.0 0.032042
6490.0 0.034323
6510.0 0.035263
6530.0 0.035009
6550.0 0.035173
6570.0 0.035547
6590.0 0.035103
6610.0 0.035459
6630.0 0.034817
6650.0 0.033715
6670.0 0.031764
6690.0 0.029067
6710.0 0.027901
6730.0 0.026404
6750.0 0.026393
6770.0 0.027109
6790.0 0.028051
6810.0 0.028557
6830.0 0.028018
6850.0 0.026874
6870.0 0.026033
6890.0 0.024807
6910.0 0.023636
6930.0 0.024228
6950.0 0.024536
6970.0 0.025528
6990.0 0.026528
7010.0 0.026298
7030.0 0.024749
7050.0 0.022147
7070.0 0.019691
7090.0 0.017445
7110.0 0.016238
7130.0 0.015601
7150.0 0.015187
7170.0 0.015711
7190.0 0.016057
7210.0 0.016928
7230.0 0.018783
7250.0 0.020114
7270.0 0.020594
7290.0 0.020325
7310.0 0.019397
7330.0 0.018194
7350.0 0.017568
7370.0 0.017683
7390.0 0.018608
7410.0 0.020564
7430.0 0.022953
7450.0 0.025903
7470.0 0.028141
7490.0 0.029226
7510.0 0.02812
7530.0 0.02581
7550.0 0.022581
7570.0 0.019258
7590.0 0.017871
7610.0 0.017987
7630.0 0.019231
7650.0 0.021845
7670.0 0.024408
7690.0 0.026742
7710.0 0.028868
7730.0 0.030581
7750.0 0.032021
7770.0 0.032706
7790.0 0.033829
7810.0 0.034587
7830.0 0.034502
7850.0 0.034662
7870.0 0.033473
7890.0 0.032475
7910.0 0.030656
7930.0 0.029889
7950.0 0.028812
7970.0 0.029058
7990.0 0.028813
8010.0 0.028379
8030.0 0.028452
8050.0 0.029378
8070.0 0.028843
8090.0 0.028892
8110.0 0.027881
8130.0 0.027765
8150.0 0.026927
8170.0 0.026192
8190.0 0.025865
8210.0 0.026077
8230.0 0.024184
8250.0 0.02252
8270.0 0.01967
8290.0 0.015967
8310.0 0.012695
8330.0 0.0098666
8350.0 0.0086055
8370.0 0.0094761
8390.0 0.010654
8410.0 0.011715
8430.0 0.013332
8450.0 0.014111
8470.0 0.014793
8490.0 0.016536
8510.0 0.018311
8530.0 0.021264
8550.0 0.025063
8570.0 0.028406
8590.0 0.031069
8610.0 0.033559
8630.0 0.03565
8650.0 0.036047
8670.0 0.036219
8690.0 0.037453
8710.0 0.037854
8730.0 0.038371
8750.0 0.037354
8770.0 0.037449
8790.0 0.036931
8810.0 0.034358
8830.0 0.033694
8850.0 0.031853
8870.0 0.03055
8890.0 0.028931
8910.0 0.029945
8930.0 0.028045
8950.0 0.027174
8970.0 0.02689
8990.0 0.026201
9010.0 0.025974
9030.0 0.025221
9050.0 0.025074
9070.0 0.025012
9090.0 0.02495
9110.0 0.024893
9130.0 0.024826
9150.0 0.024755
9170.0 0.024646
9190.0 0.024483
9210.0 0.024637
9230.0 0.024508
9250.0 0.024406
9270.0 0.02431
9290.0 0.024217
9310.0 0.024126
9330.0 0.024035
9350.0 0.023944
9370.0 0.023853
9390.0 0.02376
9410.0 0.023666
9430.0 0.023569
9450.0 0.023466
9470.0 0.023363
9490.0 0.023271
9510.0 0.023173
9530.0 0.023075
9550.0 0.022974
9570.0 0.022873
9590.0 0.02277
9610.0 0.022667
9630.0 0.022563
9650.0 0.022458
9670.0 0.022354
9690.0 0.022249
9710.0 0.022143
9730.0 0.022038
9750.0 0.021932
9770.0 0.021826
9790.0 0.02172
9810.0 0.021614
9830.0 0.021509
9850.0 0.021403
9870.0 0.021298
9890.0 0.021192
9910.0 0.021087
9930.0 0.02098
9950.0 0.020763
9970.0 0.020692
9990.0 0.020615
10010.0 0.020536
10030.0 0.020447
10050.0 0.020349
10070.0 0.020242
10090.0 0.02015
10110.0 0.02005
10130.0 0.019954
10150.0 0.019857
10170.0 0.019757
10190.0 0.019653
10210.0 0.019556
10230.0 0.01946
10250.0 0.019361
10270.0 0.019263
10290.0 0.01917
10310.0 0.019073
10330.0 0.018973
10350.0 0.018879
10370.0 0.018787
10390.0 0.01869
10410.0 0.018595
10430.0 0.018506
10450.0 0.018413
10470.0 0.018319
10490.0 0.018229
10510.0 0.01814
10530.0 0.018044
10550.0 0.017952
10570.0 0.017865
10590.0 0.017775
10610.0 0.017683
10630.0 0.017597
10650.0 0.01751
10670.0 0.017418
10690.0 0.017329
10710.0 0.017243
10730.0 0.017154
10750.0 0.017062
10770.0 0.016978
10790.0 0.016892
10810.0 0.016802
10830.0 0.016715
10850.0 0.016631
10870.0 0.016538
10890.0 0.016443
10910.0 0.016347
10930.0 0.016242
10950.0 0.016117
10970.0 0.015978
10990.0 0.015824
11010.0 0.014637
11030.0 0.014446
11050.0 0.014249
11070.0 0.014039
11090.0 0.013804
11110.0 0.01358
11130.0 0.013358
11150.0 0.013127
11170.0 0.012898
11190.0 0.012683
11210.0 0.012464
11230.0 0.012242
11250.0 0.012032
11270.0 0.01183
11290.0 0.011624
11310.0 0.011425
11330.0 0.011248
11350.0 0.011074
11370.0 0.010905
11390.0 0.010752
11410.0 0.01061
11430.0 0.010464
11450.0 0.010328
11470.0 0.010202
11490.0 0.010073
11510.0 0.0099384
11530.0 0.0098087
11550.0 0.0096758
11570.0 0.009529
11590.0 0.0093762
11610.0 0.0092217
11630.0 0.0090508
11650.0 0.0088652
11670.0 0.0086824
11690.0 0.0084938
11710.0 0.0082924
11730.0 0.0080915
11750.0 0.0079004
11770.0 0.0077024
11790.0 0.007506
11810.0 0.0073238
11830.0 0.0071498
11850.0 0.006974
11870.0 0.0068151
11890.0 0.0066725
11910.0 0.0065344
11930.0 0.0064044
11950.0 0.00629
11970.0 0.0061823
11990.0 0.0060765
12010.0 0.0059814
12030.0 0.0058949
12050.0 0.0058102
12070.0 0.0057281
12090.0 0.0056576
12110.0 0.00559
12130.0 0.0055246
12150.0 0.0054667
12170.0 0.0054171
12190.0 0.0053697
12210.0 0.0053315
12230.0 0.005305
12250.0 0.0052882
12270.0 0.0052826
12290.0 0.0052917
12310.0 0.0053151
12330.0 0.0053536
12350.0 0.0054085
12370.0 0.0054777
12390.0 0.0055622
12410.0 0.0056648
12430.0 0.0057761
12450.0 0.0058963
12470.0 0.0060273
12490.0 0.0061636
12510.0 0.0062975
12530.0 0.0064343
12550.0 0.0065708
12570.0 0.0066986
12590.0 0.0068185
12610.0 0.0069329
12630.0 0.0070362
12650.0 0.0071249
12670.0 0.0072037
12690.0 0.0072708
12710.0 0.0073247
12730.0 0.0073668
12750.0 0.0073972
12770.0 0.0074157
12790.0 0.0074241
12810.0 0.0074218
12830.0 0.0074085
12850.0 0.0073884
12870.0 0.0073609
12890.0 0.0073238
12910.0 0.0072808
12930.0 0.0072343
12950.0 0.0071793
12970.0 0.0071172
12990.0 0.0070546
13010.0 0.0069873
13030.0 0.0069125
13050.0 0.006835
13070.0 0.0067574
13090.0 0.0066724
13110.0 0.0065835
13130.0 0.0064963
13150.0 0.0064083
13170.0 0.0063155
13190.0 0.0062291
13210.0 0.0061501
13230.0 0.0060744
13250.0 0.0060068
13270.0 0.0059523
13290.0 0.0059082
13310.0 0.0058751
13330.0 0.0058568
13350.0 0.0058515
13370.0 0.0058573
13390.0 0.0058736
13410.0 0.0058966
13430.0 0.0059239
13450.0 0.0059526
13470.0 0.0059781
13490.0 0.0059975
13510.0 0.0060082
13530.0 0.0060068
13550.0 0.0059928
13570.0 0.0059648
13590.0 0.0059212
13610.0 0.0058659
13630.0 0.0058012
13650.0 0.0057239
13670.0 0.0056396
13690.0 0.0055537
13710.0 0.005464
13730.0 0.0053697
13750.0 0.0052827
13770.0 0.0051996
13790.0 0.0051182
13810.0 0.0050425
13830.0 0.0049752
13850.0 0.0049109
13870.0 0.0048508
13890.0 0.0047976
13910.0 0.004749
13930.0 0.0047026
13950.0 0.0046601
13970.0 0.0046226
13990.0 0.0045868
14010.0 0.004553
14030.0 0.0045226
14050.0 0.0044945
14070.0 0.0044674
14090.0 0.004443
14110.0 0.004421
14130.0 0.0044004
14150.0 0.0043814
14170.0 0.0043646
14190.0 0.0043494
14210.0 0.0043354
14230.0 0.0043233
14250.0 0.004313
14270.0 0.0043044
14290.0 0.0042978
14310.0 0.0042933
14330.0 0.0042906
14350.0 0.0042902
14370.0 0.0042914
14390.0 0.0042935
14410.0 0.0042972
14430.0 0.0043014
14450.0 0.0043052
14470.0 0.0043085
14490.0 0.0043114
14510.0 0.0043124
14530.0 0.0043116
14550.0 0.0043097
14570.0 0.0043066
14590.0 0.0043024
14610.0 0.0042982
14630.0 0.0042949
14650.0 0.0042929
14670.0 0.004293
14690.0 0.004297
14710.0 0.0043059
14730.0 0.0043184
14750.0 0.0043372
14770.0 0.0043636
14790.0 0.0043958
14810.0 0.0044337
14830.0 0.0044827
14850.0 0.0045382
14870.0 0.0045973
14890.0 0.0046626
14910.0 0.0047333
14930.0 0.0048008
14950.0 0.004863
14970.0 0.0049211
14990.0 0.0049672
15010.0 0.0049984
15030.0 0.005017
15050.0 0.0050236
15070.0 0.0050177
15090.0 0.0050042
15110.0 0.0049854
15130.0 0.0049631
15150.0 0.004939
15170.0 0.0049139
15190.0 0.0048882
15210.0 0.0048624
15230.0 0.0048366
15250.0 0.0048105
15270.0 0.0047845
15290.0 0.0047587
15310.0 0.0047327
15330.0 0.0047067
15350.0 0.0046808
15370.0 0.004655
15390.0 0.0046289
15410.0 0.004603
15430.0 0.0045772
15450.0 0.0045514
15470.0 0.0045255
15490.0 0.0044999
15510.0 0.0044743
15530.0 0.0044486
15550.0 0.004423
15570.0 0.0043977
15590.0 0.0043722
15610.0 0.0043467
15630.0 0.0043215
15650.0 0.0042963
15670.0 0.0042711
15690.0 0.0042461
15710.0 0.0042213
15730.0 0.0041964
15750.0 0.0041716
15770.0 0.0041471
15790.0 0.0041226
15810.0 0.004098
15830.0 0.0040737
15850.0 0.0040496
15870.0 0.0040254
15890.0 0.0040014
15910.0 0.0039777
15930.0 0.003954
15950.0 0.0039302
15970.0 0.0039068
15990.0 0.0038835
16010.0 0.0038602
16030.0 0.003837
16050.0 0.0038142
16070.0 0.0037914
16090.0 0.0037687
16110.0 0.0037462
16130.0 0.0037239
16150.0 0.0037015
16170.0 0.0036794
16190.0 0.0036575
16210.0 0.0036357
16230.0 0.0036139
16250.0 0.0035925
16270.0 0.0035712
16290.0 0.0035499
16310.0 0.0035288
16330.0 0.003508
16350.0 0.0034872
16370.0 0.0034664
16390.0 0.0034461
16410.0 0.0034258
16430.0 0.0034056
16450.0 0.0033856
16470.0 0.0033659
16490.0 0.0033462
16510.0 0.0033266
16530.0 0.0033073
16550.0 0.0032881
16570.0 0.003269
16590.0 0.00325
16610.0 0.0032314
16630.0 0.0032128
16650.0 0.0031943
16670.0 0.0031761
16690.0 0.0031581
16710.0 0.00314
16730.0 0.0031222
16750.0 0.0031046
16770.0 0.0030871
16790.0 0.0030696
16810.0 0.0030525
16830.0 0.0030356
16850.0 0.0030186
16870.0 0.0030019
16890.0 0.0029854
16910.0 0.0029689
16930.0 0.0029525
16950.0 0.0029365
16970.0 0.0029206
16990.0 0.0029047
17010.0 0.002889
17030.0 0.0028736
17050.0 0.0028582
17070.0 0.0028429
17090.0 0.0028279
17110.0 0.0028129
17130.0 0.002798
17150.0 0.0027834
17170.0 0.002769
17190.0 0.0027546
17210.0 0.0027403
17230.0 0.0027263
17250.0 0.0027124
17270.0 0.0026984
17290.0 0.0026848
17310.0 0.0026713
17330.0 0.0026578
17350.0 0.0026445
17370.0 0.0026315
17390.0 0.0026185
17410.0 0.0026055
17430.0 0.0025928
17450.0 0.0025803
17470.0 0.0025677
17490.0 0.0025553
17510.0 0.0025432
17530.0 0.0025311
17550.0 0.002519
17570.0 0.0025072
17590.0 0.0024955
17610.0 0.0024839
17630.0 0.0024724
17650.0 0.0024611
17670.0 0.0024498
17690.0 0.0024385
17710.0 0.0024276
17730.0 0.0024167
17750.0 0.0024059
17770.0 0.0023952
17790.0 0.0023847
17810.0 0.0023742
17830.0 0.0023638
17850.0 0.0023536
17870.0 0.0023436
17890.0 0.0023335
17910.0 0.0023235
17930.0 0.0023138
17950.0 0.0023041
17970.0 0.0022944
17990.0 0.002285
18010.0 0.0022757
18030.0 0.0022662
18050.0 0.002257
18070.0 0.002248
18090.0 0.002239
18110.0 0.00223
18130.0 0.0022213
18150.0 0.0022126
18170.0 0.0022039
18190.0 0.0021954
18210.0 0.002187
18230.0 0.0021786
18250.0 0.0021703
18270.0 0.0021621
18290.0 0.0021541
18310.0 0.002146
18330.0 0.0021381
18350.0 0.0021304
18370.0 0.0021226
18390.0 0.0021149
18410.0 0.0021074
18430.0 0.0020999
18450.0 0.0020923
18470.0 0.002085
18490.0 0.0020778
18510.0 0.0020706
18530.0 0.0020635
18550.0 0.0020565
18570.0 0.0020496
18590.0 0.0020426
18610.0 0.0020358
18630.0 0.0020291
18650.0 0.0020224
18670.0 0.0020157
18690.0 0.0020093
18710.0 0.0020028
18730.0 0.0019964
18750.0 0.0019901
18770.0 0.0019839
18790.0 0.0019776
18810.0 0.0019714
18830.0 0.0019654
18850.0 0.0019594
18870.0 0.0019534
18890.0 0.0019476
18910.0 0.0019418
18930.0 0.001936
18950.0 0.0019303
18970.0 0.0019247
18990.0 0.0019191
19010.0 0.0019135
19030.0 0.0019081
19050.0 0.0019027
19070.0 0.0018973
19090.0 0.001892
19110.0 0.0018868
19130.0 0.0018815
19150.0 0.0018763
19170.0 0.0018713
19190.0 0.0018663
19210.0 0.0018612
19230.0 0.0018562
19250.0 0.0018514
19270.0 0.0018465
19290.0 0.0018417
19310.0 0.001837
19330.0 0.0018323
19350.0 0.0018276
19370.0 0.0018229
19390.0 0.0018184
19410.0 0.0018139
19430.0 0.0018093
19450.0 0.0018049
19470.0 0.0018005
19490.0 0.0017961
19510.0 0.0017918
19530.0 0.0017876
19550.0 0.0017833
19570.0 0.001779
19590.0 0.0017749
19610.0 0.0017708
19630.0 0.0017666
19650.0 0.0017626
19670.0 0.0017587
19690.0 0.0017546
19710.0 0.0017506
19730.0 0.0017468
19750.0 0.0017429
19770.0 0.001739
19790.0 0.0017352
19810.0 0.0017314
19830.0 0.0017276
19850.0 0.0017238
19870.0 0.0017199
19890.0 0.0017157
19910.0 0.0017108
19930.0 0.0017052
19950.0 0.0016983
19970.0 0.0016892
19990.0 0.0016775
20010.0 0.0016635
20030.0 0.0016462
20050.0 0.0016256
20070.0 0.001603
20090.0 0.0015787
20110.0 0.0015513
20130.0 0.0015236
20150.0 0.0014963
20170.0 0.0014682
20190.0 0.0014397
20210.0 0.0014128
20230.0 0.0013866
20250.0 0.0013602
20270.0 0.0013354
20290.0 0.0013127
20310.0 0.0012907
20330.0 0.0012698
20350.0 0.0012521
20370.0 0.001236
20390.0 0.0012215
20410.0 0.0012093
20430.0 0.0011994
20450.0 0.0011912
20470.0 0.0011851
20490.0 0.0011812
20510.0 0.0011791
20530.0 0.0011788
20550.0 0.0011802
20570.0 0.0011829
20590.0 0.001187
20610.0 0.0011923
20630.0 0.0011982
20650.0 0.0012049
20670.0 0.0012125
20690.0 0.0012199
20710.0 0.0012273
20730.0 0.0012348
20750.0 0.001242
20770.0 0.0012483
20790.0 0.0012542
20810.0 0.0012593
20830.0 0.0012634
20850.0 0.0012665
20870.0 0.0012685
20890.0 0.0012694
20910.0 0.0012691
20930.0 0.0012677
20950.0 0.0012651
20970.0 0.0012616
20990.0 0.0012571
21010.0 0.0012515
21030.0 0.001245
21050.0 0.0012381
21070.0 0.0012305
21090.0 0.001222
21110.0 0.0012136
21130.0 0.0012051
21150.0 0.0011961
21170.0 0.0011872
21190.0 0.0011788
21210.0 0.0011704
21230.0 0.0011621
21250.0 0.0011547
21270.0 0.001148
21290.0 0.0011416
21310.0 0.0011362
21330.0 0.0011317
21350.0 0.001128
21370.0 0.0011252
21390.0 0.0011234
21410.0 0.0011225
21430.0 0.0011226
21450.0 0.0011237
21470.0 0.0011256
21490.0 0.0011284
21510.0 0.0011321
21530.0 0.0011363
21550.0 0.0011413
21570.0 0.0011471
21590.0 0.0011534
21610.0 0.00116
21630.0 0.0011673
21650.0 0.0011753
21670.0 0.001183
21690.0 0.0011913
21710.0 0.0012
21730.0 0.0012087
21750.0 0.0012174
21770.0 0.0012267
21790.0 0.0012361
21810.0 0.0012452
21830.0 0.0012544
21850.0 0.0012639
21870.0 0.0012731
21890.0 0.0012818
21910.0 0.0012908
21930.0 0.0012996
21950.0 0.0013078
21970.0 0.0013159
21990.0 0.0013238
22010.0 0.001331
22030.0 0.0013375
22050.0 0.0013436
22070.0 0.001349
22090.0 0.0013533
22110.0 0.001357
22130.0 0.0013598
22150.0 0.0013615
22170.0 0.0013622
22190.0 0.0013617
22210.0 0.00136
22230.0 0.0013572
22250.0 0.0013532
22270.0 0.0013478
22290.0 0.0013414
22310.0 0.0013339
22330.0 0.0013248
22350.0 0.0013148
22370.0 0.001304
22390.0 0.001292
22410.0 0.0012787
22430.0 0.0012652
22450.0 0.0012512
22470.0 0.001236
22490.0 0.0012205
22510.0 0.0012052
22530.0 0.0011889
22550.0 0.0011723
22570.0 0.0011563
22590.0 0.0011404
22610.0 0.0011242
22630.0 0.0011085
22650.0 0.0010939
22670.0 0.0010791
22690.0 0.0010647
22710.0 0.0010514
22730.0 0.0010387
22750.0 0.001026
22770.0 0.0010144
22790.0 0.0010038
22810.0 0.0009935
22830.0 0.00098376
22850.0 0.00097504
22870.0 0.00096677
22890.0 0.00095873
22910.0 0.00095144
22930.0 0.00094476
22950.0 0.00093831
22970.0 0.00093213
22990.0 0.00092675
23010.0 0.0009216
23030.0 0.00091664
23050.0 0.00091212
23070.0 0.00090801
23090.0 0.0009039
23110.0 0.0009001
23130.0 0.00089666
23150.0 0.00089338
23170.0 0.00089017
23190.0 0.00088724
23210.0 0.00088455
23230.0 0.0008819
23250.0 0.00087945
23270.0 0.00087727
23290.0 0.00087526
23310.0 0.00087341
23330.0 0.00087195
23350.0 0.00087079
23370.0 0.00086993
23390.0 0.00086942
23410.0 0.00086926
23430.0 0.00086943
23450.0 0.00086994
23470.0 0.00087073
23490.0 0.00087175
23510.0 0.00087304
23530.0 0.00087448
23550.0 0.00087597
23570.0 0.00087756
23590.0 0.00087922
23610.0 0.00088082
23630.0 0.0008824
23650.0 0.00088404
23670.0 0.00088566
23690.0 0.00088726
23710.0 0.000889
23730.0 0.00089095
23750.0 0.00089306
23770.0 0.00089551
23790.0 0.00089852
23810.0 0.0009021
23830.0 0.00090622
23850.0 0.00091135
23870.0 0.00091751
23890.0 0.00092439
23910.0 0.00093226
23930.0 0.00094143
23950.0 0.00095143
23970.0 0.00096188
23990.0 0.00097351
24010.0 0.00098584
24030.0 0.00099818
24050.0 0.0010108
24070.0 0.0010241
24090.0 0.0010367
