#lamb flux
1010.0 3.6498e-08
1030.0 4.0754e-08
1050.0 4.565e-08
1070.0 5.1161e-08
1090.0 5.7421e-08
1110.0 6.3842e-08
1130.0 7.0304e-08
1150.0 7.7074e-08
1170.0 8.4058e-08
1190.0 9.068e-08
1210.0 9.7392e-08
1230.0 1.0433e-07
1250.0 1.1112e-07
1270.0 1.1773e-07
1290.0 1.247e-07
1310.0 1.3167e-07
1330.0 1.3836e-07
1350.0 1.4512e-07
1370.0 1.521e-07
1390.0 1.589e-07
1410.0 1.6551e-07
1430.0 1.7241e-07
1450.0 1.7931e-07
1470.0 1.8599e-07
1490.0 1.9273e-07
1510.0 1.9985e-07
1530.0 2.066e-07
1550.0 2.1325e-07
1570.0 2.2013e-07
1590.0 2.2702e-07
1610.0 2.336e-07
1630.0 2.4037e-07
1650.0 2.4732e-07
1670.0 2.5404e-07
1690.0 2.6066e-07
1710.0 2.6754e-07
1730.0 2.7444e-07
1750.0 2.8091e-07
1770.0 2.8756e-07
1790.0 2.9433e-07
1810.0 3.0086e-07
1830.0 3.0725e-07
1850.0 3.1402e-07
1870.0 3.2057e-07
1890.0 3.2687e-07
1910.0 3.3325e-07
1930.0 3.3975e-07
1950.0 3.4589e-07
1970.0 3.5189e-07
1990.0 3.5807e-07
2010.0 3.6407e-07
2030.0 3.6975e-07
2050.0 3.7554e-07
2070.0 3.8139e-07
2090.0 3.8675e-07
2110.0 3.9198e-07
2130.0 3.9727e-07
2150.0 4.0229e-07
2170.0 4.0689e-07
2190.0 4.1156e-07
2210.0 4.161e-07
2230.0 4.202e-07
2250.0 4.2409e-07
2270.0 4.2804e-07
2290.0 4.3157e-07
2310.0 4.3464e-07
2330.0 4.3766e-07
2350.0 4.4049e-07
2370.0 4.4285e-07
2390.0 4.4508e-07
2410.0 4.4744e-07
2430.0 4.4957e-07
2450.0 4.5165e-07
2470.0 4.5423e-07
2490.0 4.5766e-07
2510.0 4.619e-07
2530.0 4.6876e-07
2550.0 4.8093e-07
2570.0 5.0081e-07
2590.0 5.3139e-07
2610.0 5.8103e-07
2630.0 6.5086e-07
2650.0 7.3609e-07
2670.0 8.369e-07
2690.0 9.4826e-07
2710.0 1.0532e-06
2730.0 1.1441e-06
2750.0 1.2225e-06
2770.0 1.2804e-06
2790.0 1.3179e-06
2810.0 1.342e-06
2830.0 1.3575e-06
2850.0 1.3644e-06
2870.0 1.3677e-06
2890.0 1.3701e-06
2910.0 1.3716e-06
2930.0 1.3718e-06
2950.0 1.3727e-06
2970.0 1.3741e-06
2990.0 1.3748e-06
3010.0 2.1297e-05
3030.0 2.1279e-05
3050.0 2.1258e-05
3070.0 2.1211e-05
3090.0 2.1154e-05
3110.0 2.1059e-05
3130.0 2.0897e-05
3150.0 2.0655e-05
3170.0 2.0308e-05
3190.0 1.9866e-05
3210.0 1.9371e-05
3230.0 1.8874e-05
3250.0 1.856e-05
3270.0 1.8302e-05
3290.0 1.842e-05
3310.0 1.8529e-05
3330.0 1.8999e-05
3350.0 1.9669e-05
3370.0 2.0545e-05
3390.0 2.1597e-05
3410.0 2.2713e-05
3430.0 2.3944e-05
3450.0 2.5331e-05
3470.0 2.6807e-05
3490.0 2.8328e-05
3510.0 3.0033e-05
3530.0 3.1848e-05
3550.0 3.3553e-05
3570.0 3.5251e-05
3590.0 3.7265e-05
3610.0 3.9067e-05
3630.0 4.1214e-05
3650.0 4.3316e-05
3670.0 4.5329e-05
3690.0 4.6766e-05
3710.0 4.7561e-05
3730.0 4.8023e-05
3750.0 4.789e-05
3770.0 4.3749e-05
3790.0 3.9445e-05
3810.0 3.668e-05
3830.0 3.18e-05
3850.0 2.441e-05
3870.0 2.1374e-05
3890.0 3.2031e-05
3910.0 4.761e-05
3930.0 5.7748e-05
3950.0 5.9519e-05
3970.0 5.8776e-05
3990.0 6.5553e-05
4010.0 7.8209e-05
4030.0 8.1751e-05
4050.0 7.5677e-05
4070.0 6.5952e-05
4090.0 6.0639e-05
4110.0 7.0979e-05
4130.0 7.4336e-05
4150.0 7.1146e-05
4170.0 7.2965e-05
4190.0 7.4241e-05
4210.0 7.4345e-05
4230.0 7.9896e-05
4250.0 8.6859e-05
4270.0 8.8019e-05
4290.0 8.8607e-05
4310.0 9.2724e-05
4330.0 0.00010218
4350.0 0.00011614
4370.0 0.00013087
4390.0 0.00012638
4410.0 0.00010666
4430.0 8.958e-05
4450.0 7.5682e-05
4470.0 7.4054e-05
4490.0 8.0613e-05
4510.0 8.9509e-05
4530.0 9.7581e-05
4550.0 0.00011225
4570.0 0.00013493
4590.0 0.00016594
4610.0 0.00020948
4630.0 0.00025039
4650.0 0.00025854
4670.0 0.00025619
4690.0 0.00027232
4710.0 0.00028096
4730.0 0.00023798
4750.0 0.00017498
4770.0 0.00014363
4790.0 0.00013619
4810.0 0.00012745
4830.0 0.0001225
4850.0 0.00014141
4870.0 0.00017805
4890.0 0.00019932
4910.0 0.00017299
4930.0 0.00015751
4950.0 0.00017898
4970.0 0.00023623
4990.0 0.0002977
5010.0 0.00030841
5030.0 0.00025464
5050.0 0.00017071
5070.0 0.00011969
5090.0 0.00010567
5110.0 0.0001095
5130.0 0.00011757
5150.0 0.00012295
5170.0 0.00012263
5190.0 0.00012073
5210.0 0.00011754
5230.0 0.00012018
5250.0 0.00012836
5270.0 0.00014962
5290.0 0.00017274
5310.0 0.00018769
5330.0 0.00019305
5350.0 0.00019753
5370.0 0.00021493
5390.0 0.00022663
5410.0 0.00021774
5430.0 0.00019178
5450.0 0.00018082
5470.0 0.00020644
5490.0 0.00026355
5510.0 0.00032999
5530.0 0.00036103
5550.0 0.00035315
5570.0 0.0003244
5590.0 0.00029366
5610.0 0.00027263
5630.0 0.00026193
5650.0 0.00026834
5670.0 0.00026283
5690.0 0.00024762
5710.0 0.00023376
5730.0 0.00020843
5750.0 0.00015867
5770.0 0.00013973
5790.0 0.00015511
5810.0 0.00018514
5830.0 0.00020683
5850.0 0.00022092
5870.0 0.00022434
5890.0 0.00021492
5910.0 0.00020586
5930.0 0.00020747
5950.0 0.00021809
5970.0 0.00022638
5990.0 0.00021286
6010.0 0.00017979
6030.0 0.00014929
6050.0 0.00013142
6070.0 0.00013167
6090.0 0.00014708
6110.0 0.0001579
6130.0 0.00015117
6150.0 0.00014386
6170.0 0.00016016
6190.0 0.00019211
6210.0 0.00022919
6230.0 0.00025602
6250.0 0.00025364
6270.0 0.00022795
6290.0 0.00018895
6310.0 0.0001511
6330.0 0.00012228
6350.0 0.00011261
6370.0 0.00012351
6390.0 0.00014386
6410.0 0.0001648
6430.0 0.00019099
6450.0 0.00022293
6470.0 0.00027527
6490.0 0.00033522
6510.0 0.000365
6530.0 0.00034122
6550.0 0.00031737
6570.0 0.00031357
6590.0 0.0003018
6610.0 0.00027564
6630.0 0.00024937
6650.0 0.00023231
6670.0 0.00023897
6690.0 0.00023669
6710.0 0.0002108
6730.0 0.00019426
6750.0 0.00017322
6770.0 0.00016923
6790.0 0.00018092
6810.0 0.00019146
6830.0 0.00019558
6850.0 0.00019133
6870.0 0.00018375
6890.0 0.00017977
6910.0 0.00017014
6930.0 0.00016189
6950.0 0.00016229
6970.0 0.00016657
6990.0 0.00018442
7010.0 0.00019527
7030.0 0.00017917
7050.0 0.00016669
7070.0 0.00015722
7090.0 0.00013956
7110.0 0.00012973
7130.0 0.00013253
7150.0 0.00013716
7170.0 0.00014378
7190.0 0.00014338
7210.0 0.00014451
7230.0 0.00015415
7250.0 0.00017775
7270.0 0.0002058
7290.0 0.00021899
7310.0 0.00021077
7330.0 0.00018779
7350.0 0.00016947
7370.0 0.00016704
7390.0 0.0001693
7410.0 0.00017635
7430.0 0.00019415
7450.0 0.00021086
7470.0 0.0002332
7490.0 0.00025368
7510.0 0.00022698
7530.0 0.00021808
7550.0 0.00018604
7570.0 0.00015837
7590.0 0.00013173
7610.0 0.00012164
7630.0 0.00012786
7650.0 0.00014689
7670.0 0.0001609
7690.0 0.00018055
7710.0 0.00020152
7730.0 0.00021177
7750.0 0.00021366
7770.0 0.00021372
7790.0 0.00021219
7810.0 0.0002197
7830.0 0.00021264
7850.0 0.00019263
7870.0 0.00017593
7890.0 0.00016398
7910.0 0.00014797
7930.0 0.00012774
7950.0 0.00011699
7970.0 0.00011572
7990.0 0.00012079
8010.0 0.00012832
8030.0 0.00013035
8050.0 0.00012999
8070.0 0.00012648
8090.0 0.00012544
8110.0 0.00011972
8130.0 0.00011271
8150.0 0.00010617
8170.0 0.0001046
8190.0 0.00010708
8210.0 0.00010665
8230.0 0.00010923
8250.0 0.00010882
8270.0 9.7021e-05
8290.0 7.4315e-05
8310.0 5.136e-05
8330.0 3.4187e-05
8350.0 2.425e-05
8370.0 2.829e-05
8390.0 3.1542e-05
8410.0 4.0214e-05
8430.0 4.874e-05
8450.0 5.332e-05
8470.0 5.4935e-05
8490.0 5.709e-05
8510.0 6.0033e-05
8530.0 6.7629e-05
8550.0 7.4789e-05
8570.0 8.7264e-05
8590.0 0.00010645
8610.0 0.00012399
8630.0 0.00014483
8650.0 0.00016293
8670.0 0.00016038
8690.0 0.0001502
8710.0 0.00014223
8730.0 0.00013458
8750.0 0.0001293
8770.0 0.00012572
8790.0 0.00012124
8810.0 0.00011253
8830.0 0.00010279
8850.0 8.9411e-05
8870.0 7.7294e-05
8890.0 6.9521e-05
8910.0 7.0351e-05
8930.0 6.9302e-05
8950.0 7.3851e-05
8970.0 7.5435e-05
8990.0 7.8464e-05
9010.0 8.1856e-05
9030.0 8.2259e-05
9050.0 8.2413e-05
9070.0 8.2551e-05
9090.0 8.2658e-05
9110.0 8.2689e-05
9130.0 8.2779e-05
9150.0 8.2928e-05
9170.0 8.3062e-05
9190.0 8.3175e-05
9210.0 8.3489e-05
9230.0 8.3637e-05
9250.0 8.3824e-05
9270.0 8.4025e-05
9290.0 8.4241e-05
9310.0 8.4481e-05
9330.0 8.4737e-05
9350.0 8.5001e-05
9370.0 8.5283e-05
9390.0 8.5584e-05
9410.0 8.5895e-05
9430.0 8.6213e-05
9450.0 8.6555e-05
9470.0 8.6909e-05
9490.0 8.7269e-05
9510.0 8.7645e-05
9530.0 8.804e-05
9550.0 8.8436e-05
9570.0 8.8844e-05
9590.0 8.927e-05
9610.0 8.9706e-05
9630.0 9.0145e-05
9650.0 9.0599e-05
9670.0 9.1069e-05
9690.0 9.1541e-05
9710.0 9.2022e-05
9730.0 9.2517e-05
9750.0 9.302e-05
9770.0 9.3519e-05
9790.0 9.4034e-05
9810.0 9.456e-05
9830.0 9.5087e-05
9850.0 9.5617e-05
9870.0 9.6163e-05
9890.0 9.6709e-05
9910.0 9.7253e-05
9930.0 9.7807e-05
9950.0 9.8358e-05
9970.0 9.8916e-05
9990.0 9.9475e-05
10010.0 9.8588e-05
10030.0 9.9141e-05
10050.0 9.968e-05
10070.0 0.00010018
10090.0 0.00010076
10110.0 0.00010132
10130.0 0.00010187
10150.0 0.00010243
10170.0 0.00010298
10190.0 0.00010351
10210.0 0.00010405
10230.0 0.00010459
10250.0 0.00010511
10270.0 0.00010563
10290.0 0.00010615
10310.0 0.00010665
10330.0 0.00010714
10350.0 0.00010763
10370.0 0.00010812
10390.0 0.00010858
10410.0 0.00010904
10430.0 0.0001095
10450.0 0.00010994
10470.0 0.00011036
10490.0 0.00011078
10510.0 0.00011119
10530.0 0.00011157
10550.0 0.00011194
10570.0 0.00011231
10590.0 0.00011266
10610.0 0.00011298
10630.0 0.0001133
10650.0 0.00011361
10670.0 0.00011388
10690.0 0.00011415
10710.0 0.00011441
10730.0 0.00011464
10750.0 0.00011484
10770.0 0.00011504
10790.0 0.00011522
10810.0 0.00011538
10830.0 0.00011551
10850.0 0.00011563
10870.0 0.00011568
10890.0 0.00011567
10910.0 0.00011558
10930.0 0.00011534
10950.0 0.00011484
10970.0 0.00011405
10990.0 0.00011295
11010.0 0.00010989
11030.0 0.00010787
11050.0 0.00010552
11070.0 0.0001028
11090.0 9.958e-05
11110.0 9.6313e-05
11130.0 9.2961e-05
11150.0 8.9418e-05
11170.0 8.5859e-05
11190.0 8.2514e-05
11210.0 7.9182e-05
11230.0 7.591e-05
11250.0 7.2934e-05
11270.0 7.0216e-05
11290.0 6.7632e-05
11310.0 6.5315e-05
11330.0 6.3374e-05
11350.0 6.1612e-05
11370.0 6.003e-05
11390.0 5.8677e-05
11410.0 5.7473e-05
11430.0 5.6299e-05
11450.0 5.5196e-05
11470.0 5.413e-05
11490.0 5.301e-05
11510.0 5.1791e-05
11530.0 5.0541e-05
11550.0 4.9214e-05
11570.0 4.7746e-05
11590.0 4.621e-05
11610.0 4.4661e-05
11630.0 4.3015e-05
11650.0 4.1316e-05
11670.0 3.9705e-05
11690.0 3.8138e-05
11710.0 3.6588e-05
11730.0 3.5148e-05
11750.0 3.3862e-05
11770.0 3.2643e-05
11790.0 3.1532e-05
11810.0 3.057e-05
11830.0 2.9714e-05
11850.0 2.8919e-05
11870.0 2.8229e-05
11890.0 2.7618e-05
11910.0 2.7032e-05
11930.0 2.6466e-05
11950.0 2.5927e-05
11970.0 2.5378e-05
11990.0 2.4792e-05
12010.0 2.4197e-05
12030.0 2.359e-05
12050.0 2.2946e-05
12070.0 2.2274e-05
12090.0 2.1637e-05
12110.0 2.1002e-05
12130.0 2.0381e-05
12150.0 1.9817e-05
12170.0 1.9325e-05
12190.0 1.8888e-05
12210.0 1.8552e-05
12230.0 1.8328e-05
12250.0 1.8211e-05
12270.0 1.8214e-05
12290.0 1.8334e-05
12310.0 1.8555e-05
12330.0 1.8894e-05
12350.0 1.933e-05
12370.0 1.9826e-05
12390.0 2.0392e-05
12410.0 2.1043e-05
12430.0 2.168e-05
12450.0 2.2314e-05
12470.0 2.296e-05
12490.0 2.3572e-05
12510.0 2.4108e-05
12530.0 2.4602e-05
12550.0 2.5036e-05
12570.0 2.5369e-05
12590.0 2.5612e-05
12610.0 2.5776e-05
12630.0 2.5843e-05
12650.0 2.5812e-05
12670.0 2.5701e-05
12690.0 2.5509e-05
12710.0 2.5249e-05
12730.0 2.4931e-05
12750.0 2.4546e-05
12770.0 2.412e-05
12790.0 2.3668e-05
12810.0 2.3179e-05
12830.0 2.2654e-05
12850.0 2.213e-05
12870.0 2.1594e-05
12890.0 2.1028e-05
12910.0 2.0455e-05
12930.0 1.9888e-05
12950.0 1.9291e-05
12970.0 1.8673e-05
12990.0 1.8072e-05
13010.0 1.7465e-05
13030.0 1.6838e-05
13050.0 1.6221e-05
13070.0 1.5632e-05
13090.0 1.5035e-05
13110.0 1.4455e-05
13130.0 1.3919e-05
13150.0 1.3417e-05
13170.0 1.2937e-05
13190.0 1.2521e-05
13210.0 1.217e-05
13230.0 1.1868e-05
13250.0 1.163e-05
13270.0 1.1463e-05
13290.0 1.1357e-05
13310.0 1.1316e-05
13330.0 1.1339e-05
13350.0 1.1416e-05
13370.0 1.1549e-05
13390.0 1.1733e-05
13410.0 1.1939e-05
13430.0 1.2177e-05
13450.0 1.2442e-05
13470.0 1.2711e-05
13490.0 1.2973e-05
13510.0 1.3249e-05
13530.0 1.3507e-05
13550.0 1.3737e-05
13570.0 1.3948e-05
13590.0 1.4141e-05
13610.0 1.4298e-05
13630.0 1.4422e-05
13650.0 1.4525e-05
13670.0 1.4598e-05
13690.0 1.464e-05
13710.0 1.4658e-05
13730.0 1.4653e-05
13750.0 1.4623e-05
13770.0 1.4572e-05
13790.0 1.4502e-05
13810.0 1.4414e-05
13830.0 1.4311e-05
13850.0 1.4191e-05
13870.0 1.4054e-05
13890.0 1.3907e-05
13910.0 1.3749e-05
13930.0 1.3573e-05
13950.0 1.3388e-05
13970.0 1.3204e-05
13990.0 1.3009e-05
14010.0 1.2809e-05
14030.0 1.2614e-05
14050.0 1.2423e-05
14070.0 1.2229e-05
14090.0 1.205e-05
14110.0 1.1887e-05
14130.0 1.1736e-05
14150.0 1.1601e-05
14170.0 1.1492e-05
14190.0 1.1404e-05
14210.0 1.1338e-05
14230.0 1.1297e-05
14250.0 1.1282e-05
14270.0 1.1292e-05
14290.0 1.1329e-05
14310.0 1.1387e-05
14330.0 1.1466e-05
14350.0 1.1569e-05
14370.0 1.1686e-05
14390.0 1.1813e-05
14410.0 1.1956e-05
14430.0 1.2109e-05
14450.0 1.2263e-05
14470.0 1.2421e-05
14490.0 1.2592e-05
14510.0 1.276e-05
14530.0 1.2928e-05
14550.0 1.311e-05
14570.0 1.3303e-05
14590.0 1.3502e-05
14610.0 1.3722e-05
14630.0 1.3974e-05
14650.0 1.4245e-05
14670.0 1.4539e-05
14690.0 1.4876e-05
14710.0 1.5252e-05
14730.0 1.5637e-05
14750.0 1.6057e-05
14770.0 1.6515e-05
14790.0 1.6979e-05
14810.0 1.7443e-05
14830.0 1.7942e-05
14850.0 1.8426e-05
14870.0 1.8878e-05
14890.0 1.9314e-05
14910.0 1.9725e-05
14930.0 2.0078e-05
14950.0 2.0376e-05
14970.0 2.0628e-05
14990.0 2.0818e-05
15010.0 2.0945e-05
15030.0 2.1024e-05
15050.0 2.106e-05
15070.0 2.1062e-05
15090.0 2.1041e-05
15110.0 2.1005e-05
15130.0 2.0961e-05
15150.0 2.0915e-05
15170.0 2.0864e-05
15190.0 2.0812e-05
15210.0 2.0762e-05
15230.0 2.0712e-05
15250.0 2.066e-05
15270.0 2.0609e-05
15290.0 2.0561e-05
15310.0 2.0512e-05
15330.0 2.0461e-05
15350.0 2.0413e-05
15370.0 2.0366e-05
15390.0 2.0315e-05
15410.0 2.0266e-05
15430.0 2.0219e-05
15450.0 2.0171e-05
15470.0 2.0121e-05
15490.0 2.0075e-05
15510.0 2.0028e-05
15530.0 1.9979e-05
15550.0 1.9931e-05
15570.0 1.9886e-05
15590.0 1.9837e-05
15610.0 1.9788e-05
15630.0 1.9742e-05
15650.0 1.9695e-05
15670.0 1.9646e-05
15690.0 1.9599e-05
15710.0 1.9553e-05
15730.0 1.9505e-05
15750.0 1.9456e-05
15770.0 1.941e-05
15790.0 1.9363e-05
15810.0 1.9312e-05
15830.0 1.9265e-05
15850.0 1.9218e-05
15870.0 1.9169e-05
15890.0 1.912e-05
15910.0 1.9073e-05
15930.0 1.9025e-05
15950.0 1.8975e-05
15970.0 1.8926e-05
15990.0 1.8878e-05
16010.0 1.8828e-05
16030.0 1.8776e-05
16050.0 1.8729e-05
16070.0 1.8679e-05
16090.0 1.8628e-05
16110.0 1.8578e-05
16130.0 1.8529e-05
16150.0 1.8476e-05
16170.0 1.8424e-05
16190.0 1.8374e-05
16210.0 1.8322e-05
16230.0 1.8269e-05
16250.0 1.8217e-05
16270.0 1.8166e-05
16290.0 1.8112e-05
16310.0 1.8059e-05
16330.0 1.8007e-05
16350.0 1.7953e-05
16370.0 1.7896e-05
16390.0 1.7843e-05
16410.0 1.7789e-05
16430.0 1.7733e-05
16450.0 1.7678e-05
16470.0 1.7624e-05
16490.0 1.7568e-05
16510.0 1.751e-05
16530.0 1.7454e-05
16550.0 1.7398e-05
16570.0 1.7339e-05
16590.0 1.7281e-05
16610.0 1.7225e-05
16630.0 1.7167e-05
16650.0 1.7107e-05
16670.0 1.7049e-05
16690.0 1.6991e-05
16710.0 1.6929e-05
16730.0 1.6869e-05
16750.0 1.681e-05
16770.0 1.6749e-05
16790.0 1.6687e-05
16810.0 1.6627e-05
16830.0 1.6566e-05
16850.0 1.6503e-05
16870.0 1.6441e-05
16890.0 1.638e-05
16910.0 1.6316e-05
16930.0 1.6251e-05
16950.0 1.6189e-05
16970.0 1.6126e-05
16990.0 1.606e-05
17010.0 1.5996e-05
17030.0 1.5933e-05
17050.0 1.5867e-05
17070.0 1.5801e-05
17090.0 1.5736e-05
17110.0 1.5671e-05
17130.0 1.5602e-05
17150.0 1.5536e-05
17170.0 1.5471e-05
17190.0 1.5403e-05
17210.0 1.5335e-05
17230.0 1.5269e-05
17250.0 1.5201e-05
17270.0 1.5131e-05
17290.0 1.5063e-05
17310.0 1.4996e-05
17330.0 1.4926e-05
17350.0 1.4855e-05
17370.0 1.4788e-05
17390.0 1.4719e-05
17410.0 1.4648e-05
17430.0 1.4578e-05
17450.0 1.451e-05
17470.0 1.4437e-05
17490.0 1.4366e-05
17510.0 1.4296e-05
17530.0 1.4225e-05
17550.0 1.4152e-05
17570.0 1.4082e-05
17590.0 1.4012e-05
17610.0 1.3939e-05
17630.0 1.3867e-05
17650.0 1.3796e-05
17670.0 1.3724e-05
17690.0 1.3649e-05
17710.0 1.3577e-05
17730.0 1.3506e-05
17750.0 1.3432e-05
17770.0 1.3359e-05
17790.0 1.3288e-05
17810.0 1.3214e-05
17830.0 1.314e-05
17850.0 1.3067e-05
17870.0 1.2994e-05
17890.0 1.2919e-05
17910.0 1.2845e-05
17930.0 1.2773e-05
17950.0 1.2699e-05
17970.0 1.2625e-05
17990.0 1.2552e-05
18010.0 1.2479e-05
18030.0 1.2403e-05
18050.0 1.2329e-05
18070.0 1.2257e-05
18090.0 1.2182e-05
18110.0 1.2107e-05
18130.0 1.2034e-05
18150.0 1.1961e-05
18170.0 1.1886e-05
18190.0 1.1812e-05
18210.0 1.1739e-05
18230.0 1.1664e-05
18250.0 1.1588e-05
18270.0 1.1516e-05
18290.0 1.1442e-05
18310.0 1.1367e-05
18330.0 1.1294e-05
18350.0 1.1222e-05
18370.0 1.1147e-05
18390.0 1.1072e-05
18410.0 1.1e-05
18430.0 1.0926e-05
18450.0 1.0851e-05
18470.0 1.0778e-05
18490.0 1.0706e-05
18510.0 1.0632e-05
18530.0 1.0558e-05
18550.0 1.0487e-05
18570.0 1.0414e-05
18590.0 1.0339e-05
18610.0 1.0267e-05
18630.0 1.0195e-05
18650.0 1.0121e-05
18670.0 1.0048e-05
18690.0 9.9771e-06
18710.0 9.905e-06
18730.0 9.8318e-06
18750.0 9.7605e-06
18770.0 9.6901e-06
18790.0 9.6162e-06
18810.0 9.5441e-06
18830.0 9.474e-06
18850.0 9.4026e-06
18870.0 9.3302e-06
18890.0 9.2602e-06
18910.0 9.1906e-06
18930.0 9.1187e-06
18950.0 9.0479e-06
18970.0 8.9789e-06
18990.0 8.9085e-06
19010.0 8.836e-06
19030.0 8.7676e-06
19050.0 8.6987e-06
19070.0 8.6283e-06
19090.0 8.5589e-06
19110.0 8.4917e-06
19130.0 8.4218e-06
19150.0 8.3518e-06
19170.0 8.2841e-06
19190.0 8.2163e-06
19210.0 8.1466e-06
19230.0 8.0782e-06
19250.0 8.0121e-06
19270.0 7.9441e-06
19290.0 7.8759e-06
19310.0 7.8098e-06
19330.0 7.7435e-06
19350.0 7.6746e-06
19370.0 7.6081e-06
19390.0 7.5428e-06
19410.0 7.476e-06
19430.0 7.4088e-06
19450.0 7.3445e-06
19470.0 7.2794e-06
19490.0 7.2128e-06
19510.0 7.1479e-06
19530.0 7.0842e-06
19550.0 7.0182e-06
19570.0 6.9523e-06
19590.0 6.8893e-06
19610.0 6.8254e-06
19630.0 6.7604e-06
19650.0 6.6971e-06
19670.0 6.6351e-06
19690.0 6.5706e-06
19710.0 6.5069e-06
19730.0 6.445e-06
19750.0 6.3825e-06
19770.0 6.3181e-06
19790.0 6.2564e-06
19810.0 6.1955e-06
19830.0 6.1328e-06
19850.0 6.0704e-06
19870.0 6.0095e-06
19890.0 5.946e-06
19910.0 5.879e-06
19930.0 5.8111e-06
19950.0 5.7386e-06
19970.0 5.6568e-06
19990.0 5.5663e-06
20010.0 5.5224e-06
20030.0 5.4136e-06
20050.0 5.2943e-06
20070.0 5.1722e-06
20090.0 5.0476e-06
20110.0 4.9143e-06
20130.0 4.7862e-06
20150.0 4.665e-06
20170.0 4.5454e-06
20190.0 4.4298e-06
20210.0 4.3251e-06
20230.0 4.2272e-06
20250.0 4.1333e-06
20270.0 4.0496e-06
20290.0 3.976e-06
20310.0 3.9092e-06
20330.0 3.8501e-06
20350.0 3.8035e-06
20370.0 3.7651e-06
20390.0 3.7351e-06
20410.0 3.7147e-06
20430.0 3.7031e-06
20450.0 3.6999e-06
20470.0 3.7054e-06
20490.0 3.7182e-06
20510.0 3.7382e-06
20530.0 3.7662e-06
20550.0 3.7996e-06
20570.0 3.8367e-06
20590.0 3.88e-06
20610.0 3.9275e-06
20630.0 3.9761e-06
20650.0 4.0275e-06
20670.0 4.0835e-06
20690.0 4.1378e-06
20710.0 4.1914e-06
20730.0 4.247e-06
20750.0 4.3025e-06
20770.0 4.3547e-06
20790.0 4.4076e-06
20810.0 4.4617e-06
20830.0 4.514e-06
20850.0 4.5654e-06
20870.0 4.6198e-06
20890.0 4.675e-06
20910.0 4.7282e-06
20930.0 4.7839e-06
20950.0 4.8424e-06
20970.0 4.9e-06
20990.0 4.9575e-06
21010.0 5.0188e-06
21030.0 5.0792e-06
21050.0 5.1369e-06
21070.0 5.1944e-06
21090.0 5.2519e-06
21110.0 5.3034e-06
21130.0 5.3509e-06
21150.0 5.3959e-06
21170.0 5.4355e-06
21190.0 5.4684e-06
21210.0 5.4969e-06
21230.0 5.5195e-06
21250.0 5.5344e-06
21270.0 5.5429e-06
21290.0 5.5447e-06
21310.0 5.5392e-06
21330.0 5.527e-06
21350.0 5.5076e-06
21370.0 5.4806e-06
21390.0 5.4474e-06
21410.0 5.4077e-06
21430.0 5.3587e-06
21450.0 5.3045e-06
21470.0 5.2461e-06
21490.0 5.1807e-06
21510.0 5.1094e-06
21530.0 5.037e-06
21550.0 4.9611e-06
21570.0 4.8802e-06
21590.0 4.8001e-06
21610.0 4.722e-06
21630.0 4.6431e-06
21650.0 4.5649e-06
21670.0 4.4957e-06
21690.0 4.4304e-06
21710.0 4.3697e-06
21730.0 4.3176e-06
21750.0 4.2747e-06
21770.0 4.2383e-06
21790.0 4.2121e-06
21810.0 4.1964e-06
21830.0 4.1902e-06
21850.0 4.1943e-06
21870.0 4.2083e-06
21890.0 4.2308e-06
21910.0 4.2635e-06
21930.0 4.3051e-06
21950.0 4.3531e-06
21970.0 4.409e-06
21990.0 4.4749e-06
22010.0 4.5436e-06
22030.0 4.6163e-06
22050.0 4.6957e-06
22070.0 4.7786e-06
22090.0 4.8598e-06
22110.0 4.9445e-06
22130.0 5.0317e-06
22150.0 5.1155e-06
22170.0 5.1964e-06
22190.0 5.2782e-06
22210.0 5.3554e-06
22230.0 5.4238e-06
22250.0 5.4882e-06
22270.0 5.5466e-06
22290.0 5.5952e-06
22310.0 5.635e-06
22330.0 5.6671e-06
22350.0 5.688e-06
22370.0 5.6979e-06
22390.0 5.6971e-06
22410.0 5.6842e-06
22430.0 5.6605e-06
22450.0 5.6261e-06
22470.0 5.579e-06
22490.0 5.5213e-06
22510.0 5.4556e-06
22530.0 5.3771e-06
22550.0 5.2869e-06
22570.0 5.1918e-06
22590.0 5.0889e-06
22610.0 4.9748e-06
