#lamb flux
1010.0 1.5777e-06
1030.0 1.6913e-06
1050.0 1.8224e-06
1070.0 1.9702e-06
1090.0 2.138e-06
1110.0 2.3105e-06
1130.0 2.4844e-06
1150.0 2.6669e-06
1170.0 2.8555e-06
1190.0 3.035e-06
1210.0 3.2173e-06
1230.0 3.4062e-06
1250.0 3.5918e-06
1270.0 3.7729e-06
1290.0 3.9646e-06
1310.0 4.1569e-06
1330.0 4.3422e-06
1350.0 4.5303e-06
1370.0 4.7252e-06
1390.0 4.9161e-06
1410.0 5.1024e-06
1430.0 5.2977e-06
1450.0 5.4939e-06
1470.0 5.6846e-06
1490.0 5.8781e-06
1510.0 6.0827e-06
1530.0 6.2779e-06
1550.0 6.4712e-06
1570.0 6.6715e-06
1590.0 6.8723e-06
1610.0 7.065e-06
1630.0 7.2636e-06
1650.0 7.467e-06
1670.0 7.664e-06
1690.0 7.8582e-06
1710.0 8.059e-06
1730.0 8.26e-06
1750.0 8.4484e-06
1770.0 8.6408e-06
1790.0 8.8355e-06
1810.0 9.0221e-06
1830.0 9.2034e-06
1850.0 9.3935e-06
1870.0 9.576e-06
1890.0 9.7493e-06
1910.0 9.9232e-06
1930.0 1.0098e-05
1950.0 1.0261e-05
1970.0 1.0418e-05
1990.0 1.0579e-05
2010.0 1.0732e-05
2030.0 1.0875e-05
2050.0 1.1019e-05
2070.0 1.1165e-05
2090.0 1.1295e-05
2110.0 1.1422e-05
2130.0 1.155e-05
2150.0 1.1672e-05
2170.0 1.1783e-05
2190.0 1.1897e-05
2210.0 1.2009e-05
2230.0 1.2112e-05
2250.0 1.2212e-05
2270.0 1.2318e-05
2290.0 1.2416e-05
2310.0 1.2507e-05
2330.0 1.2601e-05
2350.0 1.2697e-05
2370.0 1.2785e-05
2390.0 1.2875e-05
2410.0 1.2972e-05
2430.0 1.3066e-05
2450.0 1.3159e-05
2470.0 1.3261e-05
2490.0 1.3378e-05
2510.0 1.3514e-05
2530.0 1.3719e-05
2550.0 1.4072e-05
2570.0 1.4658e-05
2590.0 1.558e-05
2610.0 1.7096e-05
2630.0 1.9279e-05
2650.0 2.2023e-05
2670.0 2.5362e-05
2690.0 2.9185e-05
2710.0 3.2986e-05
2730.0 3.6513e-05
2750.0 3.9828e-05
2770.0 4.2641e-05
2790.0 4.4915e-05
2810.0 4.6875e-05
2830.0 4.8696e-05
2850.0 5.0298e-05
2870.0 5.1863e-05
2890.0 5.3512e-05
2910.0 5.521e-05
2930.0 5.6895e-05
2950.0 5.8701e-05
2970.0 6.0608e-05
2990.0 6.2516e-05
3010.0 0.00028268
3030.0 0.00029163
3050.0 0.0003005
3070.0 0.00030839
3090.0 0.00031503
3110.0 0.00031852
3130.0 0.00031663
3150.0 0.00030705
3170.0 0.00028512
3190.0 0.00025049
3210.0 0.00020398
3230.0 0.00015196
3250.0 0.00020404
3270.0 0.00014715
3290.0 0.00027148
3310.0 0.00013919
3330.0 0.00013902
3350.0 0.00015707
3370.0 0.00017896
3390.0 0.00020316
3410.0 0.00022749
3430.0 0.00025317
3450.0 0.00027927
3470.0 0.00030356
3490.0 0.00032135
3510.0 0.00037449
3530.0 0.00046581
3550.0 0.00045734
3570.0 0.00039212
3590.0 0.00050509
3610.0 0.00035885
3630.0 0.00053618
3650.0 0.00061499
3670.0 0.00075922
3690.0 0.00071092
3710.0 0.00050421
3730.0 0.00062041
3750.0 0.0006317
3770.0 0.00068296
3790.0 0.00068323
3810.0 0.00073251
3830.0 0.0011251
3850.0 0.0014011
3870.0 0.00171
3890.0 0.0016942
3910.0 0.0015438
3930.0 0.001555
3950.0 0.001659
3970.0 0.0017234
3990.0 0.0010668
4010.0 0.00060087
4030.0 0.0010764
4050.0 0.0014579
4070.0 0.0015002
4090.0 0.0009854
4110.0 0.0006546
4130.0 0.0011028
4150.0 0.0011672
4170.0 0.0010403
4190.0 0.00091472
4210.0 0.0013177
4230.0 0.0010377
4250.0 0.0010763
4270.0 0.0010685
4290.0 0.00099136
4310.0 0.0012597
4330.0 0.0013925
4350.0 0.001241
4370.0 0.0010733
4390.0 0.001249
4410.0 0.0012494
4430.0 0.00091889
4450.0 0.00079346
4470.0 0.00097948
4490.0 0.0007957
4510.0 0.0011351
4530.0 0.0011721
4550.0 0.0013172
4570.0 0.0017936
4590.0 0.0018556
4610.0 0.0016948
4630.0 0.0025394
4650.0 0.0031785
4670.0 0.0030942
4690.0 0.0024417
4710.0 0.0025227
4730.0 0.0026195
4750.0 0.0020788
4770.0 0.0016185
4790.0 0.0011393
4810.0 0.0014466
4830.0 0.0016994
4850.0 0.0015495
4870.0 0.00087013
4890.0 0.0018032
4910.0 0.0022016
4930.0 0.0024001
4950.0 0.0025754
4970.0 0.0020622
4990.0 0.002374
5010.0 0.0026459
5030.0 0.0027052
5050.0 0.0024119
5070.0 0.0017129
5090.0 0.0014036
5110.0 0.0013798
5130.0 0.0013551
5150.0 0.001361
5170.0 0.0012445
5190.0 0.0014274
5210.0 0.0014578
5230.0 0.0016131
5250.0 0.001851
5270.0 0.0015945
5290.0 0.0017193
5310.0 0.0024082
5330.0 0.0027274
5350.0 0.002361
5370.0 0.0021998
5390.0 0.0024983
5410.0 0.0028226
5430.0 0.0029272
5450.0 0.0030676
5470.0 0.0031644
5490.0 0.0034055
5510.0 0.0040768
5530.0 0.0042323
5550.0 0.0043877
5570.0 0.0045203
5590.0 0.0044085
5610.0 0.0041342
5630.0 0.004071
5650.0 0.0042162
5670.0 0.0040988
5690.0 0.0035633
5710.0 0.0035252
5730.0 0.0034462
5750.0 0.0034314
5770.0 0.002978
5790.0 0.002929
5810.0 0.0030333
5830.0 0.0032947
5850.0 0.0031165
5870.0 0.0031019
5890.0 0.0034858
5910.0 0.0032335
5930.0 0.0027507
5950.0 0.0025659
5970.0 0.0027597
5990.0 0.0024773
6010.0 0.0022094
6030.0 0.0020925
6050.0 0.0019074
6070.0 0.0015618
6090.0 0.0015439
6110.0 0.0018957
6130.0 0.0020612
6150.0 0.0021141
6170.0 0.0020977
6190.0 0.0020726
6210.0 0.0022339
6230.0 0.0026844
6250.0 0.0024838
6270.0 0.0022116
6290.0 0.0019797
6310.0 0.0017443
6330.0 0.0015934
6350.0 0.0014557
6370.0 0.0014993
6390.0 0.0017203
6410.0 0.0021159
6430.0 0.0025362
6450.0 0.0026702
6470.0 0.0027798
6490.0 0.0033069
6510.0 0.0037372
6530.0 0.0035735
6550.0 0.0033976
6570.0 0.0034418
6590.0 0.0034135
6610.0 0.0035398
6630.0 0.0033099
6650.0 0.0029049
6670.0 0.0027209
6690.0 0.00269
6710.0 0.0030357
6730.0 0.0026845
6750.0 0.002229
6770.0 0.002064
6790.0 0.0021968
6810.0 0.0025094
6830.0 0.0025143
6850.0 0.0022687
6870.0 0.0023234
6890.0 0.0023057
6910.0 0.0021676
6930.0 0.0023394
6950.0 0.0022091
6970.0 0.0020925
6990.0 0.0021041
7010.0 0.0021624
7030.0 0.0021146
7050.0 0.0019963
7070.0 0.00207
7090.0 0.0018977
7110.0 0.0016155
7130.0 0.001451
7150.0 0.0014681
7170.0 0.0017657
7190.0 0.0018401
7210.0 0.0017551
7230.0 0.0018699
7250.0 0.0018797
7270.0 0.0018707
7290.0 0.0019836
7310.0 0.0021122
7330.0 0.0020379
7350.0 0.00189
7370.0 0.0017471
7390.0 0.0017335
7410.0 0.001964
7430.0 0.0022355
7450.0 0.0024022
7470.0 0.002499
7490.0 0.0028338
7510.0 0.0028102
7530.0 0.0024614
7550.0 0.0022638
7570.0 0.0019372
7590.0 0.0017996
7610.0 0.0017428
7630.0 0.0016381
7650.0 0.0017611
7670.0 0.0019695
7690.0 0.0021509
7710.0 0.0024593
7730.0 0.0025686
7750.0 0.0026663
7770.0 0.00281
7790.0 0.0030141
7810.0 0.003012
7830.0 0.0027154
7850.0 0.0027203
7870.0 0.0026334
7890.0 0.0026437
7910.0 0.0024808
7930.0 0.0024331
7950.0 0.002033
7970.0 0.0020167
7990.0 0.0019702
8010.0 0.0021956
8030.0 0.002191
8050.0 0.0023279
8070.0 0.0022424
8090.0 0.0022522
8110.0 0.002219
8130.0 0.0021773
8150.0 0.0020353
8170.0 0.0020038
8190.0 0.0020067
8210.0 0.0020275
8230.0 0.001785
8250.0 0.0016374
8270.0 0.0014469
8290.0 0.0012291
8310.0 0.0010724
8330.0 0.0008389
8350.0 0.00067156
8370.0 0.00063999
8390.0 0.00062531
8410.0 0.00066322
8430.0 0.00085534
8450.0 0.00093582
8470.0 0.0010102
8490.0 0.0011777
8510.0 0.0012815
8530.0 0.0014504
8550.0 0.0017163
8570.0 0.0018902
8590.0 0.0019914
8610.0 0.0022267
8630.0 0.0025477
8650.0 0.0026233
8670.0 0.0026816
8690.0 0.0027692
8710.0 0.002712
8730.0 0.002617
8750.0 0.0024079
8770.0 0.0024042
8790.0 0.0023645
8810.0 0.002176
8830.0 0.0021646
8850.0 0.0019645
8870.0 0.0018648
8890.0 0.0016736
8910.0 0.0018736
8930.0 0.0017008
8950.0 0.0017128
8970.0 0.0017533
8990.0 0.0017084
9010.0 0.0017512
9030.0 0.0016624
9050.0 0.0016549
9070.0 0.0016561
9090.0 0.001657
9110.0 0.0016591
9130.0 0.0016596
9150.0 0.0016593
9170.0 0.0016547
9190.0 0.0016439
9210.0 0.0016697
9230.0 0.0016632
9250.0 0.0016598
9270.0 0.0016571
9290.0 0.0016549
9310.0 0.0016528
9330.0 0.0016509
9350.0 0.001649
9370.0 0.0016471
9390.0 0.001645
9410.0 0.0016429
9430.0 0.0016407
9450.0 0.0016383
9470.0 0.0016359
9490.0 0.0016334
9510.0 0.0016308
9530.0 0.0016281
9550.0 0.0016255
9570.0 0.0016228
9590.0 0.00162
9610.0 0.0016172
9630.0 0.0016145
9650.0 0.0016117
9670.0 0.0016088
9690.0 0.001606
9710.0 0.0016033
9730.0 0.0016005
9750.0 0.0015977
9770.0 0.0015952
9790.0 0.0015925
9810.0 0.0015898
9830.0 0.0015873
9850.0 0.0015849
9870.0 0.0015824
9890.0 0.00158
9910.0 0.0015778
9930.0 0.0015755
9950.0 0.0015711
9970.0 0.0015698
9990.0 0.0015684
10010.0 0.0015668
10030.0 0.0015653
10050.0 0.0015631
10070.0 0.0015577
10090.0 0.0015575
10110.0 0.0015572
10130.0 0.0015567
10150.0 0.001556
10170.0 0.0015552
10190.0 0.0015542
10210.0 0.0015533
10230.0 0.0015525
10250.0 0.0015517
10270.0 0.001551
10290.0 0.0015505
10310.0 0.0015499
10330.0 0.0015494
10350.0 0.0015491
10370.0 0.0015489
10390.0 0.0015486
10410.0 0.0015485
10430.0 0.0015486
10450.0 0.0015487
10470.0 0.0015488
10490.0 0.001549
10510.0 0.0015494
10530.0 0.0015496
10550.0 0.0015501
10570.0 0.0015506
10590.0 0.0015512
10610.0 0.0015518
10630.0 0.0015525
10650.0 0.0015533
10670.0 0.0015541
10690.0 0.0015549
10710.0 0.0015559
10730.0 0.0015568
10750.0 0.0015578
10770.0 0.0015589
10790.0 0.00156
10810.0 0.0015611
10830.0 0.0015622
10850.0 0.0015633
10870.0 0.0015639
10890.0 0.001564
10910.0 0.0015629
10930.0 0.00156
10950.0 0.0015538
10970.0 0.0015436
10990.0 0.0015291
11010.0 0.0015614
11030.0 0.0015328
11050.0 0.0014994
11070.0 0.0014607
11090.0 0.001416
11110.0 0.0013714
11130.0 0.0013269
11150.0 0.0012815
11170.0 0.0012374
11190.0 0.0011974
11210.0 0.0011591
11230.0 0.0011228
11250.0 0.0010909
11270.0 0.0010627
11290.0 0.0010366
11310.0 0.0010135
11330.0 0.00099429
11350.0 0.00097662
11370.0 0.00096023
11390.0 0.00094544
11410.0 0.00093141
11430.0 0.00091665
11450.0 0.00090181
11470.0 0.00088678
11490.0 0.00087055
11510.0 0.00085275
11530.0 0.00083473
11550.0 0.00081598
11570.0 0.00079568
11590.0 0.00077498
11610.0 0.00075459
11630.0 0.00073327
11650.0 0.00071146
11670.0 0.0006909
11690.0 0.00067076
11710.0 0.00065049
11730.0 0.00063113
11750.0 0.00061324
11770.0 0.00059541
11790.0 0.00057816
11810.0 0.00056223
11830.0 0.00054702
11850.0 0.00053169
11870.0 0.00051744
11890.0 0.00050416
11910.0 0.00049088
11930.0 0.00047781
11950.0 0.00046555
11970.0 0.00045343
11990.0 0.000441
12010.0 0.00042913
12030.0 0.00041775
12050.0 0.0004063
12070.0 0.00039496
12090.0 0.00038478
12110.0 0.00037501
12130.0 0.00036568
12150.0 0.00035746
12170.0 0.00035046
12190.0 0.00034425
12210.0 0.00033953
12230.0 0.00033648
12250.0 0.00033498
12270.0 0.00033522
12290.0 0.00033725
12310.0 0.00034089
12330.0 0.00034637
12350.0 0.00035344
12370.0 0.00036162
12390.0 0.00037101
12410.0 0.00038182
12430.0 0.00039263
12450.0 0.00040353
12470.0 0.00041472
12490.0 0.00042553
12510.0 0.00043531
12530.0 0.00044461
12550.0 0.00045314
12570.0 0.00046035
12590.0 0.00046641
12610.0 0.00047155
12630.0 0.0004755
12650.0 0.00047822
12670.0 0.00048004
12690.0 0.00048092
12710.0 0.00048095
12730.0 0.00048026
12750.0 0.0004788
12770.0 0.00047674
12790.0 0.00047421
12810.0 0.00047111
12830.0 0.00046739
12850.0 0.00046339
12870.0 0.00045893
12890.0 0.00045377
12910.0 0.00044814
12930.0 0.00044218
12950.0 0.00043538
12970.0 0.0004278
12990.0 0.00042003
13010.0 0.00041173
13030.0 0.00040266
13050.0 0.00039334
13070.0 0.00038414
13090.0 0.00037442
13110.0 0.00036464
13130.0 0.00035542
13150.0 0.00034655
13170.0 0.00033778
13190.0 0.00033006
13210.0 0.0003234
13230.0 0.00031745
13250.0 0.0003125
13270.0 0.00030879
13290.0 0.00030601
13310.0 0.00030413
13330.0 0.00030322
13350.0 0.00030305
13370.0 0.00030344
13390.0 0.00030424
13410.0 0.00030519
13430.0 0.00030614
13450.0 0.00030694
13470.0 0.0003074
13490.0 0.00030744
13510.0 0.00030696
13530.0 0.00030593
13550.0 0.00030445
13570.0 0.00030251
13590.0 0.00030012
13610.0 0.00029755
13630.0 0.00029489
13650.0 0.00029207
13670.0 0.00028931
13690.0 0.00028677
13710.0 0.00028436
13730.0 0.00028205
13750.0 0.00028009
13770.0 0.00027832
13790.0 0.00027665
13810.0 0.00027509
13830.0 0.00027363
13850.0 0.0002721
13870.0 0.00027047
13890.0 0.00026876
13910.0 0.00026691
13930.0 0.00026482
13950.0 0.00026256
13970.0 0.00026028
13990.0 0.00025784
14010.0 0.00025532
14030.0 0.0002529
14050.0 0.00025057
14070.0 0.00024828
14090.0 0.00024623
14110.0 0.00024445
14130.0 0.00024289
14150.0 0.00024157
14170.0 0.00024055
14190.0 0.00023979
14210.0 0.00023927
14230.0 0.000239
14250.0 0.00023896
14270.0 0.00023918
14290.0 0.00023968
14310.0 0.00024038
14330.0 0.00024132
14350.0 0.00024254
14370.0 0.00024396
14390.0 0.0002455
14410.0 0.00024728
14430.0 0.00024921
14450.0 0.00025114
14470.0 0.00025314
14490.0 0.0002553
14510.0 0.00025737
14530.0 0.0002594
14550.0 0.00026155
14570.0 0.0002638
14590.0 0.00026606
14610.0 0.00026856
14630.0 0.00027144
14650.0 0.00027453
14670.0 0.00027793
14690.0 0.0002819
14710.0 0.00028644
14730.0 0.00029114
14750.0 0.00029641
14770.0 0.0003023
14790.0 0.0003084
14810.0 0.00031462
14830.0 0.00032151
14850.0 0.00032836
14870.0 0.00033487
14890.0 0.0003413
14910.0 0.00034752
14930.0 0.00035291
14950.0 0.00035745
14970.0 0.00036132
14990.0 0.00036411
15010.0 0.00036581
15030.0 0.00036662
15050.0 0.00036663
15070.0 0.00036596
15090.0 0.00036485
15110.0 0.00036345
15130.0 0.00036187
15150.0 0.00036022
15170.0 0.00035851
15190.0 0.00035676
15210.0 0.00035504
15230.0 0.00035332
15250.0 0.00035157
15270.0 0.00034983
15290.0 0.00034814
15310.0 0.00034642
15330.0 0.0003447
15350.0 0.00034301
15370.0 0.00034133
15390.0 0.00033961
15410.0 0.00033793
15430.0 0.00033627
15450.0 0.00033459
15470.0 0.0003329
15490.0 0.00033126
15510.0 0.00032962
15530.0 0.00032796
15550.0 0.00032632
15570.0 0.00032472
15590.0 0.00032308
15610.0 0.00032144
15630.0 0.00031985
15650.0 0.00031826
15670.0 0.00031665
15690.0 0.00031506
15710.0 0.00031351
15730.0 0.00031193
15750.0 0.00031035
15770.0 0.00030882
15790.0 0.00030728
15810.0 0.00030571
15830.0 0.00030418
15850.0 0.00030268
15870.0 0.00030116
15890.0 0.00029964
15910.0 0.00029817
15930.0 0.00029668
15950.0 0.00029518
15970.0 0.00029371
15990.0 0.00029226
16010.0 0.00029079
16030.0 0.00028932
16050.0 0.0002879
16070.0 0.00028647
16090.0 0.00028503
16110.0 0.00028362
16130.0 0.00028224
16150.0 0.00028081
16170.0 0.0002794
16190.0 0.00027804
16210.0 0.00027666
16230.0 0.00027527
16250.0 0.00027391
16270.0 0.00027258
16290.0 0.00027122
16310.0 0.00026987
16330.0 0.00026855
16350.0 0.00026723
16370.0 0.00026587
16390.0 0.00026458
16410.0 0.00026329
16430.0 0.00026198
16450.0 0.00026068
16470.0 0.00025942
16490.0 0.00025814
16510.0 0.00025685
16530.0 0.0002556
16550.0 0.00025435
16570.0 0.00025308
16590.0 0.00025182
16610.0 0.00025061
16630.0 0.00024938
16650.0 0.00024814
16670.0 0.00024693
16690.0 0.00024573
16710.0 0.0002445
16730.0 0.00024329
16750.0 0.00024211
16770.0 0.00024092
16790.0 0.00023971
16810.0 0.00023855
16830.0 0.00023739
16850.0 0.0002362
16870.0 0.00023504
16890.0 0.0002339
16910.0 0.00023273
16930.0 0.00023156
16950.0 0.00023044
16970.0 0.00022931
16990.0 0.00022816
17010.0 0.00022703
17030.0 0.00022593
17050.0 0.0002248
17070.0 0.00022367
17090.0 0.00022258
17110.0 0.00022148
17130.0 0.00022034
17150.0 0.00021925
17170.0 0.00021818
17190.0 0.00021708
17210.0 0.00021599
17230.0 0.00021493
17250.0 0.00021385
17270.0 0.00021276
17290.0 0.00021169
17310.0 0.00021064
17330.0 0.00020957
17350.0 0.00020849
17370.0 0.00020747
17390.0 0.00020642
17410.0 0.00020536
17430.0 0.00020432
17450.0 0.00020331
17470.0 0.00020224
17490.0 0.0002012
17510.0 0.00020019
17530.0 0.00019916
17550.0 0.00019812
17570.0 0.00019711
17590.0 0.00019612
17610.0 0.00019509
17630.0 0.00019407
17650.0 0.00019309
17670.0 0.00019208
17690.0 0.00019105
17710.0 0.00019007
17730.0 0.00018909
17750.0 0.00018808
17770.0 0.00018709
17790.0 0.00018613
17810.0 0.00018514
17830.0 0.00018414
17850.0 0.00018318
17870.0 0.00018222
17890.0 0.00018122
17910.0 0.00018025
17930.0 0.00017931
17950.0 0.00017834
17970.0 0.00017737
17990.0 0.00017643
18010.0 0.00017549
18030.0 0.00017451
18050.0 0.00017356
18070.0 0.00017263
18090.0 0.00017169
18110.0 0.00017073
18130.0 0.00016981
18150.0 0.00016889
18170.0 0.00016794
18190.0 0.00016701
18210.0 0.00016611
18230.0 0.00016517
18250.0 0.00016422
18270.0 0.00016332
18290.0 0.00016242
18310.0 0.00016149
18330.0 0.00016058
18350.0 0.0001597
18370.0 0.00015878
18390.0 0.00015787
18410.0 0.00015698
18430.0 0.00015609
18450.0 0.00015517
18470.0 0.00015428
18490.0 0.00015341
18510.0 0.00015251
18530.0 0.00015162
18550.0 0.00015077
18570.0 0.00014989
18590.0 0.00014899
18610.0 0.00014812
18630.0 0.00014726
18650.0 0.00014638
18670.0 0.0001455
18690.0 0.00014467
18710.0 0.00014381
18730.0 0.00014294
18750.0 0.00014209
18770.0 0.00014126
18790.0 0.00014038
18810.0 0.00013953
18830.0 0.0001387
18850.0 0.00013786
18870.0 0.000137
18890.0 0.00013618
18910.0 0.00013536
18930.0 0.00013451
18950.0 0.00013368
18970.0 0.00013287
18990.0 0.00013205
19010.0 0.00013119
19030.0 0.0001304
19050.0 0.00012959
19070.0 0.00012877
19090.0 0.00012795
19110.0 0.00012717
19130.0 0.00012636
19150.0 0.00012554
19170.0 0.00012475
19190.0 0.00012396
19210.0 0.00012315
19230.0 0.00012235
19250.0 0.00012158
19270.0 0.00012079
19290.0 0.00012
19310.0 0.00011923
19330.0 0.00011846
19350.0 0.00011766
19370.0 0.00011688
19390.0 0.00011613
19410.0 0.00011535
19430.0 0.00011457
19450.0 0.00011382
19470.0 0.00011307
19490.0 0.0001123
19510.0 0.00011154
19530.0 0.00011081
19550.0 0.00011004
19570.0 0.00010927
19590.0 0.00010854
19610.0 0.0001078
19630.0 0.00010704
19650.0 0.00010631
19670.0 0.00010559
19690.0 0.00010484
19710.0 0.0001041
19730.0 0.00010339
19750.0 0.00010266
19770.0 0.00010191
19790.0 0.00010119
19810.0 0.00010049
19830.0 9.9755e-05
19850.0 9.9023e-05
19870.0 9.8309e-05
19890.0 9.7546e-05
19910.0 9.6715e-05
19930.0 9.5841e-05
19950.0 9.4861e-05
19970.0 9.3683e-05
19990.0 9.2309e-05
20010.0 9.0798e-05
20030.0 8.9032e-05
20050.0 8.705e-05
20070.0 8.5001e-05
20090.0 8.2905e-05
20110.0 8.0664e-05
20130.0 7.8537e-05
20150.0 7.6562e-05
20170.0 7.4643e-05
20190.0 7.2828e-05
20210.0 7.1229e-05
20230.0 6.9772e-05
20250.0 6.841e-05
20270.0 6.7238e-05
20290.0 6.6248e-05
20310.0 6.5384e-05
20330.0 6.4661e-05
20350.0 6.4142e-05
20370.0 6.3764e-05
20390.0 6.3535e-05
20410.0 6.3469e-05
20430.0 6.3554e-05
20450.0 6.3802e-05
20470.0 6.4216e-05
20490.0 6.477e-05
20510.0 6.5475e-05
20530.0 6.6358e-05
20550.0 6.7361e-05
20570.0 6.8447e-05
20590.0 6.9683e-05
20610.0 7.1016e-05
20630.0 7.2368e-05
20650.0 7.3776e-05
20670.0 7.5275e-05
20690.0 7.67e-05
20710.0 7.8069e-05
20730.0 7.9428e-05
20750.0 8.0717e-05
20770.0 8.1864e-05
20790.0 8.2945e-05
20810.0 8.3957e-05
20830.0 8.4847e-05
20850.0 8.5641e-05
20870.0 8.6396e-05
20890.0 8.7087e-05
20910.0 8.7697e-05
20930.0 8.8288e-05
20950.0 8.8866e-05
20970.0 8.9406e-05
20990.0 8.9919e-05
21010.0 9.0434e-05
21030.0 9.091e-05
21050.0 9.133e-05
21070.0 9.1706e-05
21090.0 9.2026e-05
21110.0 9.2254e-05
21130.0 9.24e-05
21150.0 9.2461e-05
21170.0 9.2428e-05
21190.0 9.2309e-05
21210.0 9.2101e-05
21230.0 9.1803e-05
21250.0 9.1445e-05
21270.0 9.103e-05
21290.0 9.0548e-05
21310.0 9.0029e-05
21330.0 8.9507e-05
21350.0 8.8949e-05
21370.0 8.8376e-05
21390.0 8.7824e-05
21410.0 8.7287e-05
21430.0 8.6738e-05
21450.0 8.6235e-05
21470.0 8.578e-05
21490.0 8.5349e-05
21510.0 8.4958e-05
21530.0 8.463e-05
21550.0 8.435e-05
21570.0 8.4115e-05
21590.0 8.3947e-05
21610.0 8.3842e-05
21630.0 8.38e-05
21650.0 8.3831e-05
21670.0 8.3932e-05
21690.0 8.4105e-05
21710.0 8.4362e-05
21730.0 8.4694e-05
21750.0 8.5092e-05
21770.0 8.5596e-05
21790.0 8.6184e-05
21810.0 8.6832e-05
21830.0 8.7562e-05
21850.0 8.8399e-05
21870.0 8.9288e-05
21890.0 9.0213e-05
21910.0 9.1239e-05
21930.0 9.2321e-05
21950.0 9.3409e-05
21970.0 9.455e-05
21990.0 9.5773e-05
22010.0 9.6955e-05
22030.0 9.8121e-05
22050.0 9.9315e-05
22070.0 0.00010048
22090.0 0.00010156
22110.0 0.00010262
22130.0 0.00010363
22150.0 0.00010452
22170.0 0.00010531
22190.0 0.00010602
22210.0 0.00010659
22230.0 0.00010699
22250.0 0.00010727
22270.0 0.00010738
22290.0 0.00010733
22310.0 0.00010711
22330.0 0.0001067
22350.0 0.00010612
22370.0 0.00010538
22390.0 0.00010446
22410.0 0.00010333
22430.0 0.00010211
22450.0 0.00010075
22470.0 9.9214e-05
22490.0 9.7574e-05
22510.0 9.5896e-05
22530.0 9.4062e-05
22550.0 9.2123e-05
22570.0 9.0218e-05
22590.0 8.8282e-05
22610.0 8.6262e-05
22630.0 8.4268e-05
22650.0 8.2372e-05
22670.0 8.043e-05
22690.0 7.8509e-05
22710.0 7.6704e-05
22730.0 7.4962e-05
22750.0 7.3192e-05
22770.0 7.157e-05
22790.0 7.0076e-05
22810.0 6.8626e-05
22830.0 6.726e-05
22850.0 6.6052e-05
22870.0 6.4933e-05
22890.0 6.3885e-05
22910.0 6.2984e-05
22930.0 6.2219e-05
22950.0 6.1553e-05
22970.0 6.1009e-05
22990.0 6.063e-05
23010.0 6.037e-05
