#lamb flux
1010.0 8.7993e-07
1030.0 9.197e-07
1050.0 9.6567e-07
1070.0 1.0175e-06
1090.0 1.0764e-06
1110.0 1.137e-06
1130.0 1.1981e-06
1150.0 1.2623e-06
1170.0 1.3288e-06
1190.0 1.3922e-06
1210.0 1.4567e-06
1230.0 1.5235e-06
1250.0 1.5894e-06
1270.0 1.6538e-06
1290.0 1.7221e-06
1310.0 1.7907e-06
1330.0 1.8571e-06
1350.0 1.9245e-06
1370.0 1.9946e-06
1390.0 2.0634e-06
1410.0 2.1307e-06
1430.0 2.2015e-06
1450.0 2.2727e-06
1470.0 2.3422e-06
1490.0 2.4129e-06
1510.0 2.4877e-06
1530.0 2.5594e-06
1550.0 2.6306e-06
1570.0 2.7044e-06
1590.0 2.7786e-06
1610.0 2.85e-06
1630.0 2.9237e-06
1650.0 2.9992e-06
1670.0 3.0726e-06
1690.0 3.145e-06
1710.0 3.2198e-06
1730.0 3.2948e-06
1750.0 3.3653e-06
1770.0 3.4372e-06
1790.0 3.5101e-06
1810.0 3.58e-06
1830.0 3.6481e-06
1850.0 3.7195e-06
1870.0 3.7881e-06
1890.0 3.8536e-06
1910.0 3.9195e-06
1930.0 3.986e-06
1950.0 4.0485e-06
1970.0 4.1092e-06
1990.0 4.1716e-06
2010.0 4.232e-06
2030.0 4.2895e-06
2050.0 4.3484e-06
2070.0 4.4086e-06
2090.0 4.4648e-06
2110.0 4.5209e-06
2130.0 4.5793e-06
2150.0 4.637e-06
2170.0 4.6928e-06
2190.0 4.7523e-06
2210.0 4.8136e-06
2230.0 4.8743e-06
2250.0 4.937e-06
2270.0 5.005e-06
2290.0 5.074e-06
2310.0 5.1438e-06
2330.0 5.2192e-06
2350.0 5.2992e-06
2370.0 5.3811e-06
2390.0 5.4685e-06
2410.0 5.5642e-06
2430.0 5.6632e-06
2450.0 5.7655e-06
2470.0 5.8734e-06
2490.0 5.9839e-06
2510.0 6.0926e-06
2530.0 6.2085e-06
2550.0 6.3463e-06
2570.0 6.5291e-06
2590.0 6.7904e-06
2610.0 7.2024e-06
2630.0 7.8108e-06
2650.0 8.6159e-06
2670.0 9.6501e-06
2690.0 1.0913e-05
2710.0 1.2282e-05
2730.0 1.3686e-05
2750.0 1.5151e-05
2770.0 1.6573e-05
2790.0 1.7912e-05
2810.0 1.9228e-05
2830.0 2.058e-05
2850.0 2.1892e-05
2870.0 2.3232e-05
2890.0 2.4653e-05
2910.0 2.6129e-05
2930.0 2.7618e-05
2950.0 2.9197e-05
2970.0 3.0855e-05
2990.0 3.2528e-05
3010.0 6.0477e-05
3030.0 6.3636e-05
3050.0 6.6819e-05
3070.0 6.9814e-05
3090.0 7.2611e-05
3110.0 7.4799e-05
3130.0 7.5838e-05
3150.0 7.5171e-05
3170.0 7.1694e-05
3190.0 6.5086e-05
3210.0 5.5351e-05
3230.0 4.4062e-05
3250.0 5.2424e-05
3270.0 3.2331e-05
3290.0 5.5139e-05
3310.0 2.4402e-05
3330.0 2.6115e-05
3350.0 3.1995e-05
3370.0 3.8427e-05
3390.0 4.5122e-05
3410.0 5.1784e-05
3430.0 5.8666e-05
3450.0 6.5507e-05
3470.0 7.1872e-05
3490.0 7.6219e-05
3510.0 8.8099e-05
3530.0 0.00011163
3550.0 0.00011996
3570.0 0.00011963
3590.0 0.00015733
3610.0 0.00013038
3630.0 0.00016429
3650.0 0.00017187
3670.0 0.00020308
3690.0 0.00020825
3710.0 0.00018683
3730.0 0.00022921
3750.0 0.00023886
3770.0 0.00024277
3790.0 0.00022472
3810.0 0.00019486
3830.0 0.00021124
3850.0 0.00020107
3870.0 0.0002357
3890.0 0.00024103
3910.0 0.00025142
3930.0 0.00028602
3950.0 0.00031768
3970.0 0.00039472
3990.0 0.0003707
4010.0 0.00031254
4030.0 0.00034755
4050.0 0.00033742
4070.0 0.00035311
4090.0 0.0003349
4110.0 0.00027732
4130.0 0.0003196
4150.0 0.00029841
4170.0 0.00031022
4190.0 0.00030901
4210.0 0.00035029
4230.0 0.00029021
4250.0 0.00033001
4270.0 0.00032961
4290.0 0.00033407
4310.0 0.00037683
4330.0 0.00039217
4350.0 0.00035104
4370.0 0.00032931
4390.0 0.00034479
4410.0 0.00032424
4430.0 0.00026264
4450.0 0.00025451
4470.0 0.00027538
4490.0 0.00024035
4510.0 0.00027657
4530.0 0.00030269
4550.0 0.00038244
4570.0 0.00052735
4590.0 0.00057751
4610.0 0.00051741
4630.0 0.00066594
4650.0 0.00082251
4670.0 0.00079439
4690.0 0.00060488
4710.0 0.0005934
4730.0 0.00062363
4750.0 0.00053757
4770.0 0.00043067
4790.0 0.00034536
4810.0 0.00042733
4830.0 0.00048185
4850.0 0.00048922
4870.0 0.00034311
4890.0 0.00052884
4910.0 0.00063047
4930.0 0.00068043
4950.0 0.00073319
4970.0 0.00063645
4990.0 0.00068907
5010.0 0.00069175
5030.0 0.0006463
5050.0 0.00057902
5070.0 0.00044048
5090.0 0.00038049
5110.0 0.00036444
5130.0 0.00034174
5150.0 0.00037503
5170.0 0.00034634
5190.0 0.00039279
5210.0 0.00039658
5230.0 0.00043106
5250.0 0.00052966
5270.0 0.00052028
5290.0 0.00054304
5310.0 0.00068332
5330.0 0.00076675
5350.0 0.00072664
5370.0 0.00069152
5390.0 0.00071934
5410.0 0.00079331
5430.0 0.00084338
5450.0 0.00093064
5470.0 0.0010228
5490.0 0.001097
5510.0 0.001252
5530.0 0.0012974
5550.0 0.0013363
5570.0 0.0013597
5590.0 0.0013439
5610.0 0.0013125
5630.0 0.0012987
5650.0 0.0013186
5670.0 0.0013123
5690.0 0.0011854
5710.0 0.0011089
5730.0 0.0010534
5750.0 0.0010705
5770.0 0.00097808
5790.0 0.00095223
5810.0 0.00099129
5830.0 0.0010362
5850.0 0.00098478
5870.0 0.00096514
5890.0 0.0010406
5910.0 0.0010106
5930.0 0.00091943
5950.0 0.00085757
5970.0 0.00086426
5990.0 0.00078424
6010.0 0.00071107
6030.0 0.00068847
6050.0 0.00065757
6070.0 0.0005711
6090.0 0.0005443
6110.0 0.00061243
6130.0 0.00065891
6150.0 0.00069708
6170.0 0.00072756
6190.0 0.00074864
6210.0 0.00076058
6230.0 0.00080964
6250.0 0.00074668
6270.0 0.00067062
6290.0 0.00059402
6310.0 0.00054065
6330.0 0.00050768
6350.0 0.00046909
6370.0 0.00047969
6390.0 0.00055237
6410.0 0.00066578
6430.0 0.000778
6450.0 0.00081044
6470.0 0.00084617
6490.0 0.00096515
6510.0 0.0010382
6530.0 0.001009
6550.0 0.00099667
6570.0 0.0010093
6590.0 0.00098667
6610.0 0.0010303
6630.0 0.00099419
6650.0 0.00092971
6670.0 0.00085897
6690.0 0.00080249
6710.0 0.00085815
6730.0 0.00080394
6750.0 0.00075513
6770.0 0.00073511
6790.0 0.00076372
6810.0 0.00080143
6830.0 0.00078324
6850.0 0.00073652
6870.0 0.00073214
6890.0 0.0007057
6910.0 0.00067009
6930.0 0.00072317
6950.0 0.00070446
6970.0 0.00070234
6990.0 0.00071879
7010.0 0.00069978
7030.0 0.00065683
7050.0 0.00060586
7070.0 0.0005855
7090.0 0.00053581
7110.0 0.00048423
7130.0 0.00042995
7150.0 0.00040395
7170.0 0.00046536
7190.0 0.00049118
7210.0 0.000499
7230.0 0.00053787
7250.0 0.00054211
7270.0 0.00053904
7290.0 0.00055725
7310.0 0.00056837
7330.0 0.00054423
7350.0 0.00051945
7370.0 0.00051301
7390.0 0.0005413
7410.0 0.00061322
7430.0 0.00067606
7450.0 0.00074383
7470.0 0.00077287
7490.0 0.00079233
7510.0 0.000757
7530.0 0.00072511
7550.0 0.00066926
7570.0 0.00057854
7590.0 0.00055364
7610.0 0.00054611
7630.0 0.00054678
7650.0 0.00061086
7670.0 0.00067234
7690.0 0.00073096
7710.0 0.00079554
7730.0 0.00084334
7750.0 0.00087969
7770.0 0.00088355
7790.0 0.00093268
7810.0 0.00095682
7830.0 0.00092272
7850.0 0.00092484
7870.0 0.0008837
7890.0 0.00088415
7910.0 0.00083391
7930.0 0.00082343
7950.0 0.00076594
7970.0 0.00077726
7990.0 0.00075648
8010.0 0.00074088
8030.0 0.00073851
8050.0 0.00076383
8070.0 0.00074316
8090.0 0.00074228
8110.0 0.00071631
8130.0 0.00071197
8150.0 0.00068552
8170.0 0.00066444
8190.0 0.00065399
8210.0 0.00065706
8230.0 0.00059907
8250.0 0.00055234
8270.0 0.00048113
8290.0 0.00039209
8310.0 0.00031861
8330.0 0.00024942
8350.0 0.00021417
8370.0 0.00022976
8390.0 0.00024952
8410.0 0.00027087
8430.0 0.00031467
8450.0 0.00033314
8470.0 0.00034866
8490.0 0.00039112
8510.0 0.00042897
8530.0 0.00049547
8550.0 0.00058345
8570.0 0.00065688
8590.0 0.0007132
8610.0 0.00077123
8630.0 0.00082644
8650.0 0.00083486
8670.0 0.00083775
8690.0 0.00086455
8710.0 0.0008642
8730.0 0.00086676
8750.0 0.0008342
8770.0 0.00083302
8790.0 0.00081889
8810.0 0.00075792
8830.0 0.00074604
8850.0 0.00070286
8870.0 0.00067344
8890.0 0.00062918
8910.0 0.00065594
8930.0 0.00060846
8950.0 0.00059082
8970.0 0.00058522
8990.0 0.00056696
9010.0 0.00056636
9030.0 0.0005481
9050.0 0.00054499
9070.0 0.00054384
9090.0 0.00054265
9110.0 0.00054157
9130.0 0.00054024
9150.0 0.00053881
9170.0 0.00053638
9190.0 0.00053245
9210.0 0.00053662
9230.0 0.00053379
9250.0 0.0005316
9270.0 0.00052951
9290.0 0.00052749
9310.0 0.00052552
9330.0 0.00052355
9350.0 0.00052155
9370.0 0.00051954
9390.0 0.00051749
9410.0 0.0005154
9430.0 0.00051326
9450.0 0.00051101
9470.0 0.00050876
9490.0 0.00050663
9510.0 0.00050442
9530.0 0.00050219
9550.0 0.00049991
9570.0 0.0004976
9590.0 0.00049529
9610.0 0.00049295
9630.0 0.00049058
9650.0 0.00048821
9670.0 0.00048584
9690.0 0.00048345
9710.0 0.00048105
9730.0 0.00047865
9750.0 0.00047625
9770.0 0.00047384
9790.0 0.00047144
9810.0 0.00046904
9830.0 0.00046664
9850.0 0.00046424
9870.0 0.00046185
9890.0 0.00045947
9910.0 0.00045709
9930.0 0.0004547
9950.0 0.00045031
9970.0 0.00044857
9990.0 0.00044672
10010.0 0.00044484
10030.0 0.00044279
10050.0 0.00044057
10070.0 0.0004381
10090.0 0.00043605
10110.0 0.00043387
10130.0 0.00043175
10150.0 0.00042963
10170.0 0.00042746
10190.0 0.00042521
10210.0 0.00042309
10230.0 0.00042102
10250.0 0.00041887
10270.0 0.00041677
10290.0 0.00041477
10310.0 0.00041271
10330.0 0.0004106
10350.0 0.00040862
10370.0 0.00040667
10390.0 0.00040466
10410.0 0.00040268
10430.0 0.00040083
10450.0 0.00039892
10470.0 0.00039699
10490.0 0.00039515
10510.0 0.00039335
10530.0 0.00039143
10550.0 0.0003896
10570.0 0.00038787
10590.0 0.00038609
10610.0 0.00038429
10630.0 0.0003826
10650.0 0.00038092
10670.0 0.00037915
10690.0 0.00037745
10710.0 0.00037583
10730.0 0.00037416
10750.0 0.00037243
10770.0 0.00037087
10790.0 0.00036929
10810.0 0.00036765
10830.0 0.00036606
10850.0 0.00036454
10870.0 0.00036286
10890.0 0.00036111
10910.0 0.00035933
10930.0 0.00035731
10950.0 0.00035483
10970.0 0.00035194
10990.0 0.00034864
11010.0 0.00033024
11030.0 0.0003259
11050.0 0.00032119
11070.0 0.00031597
11090.0 0.00031005
11110.0 0.00030426
11130.0 0.00029848
11150.0 0.00029247
11170.0 0.0002865
11190.0 0.00028092
11210.0 0.00027529
11230.0 0.00026963
11250.0 0.00026433
11270.0 0.0002593
11290.0 0.00025425
11310.0 0.00024944
11330.0 0.0002452
11350.0 0.00024108
11370.0 0.00023713
11390.0 0.00023358
11410.0 0.00023032
11430.0 0.00022702
11450.0 0.00022396
11470.0 0.00022113
11490.0 0.00021825
11510.0 0.00021525
11530.0 0.00021235
11550.0 0.00020938
11570.0 0.0002061
11590.0 0.00020268
11610.0 0.00019921
11630.0 0.00019538
11650.0 0.00019122
11670.0 0.00018711
11690.0 0.00018288
11710.0 0.00017837
11730.0 0.00017388
11750.0 0.00016961
11770.0 0.0001652
11790.0 0.00016083
11810.0 0.00015679
11830.0 0.00015294
11850.0 0.00014907
11870.0 0.00014557
11890.0 0.00014245
11910.0 0.00013943
11930.0 0.00013659
11950.0 0.0001341
11970.0 0.00013175
11990.0 0.00012945
12010.0 0.00012737
12030.0 0.00012548
12050.0 0.00012362
12070.0 0.0001218
12090.0 0.00012024
12110.0 0.00011873
12130.0 0.00011725
12150.0 0.00011594
12170.0 0.00011481
12190.0 0.00011372
12210.0 0.00011283
12230.0 0.0001122
12250.0 0.0001118
12270.0 0.00011166
12290.0 0.00011185
12310.0 0.00011237
12330.0 0.00011323
12350.0 0.00011447
12370.0 0.00011604
12390.0 0.00011795
12410.0 0.00012026
12430.0 0.00012276
12450.0 0.00012546
12470.0 0.00012838
12490.0 0.00013141
12510.0 0.00013438
12530.0 0.0001374
12550.0 0.0001404
12570.0 0.0001432
12590.0 0.00014582
12610.0 0.00014831
12630.0 0.00015057
12650.0 0.00015252
12670.0 0.00015427
12690.0 0.00015577
12710.0 0.000157
12730.0 0.000158
12750.0 0.00015876
12770.0 0.00015928
12790.0 0.0001596
12810.0 0.0001597
12830.0 0.00015958
12850.0 0.00015932
12870.0 0.00015889
12890.0 0.00015825
12910.0 0.00015748
12930.0 0.00015662
12950.0 0.00015556
12970.0 0.00015433
12990.0 0.00015306
13010.0 0.00015167
13030.0 0.0001501
13050.0 0.00014845
13070.0 0.00014678
13090.0 0.00014493
13110.0 0.00014299
13130.0 0.00014108
13150.0 0.00013914
13170.0 0.0001371
13190.0 0.00013521
13210.0 0.00013348
13230.0 0.00013183
13250.0 0.00013035
13270.0 0.00012918
13290.0 0.00012823
13310.0 0.00012751
13330.0 0.00012712
13350.0 0.000127
13370.0 0.00012711
13390.0 0.00012742
13410.0 0.00012788
13430.0 0.0001284
13450.0 0.00012893
13470.0 0.00012939
13490.0 0.00012971
13510.0 0.00012983
13530.0 0.00012969
13550.0 0.0001293
13570.0 0.00012862
13590.0 0.00012761
13610.0 0.00012639
13630.0 0.00012499
13650.0 0.00012334
13670.0 0.00012157
13690.0 0.00011978
13710.0 0.00011794
13730.0 0.00011601
13750.0 0.00011424
13770.0 0.00011257
13790.0 0.00011092
13810.0 0.00010939
13830.0 0.00010803
13850.0 0.00010671
13870.0 0.00010547
13890.0 0.00010435
13910.0 0.00010331
13930.0 0.00010229
13950.0 0.00010133
13970.0 0.00010047
13990.0 9.9628e-05
14010.0 9.8815e-05
14030.0 9.807e-05
14050.0 9.7373e-05
14070.0 9.6691e-05
14090.0 9.6078e-05
14110.0 9.5531e-05
14130.0 9.5026e-05
14150.0 9.4571e-05
14170.0 9.4187e-05
14190.0 9.3857e-05
14210.0 9.3576e-05
14230.0 9.3357e-05
14250.0 9.3194e-05
14270.0 9.309e-05
14290.0 9.305e-05
14310.0 9.306e-05
14330.0 9.3123e-05
14350.0 9.3247e-05
14370.0 9.3406e-05
14390.0 9.3584e-05
14410.0 9.3799e-05
14430.0 9.4024e-05
14450.0 9.4228e-05
14470.0 9.4415e-05
14490.0 9.4593e-05
14510.0 9.4718e-05
14530.0 9.4792e-05
14550.0 9.4839e-05
14570.0 9.4854e-05
14590.0 9.4835e-05
14610.0 9.4813e-05
14630.0 9.4813e-05
14650.0 9.4836e-05
14670.0 9.4904e-05
14690.0 9.5061e-05
14710.0 9.5328e-05
14730.0 9.5673e-05
14750.0 9.6158e-05
14770.0 9.6814e-05
14790.0 9.7597e-05
14810.0 9.8499e-05
14830.0 9.9646e-05
14850.0 0.00010093
14870.0 0.00010227
14890.0 0.00010373
14910.0 0.0001053
14930.0 0.00010677
14950.0 0.00010811
14970.0 0.00010934
14990.0 0.00011029
15010.0 0.0001109
15030.0 0.00011124
15050.0 0.0001113
15070.0 0.0001111
15090.0 0.00011073
15110.0 0.00011024
15130.0 0.00010968
15150.0 0.00010908
15170.0 0.00010845
15190.0 0.00010782
15210.0 0.00010718
15230.0 0.00010654
15250.0 0.0001059
15270.0 0.00010525
15290.0 0.00010462
15310.0 0.00010398
15330.0 0.00010334
15350.0 0.0001027
15370.0 0.00010206
15390.0 0.00010142
15410.0 0.00010078
15430.0 0.00010015
15450.0 9.9518e-05
15470.0 9.8882e-05
15490.0 9.8254e-05
15510.0 9.7626e-05
15530.0 9.6997e-05
15550.0 9.6371e-05
15570.0 9.5751e-05
15590.0 9.5127e-05
15610.0 9.4504e-05
15630.0 9.389e-05
15650.0 9.3276e-05
15670.0 9.2662e-05
15690.0 9.2053e-05
15710.0 9.145e-05
15730.0 9.0844e-05
15750.0 9.0241e-05
15770.0 8.9645e-05
15790.0 8.9051e-05
15810.0 8.8454e-05
15830.0 8.7865e-05
15850.0 8.7283e-05
15870.0 8.6699e-05
15890.0 8.6118e-05
15910.0 8.5546e-05
15930.0 8.4974e-05
15950.0 8.4402e-05
15970.0 8.3837e-05
15990.0 8.3278e-05
16010.0 8.2718e-05
16030.0 8.2161e-05
16050.0 8.1614e-05
16070.0 8.1068e-05
16090.0 8.0523e-05
16110.0 7.9985e-05
16130.0 7.9453e-05
16150.0 7.8918e-05
16170.0 7.839e-05
16190.0 7.7869e-05
16210.0 7.735e-05
16230.0 7.6832e-05
16250.0 7.6322e-05
16270.0 7.5818e-05
16290.0 7.5313e-05
16310.0 7.4813e-05
16330.0 7.4321e-05
16350.0 7.383e-05
16370.0 7.3339e-05
16390.0 7.2858e-05
16410.0 7.2382e-05
16430.0 7.1906e-05
16450.0 7.1436e-05
16470.0 7.0973e-05
16490.0 7.0511e-05
16510.0 7.0051e-05
16530.0 6.9599e-05
16550.0 6.9151e-05
16570.0 6.8703e-05
16590.0 6.8261e-05
16610.0 6.7828e-05
16630.0 6.7395e-05
16650.0 6.6965e-05
16670.0 6.6542e-05
16690.0 6.6124e-05
16710.0 6.5704e-05
16730.0 6.5291e-05
16750.0 6.4885e-05
16770.0 6.4481e-05
16790.0 6.4078e-05
16810.0 6.3684e-05
16830.0 6.3294e-05
16850.0 6.2904e-05
16870.0 6.252e-05
16890.0 6.2142e-05
16910.0 6.1764e-05
16930.0 6.1389e-05
16950.0 6.1023e-05
16970.0 6.0659e-05
16990.0 6.0296e-05
17010.0 5.994e-05
17030.0 5.9589e-05
17050.0 5.9238e-05
17070.0 5.8891e-05
17090.0 5.8551e-05
17110.0 5.8213e-05
17130.0 5.7875e-05
17150.0 5.7545e-05
17170.0 5.722e-05
17190.0 5.6895e-05
17210.0 5.6574e-05
17230.0 5.6259e-05
17250.0 5.5946e-05
17270.0 5.5634e-05
17290.0 5.5328e-05
17310.0 5.5027e-05
17330.0 5.4726e-05
17350.0 5.4428e-05
17370.0 5.4138e-05
17390.0 5.3849e-05
17410.0 5.3561e-05
17430.0 5.3279e-05
17450.0 5.3001e-05
17470.0 5.2722e-05
17490.0 5.2447e-05
17510.0 5.2179e-05
17530.0 5.1912e-05
17550.0 5.1646e-05
17570.0 5.1386e-05
17590.0 5.113e-05
17610.0 5.0873e-05
17630.0 5.062e-05
17650.0 5.0373e-05
17670.0 5.0127e-05
17690.0 4.988e-05
17710.0 4.9641e-05
17730.0 4.9404e-05
17750.0 4.9168e-05
17770.0 4.8935e-05
17790.0 4.8709e-05
17810.0 4.8481e-05
17830.0 4.8255e-05
17850.0 4.8034e-05
17870.0 4.7817e-05
17890.0 4.7598e-05
17910.0 4.7384e-05
17930.0 4.7175e-05
17950.0 4.6966e-05
17970.0 4.6758e-05
17990.0 4.6556e-05
18010.0 4.6356e-05
18030.0 4.6154e-05
18050.0 4.5957e-05
18070.0 4.5764e-05
18090.0 4.5572e-05
18110.0 4.538e-05
18130.0 4.5194e-05
18150.0 4.501e-05
18170.0 4.4825e-05
18190.0 4.4645e-05
18210.0 4.4468e-05
18230.0 4.429e-05
18250.0 4.4113e-05
18270.0 4.3942e-05
18290.0 4.3773e-05
18310.0 4.3603e-05
18330.0 4.3437e-05
18350.0 4.3274e-05
18370.0 4.311e-05
18390.0 4.2949e-05
18410.0 4.2791e-05
18430.0 4.2635e-05
18450.0 4.2477e-05
18470.0 4.2325e-05
18490.0 4.2175e-05
18510.0 4.2025e-05
18530.0 4.1876e-05
18550.0 4.1732e-05
18570.0 4.1588e-05
18590.0 4.1443e-05
18610.0 4.1302e-05
18630.0 4.1164e-05
18650.0 4.1025e-05
18670.0 4.0887e-05
18690.0 4.0755e-05
18710.0 4.0622e-05
18730.0 4.0489e-05
18750.0 4.036e-05
18770.0 4.0234e-05
18790.0 4.0104e-05
18810.0 3.9977e-05
18830.0 3.9855e-05
18850.0 3.9732e-05
18870.0 3.9609e-05
18890.0 3.949e-05
18910.0 3.9373e-05
18930.0 3.9254e-05
18950.0 3.9138e-05
18970.0 3.9025e-05
18990.0 3.8911e-05
19010.0 3.8796e-05
19030.0 3.8687e-05
19050.0 3.8578e-05
19070.0 3.8468e-05
19090.0 3.8361e-05
19110.0 3.8257e-05
19130.0 3.8151e-05
19150.0 3.8045e-05
19170.0 3.7943e-05
19190.0 3.7843e-05
19210.0 3.774e-05
19230.0 3.764e-05
19250.0 3.7544e-05
19270.0 3.7446e-05
19290.0 3.7348e-05
19310.0 3.7254e-05
19330.0 3.716e-05
19350.0 3.7064e-05
19370.0 3.6972e-05
19390.0 3.6882e-05
19410.0 3.679e-05
19430.0 3.6699e-05
19450.0 3.6612e-05
19470.0 3.6524e-05
19490.0 3.6436e-05
19510.0 3.6349e-05
19530.0 3.6266e-05
19550.0 3.6179e-05
19570.0 3.6094e-05
19590.0 3.6012e-05
19610.0 3.593e-05
19630.0 3.5847e-05
19650.0 3.5767e-05
19670.0 3.5689e-05
19690.0 3.5608e-05
19710.0 3.5528e-05
19730.0 3.5452e-05
19750.0 3.5374e-05
19770.0 3.5295e-05
19790.0 3.522e-05
19810.0 3.5146e-05
19830.0 3.5069e-05
19850.0 3.4992e-05
19870.0 3.4916e-05
19890.0 3.4832e-05
19910.0 3.4735e-05
19930.0 3.4623e-05
19950.0 3.4485e-05
19970.0 3.4302e-05
19990.0 3.4067e-05
20010.0 3.3788e-05
20030.0 3.344e-05
20050.0 3.3023e-05
20070.0 3.2567e-05
20090.0 3.2074e-05
20110.0 3.1516e-05
20130.0 3.0951e-05
20150.0 3.0392e-05
20170.0 2.9814e-05
20190.0 2.9227e-05
20210.0 2.8674e-05
20230.0 2.8132e-05
20250.0 2.7587e-05
20270.0 2.7079e-05
20290.0 2.6611e-05
20310.0 2.6164e-05
20330.0 2.5741e-05
20350.0 2.5388e-05
20370.0 2.5071e-05
20390.0 2.4792e-05
20410.0 2.4567e-05
20430.0 2.4395e-05
20450.0 2.4261e-05
20470.0 2.4179e-05
20490.0 2.4144e-05
20510.0 2.4152e-05
20530.0 2.4203e-05
20550.0 2.4292e-05
20570.0 2.4409e-05
20590.0 2.4559e-05
20610.0 2.4735e-05
20630.0 2.4924e-05
20650.0 2.5128e-05
20670.0 2.5351e-05
20690.0 2.5568e-05
20710.0 2.578e-05
20730.0 2.5992e-05
20750.0 2.6192e-05
20770.0 2.6369e-05
20790.0 2.6531e-05
20810.0 2.6674e-05
20830.0 2.6788e-05
20850.0 2.6876e-05
20870.0 2.6939e-05
20890.0 2.6971e-05
20910.0 2.6975e-05
20930.0 2.6953e-05
20950.0 2.6902e-05
20970.0 2.6829e-05
20990.0 2.6735e-05
21010.0 2.6615e-05
21030.0 2.6477e-05
21050.0 2.6329e-05
21070.0 2.6165e-05
21090.0 2.5984e-05
21110.0 2.5804e-05
21130.0 2.5622e-05
21150.0 2.5431e-05
21170.0 2.5242e-05
21190.0 2.5065e-05
21210.0 2.4886e-05
21230.0 2.4714e-05
21250.0 2.456e-05
21270.0 2.4421e-05
21290.0 2.4293e-05
21310.0 2.4185e-05
21330.0 2.4101e-05
21350.0 2.4034e-05
21370.0 2.3988e-05
21390.0 2.3966e-05
21410.0 2.3966e-05
21430.0 2.3989e-05
21450.0 2.4034e-05
21470.0 2.4098e-05
21490.0 2.4183e-05
21510.0 2.4288e-05
21530.0 2.4406e-05
21550.0 2.4539e-05
21570.0 2.4692e-05
21590.0 2.4854e-05
21610.0 2.5022e-05
21630.0 2.5205e-05
21650.0 2.5401e-05
21670.0 2.5592e-05
21690.0 2.5791e-05
21710.0 2.6001e-05
21730.0 2.6211e-05
21750.0 2.6417e-05
21770.0 2.6638e-05
21790.0 2.6859e-05
21810.0 2.7075e-05
21830.0 2.7294e-05
21850.0 2.7521e-05
21870.0 2.7742e-05
21890.0 2.7955e-05
21910.0 2.8175e-05
21930.0 2.8392e-05
21950.0 2.8598e-05
21970.0 2.8801e-05
21990.0 2.9007e-05
22010.0 2.9195e-05
22030.0 2.937e-05
22050.0 2.9538e-05
22070.0 2.969e-05
22090.0 2.982e-05
22110.0 2.9935e-05
22130.0 3.003e-05
22150.0 3.0099e-05
22170.0 3.0143e-05
22190.0 3.0161e-05
22210.0 3.0149e-05
22230.0 3.0108e-05
22250.0 3.0038e-05
22270.0 2.9933e-05
22290.0 2.9802e-05
22310.0 2.9644e-05
22330.0 2.9446e-05
22350.0 2.9222e-05
22370.0 2.8979e-05
22390.0 2.8705e-05
22410.0 2.8398e-05
22430.0 2.8085e-05
22450.0 2.7756e-05
22470.0 2.74e-05
22490.0 2.7035e-05
22510.0 2.6674e-05
22530.0 2.6292e-05
22550.0 2.5898e-05
22570.0 2.5522e-05
22590.0 2.5149e-05
22610.0 2.4768e-05
22630.0 2.44e-05
22650.0 2.4057e-05
