#lamb flux
1010.0 0.00052072
1030.0 0.00055495
1050.0 0.00062387
1070.0 0.00070116
1090.0 0.00078198
1110.0 0.00086507
1130.0 0.0009486
1150.0 0.001036
1170.0 0.0011253
1190.0 0.0012079
1210.0 0.0012893
1230.0 0.0013706
1250.0 0.0014478
1270.0 0.001518
1290.0 0.0015884
1310.0 0.0016539
1330.0 0.0017113
1350.0 0.0017661
1370.0 0.0018208
1390.0 0.0018719
1410.0 0.0019207
1430.0 0.0019746
1450.0 0.0020315
1470.0 0.0020906
1490.0 0.0021569
1510.0 0.002235
1530.0 0.002318
1550.0 0.0024101
1570.0 0.002516
1590.0 0.002634
1610.0 0.0027616
1630.0 0.0029073
1650.0 0.0030687
1670.0 0.0032411
1690.0 0.0034257
1710.0 0.0036263
1730.0 0.0038393
1750.0 0.0040566
1770.0 0.0042848
1790.0 0.0045212
1810.0 0.0047576
1830.0 0.0049922
1850.0 0.0052304
1870.0 0.0054592
1890.0 0.0056739
1910.0 0.0058769
1930.0 0.0060654
1950.0 0.006228
1970.0 0.0063658
1990.0 0.0064826
2010.0 0.0065703
2030.0 0.0066258
2050.0 0.0066569
2070.0 0.0066633
2090.0 0.0066368
2110.0 0.006586
2130.0 0.0065165
2150.0 0.006426
2170.0 0.0063157
2190.0 0.0061968
2210.0 0.0060696
2230.0 0.0059334
2250.0 0.0057949
2270.0 0.005661
2290.0 0.0055282
2310.0 0.0053986
2330.0 0.00528
2350.0 0.0051724
2370.0 0.0050744
2390.0 0.0049913
2410.0 0.0049278
2430.0 0.0048808
2450.0 0.0048531
2470.0 0.0048514
2490.0 0.0048784
2510.0 0.0049301
2530.0 0.0050221
2550.0 0.0051753
2570.0 0.0054064
2590.0 0.0057412
2610.0 0.006259
2630.0 0.0069801
2650.0 0.007879
2670.0 0.0089802
2690.0 0.010264
2710.0 0.011583
2730.0 0.012863
2750.0 0.014122
2770.0 0.015264
2790.0 0.016271
2810.0 0.017214
2830.0 0.018158
2850.0 0.019079
2870.0 0.020044
2890.0 0.021102
2910.0 0.022242
2930.0 0.023438
2950.0 0.024745
2970.0 0.026159
2990.0 0.027634
3010.0 0.033074
3030.0 0.034967
3050.0 0.036942
3070.0 0.038909
3090.0 0.0409
3110.0 0.042804
3130.0 0.044468
3150.0 0.04583
3170.0 0.046696
3190.0 0.048177
3210.0 0.053137
3230.0 0.060809
3250.0 0.063998
3270.0 0.06064
3290.0 0.05531
3310.0 0.052528
3330.0 0.051391
3350.0 0.051306
3370.0 0.051576
3390.0 0.052209
3410.0 0.052539
3430.0 0.050898
3450.0 0.050312
3470.0 0.05015
3490.0 0.056149
3510.0 0.073932
3530.0 0.091725
3550.0 0.10452
3570.0 0.11666
3590.0 0.12367
3610.0 0.12287
3630.0 0.12065
3650.0 0.12684
3670.0 0.14476
3690.0 0.16662
3710.0 0.18591
3730.0 0.20197
3750.0 0.21627
3770.0 0.21368
3790.0 0.19886
3810.0 0.18402
3830.0 0.16963
3850.0 0.1638
3870.0 0.17161
3890.0 0.18846
3910.0 0.20573
3930.0 0.22444
3950.0 0.25172
3970.0 0.27144
3990.0 0.26308
4010.0 0.23876
4030.0 0.2098
4050.0 0.19214
4070.0 0.18456
4090.0 0.18086
4110.0 0.18335
4130.0 0.18355
4150.0 0.18437
4170.0 0.19205
4190.0 0.20497
4210.0 0.20477
4230.0 0.20178
4250.0 0.20231
4270.0 0.20817
4290.0 0.21904
4310.0 0.22936
4330.0 0.2233
4350.0 0.20365
4370.0 0.18435
4390.0 0.16517
4410.0 0.14603
4430.0 0.13846
4450.0 0.14126
4470.0 0.14724
4490.0 0.15744
4510.0 0.17965
4530.0 0.22571
4550.0 0.29411
4570.0 0.34374
4590.0 0.37932
4610.0 0.43133
4630.0 0.47121
4650.0 0.45616
4670.0 0.39874
4690.0 0.33844
4710.0 0.29681
4730.0 0.26974
4750.0 0.24326
4770.0 0.22349
4790.0 0.23013
4810.0 0.24832
4830.0 0.25557
4850.0 0.24996
4870.0 0.25609
4890.0 0.27375
4910.0 0.28985
4930.0 0.30025
4950.0 0.30204
4970.0 0.2899
4990.0 0.26461
5010.0 0.23686
5030.0 0.21366
5050.0 0.19827
5070.0 0.18783
5090.0 0.17975
5110.0 0.1773
5130.0 0.17722
5150.0 0.18016
5170.0 0.19344
5190.0 0.2149
5210.0 0.24145
5230.0 0.26306
5250.0 0.28047
5270.0 0.29989
5290.0 0.31977
5310.0 0.33018
5330.0 0.32713
5350.0 0.3156
5370.0 0.31014
5390.0 0.31811
5410.0 0.33622
5430.0 0.35473
5450.0 0.36914
5470.0 0.37621
5490.0 0.37254
5510.0 0.3638
5530.0 0.35486
5550.0 0.34602
5570.0 0.33482
5590.0 0.32241
5610.0 0.30834
5630.0 0.28932
5650.0 0.26502
5670.0 0.24297
5690.0 0.22876
5710.0 0.21943
5730.0 0.20916
5750.0 0.20119
5770.0 0.19715
5790.0 0.19526
5810.0 0.1914
5830.0 0.18783
5850.0 0.18422
5870.0 0.17655
5890.0 0.16813
5910.0 0.15873
5930.0 0.1435
5950.0 0.12676
5970.0 0.11439
5990.0 0.10711
6010.0 0.10317
6030.0 0.09972
6050.0 0.097979
6070.0 0.1019
6090.0 0.10767
6110.0 0.11049
6130.0 0.10955
6150.0 0.10743
6170.0 0.10627
6190.0 0.10501
6210.0 0.10141
6230.0 0.094579
6250.0 0.087954
6270.0 0.084007
6290.0 0.081454
6310.0 0.083274
6330.0 0.090293
6350.0 0.099114
6370.0 0.10546
6390.0 0.11058
6410.0 0.1167
6430.0 0.12138
6450.0 0.12467
6470.0 0.12787
6490.0 0.13101
6510.0 0.13323
6530.0 0.13413
6550.0 0.13489
6570.0 0.13304
6590.0 0.12817
6610.0 0.12345
6630.0 0.11934
6650.0 0.11402
6670.0 0.10772
6690.0 0.10281
6710.0 0.099885
6730.0 0.096953
6750.0 0.094803
6770.0 0.094728
6790.0 0.094799
6810.0 0.093185
6830.0 0.091318
6850.0 0.091877
6870.0 0.092369
6890.0 0.090776
6910.0 0.089935
6930.0 0.089421
6950.0 0.087801
6970.0 0.085446
6990.0 0.083032
7010.0 0.080963
7030.0 0.078388
7050.0 0.073877
7070.0 0.069032
7090.0 0.068118
7110.0 0.070609
7130.0 0.073333
7150.0 0.075297
7170.0 0.077525
7190.0 0.079396
7210.0 0.079098
7230.0 0.078995
7250.0 0.080434
7270.0 0.079737
7290.0 0.078137
7310.0 0.078185
7330.0 0.080515
7350.0 0.083995
7370.0 0.08623
7390.0 0.087773
7410.0 0.08934
7430.0 0.089371
7450.0 0.088063
7470.0 0.086431
7490.0 0.082924
7510.0 0.079971
7530.0 0.08008
7550.0 0.080204
7570.0 0.080343
7590.0 0.081621
7610.0 0.082673
7630.0 0.084176
7650.0 0.088466
7670.0 0.094116
7690.0 0.099637
7710.0 0.10405
7730.0 0.10821
7750.0 0.11245
7770.0 0.11657
7790.0 0.12044
7810.0 0.12256
7830.0 0.12102
7850.0 0.11782
7870.0 0.11441
7890.0 0.11141
7910.0 0.11082
7930.0 0.11003
7950.0 0.10853
7970.0 0.10662
7990.0 0.10606
8010.0 0.10048
8030.0 0.10076
8050.0 0.10084
8070.0 0.10024
8090.0 0.099743
8110.0 0.10002
8130.0 0.10096
8150.0 0.1011
8170.0 0.10068
8190.0 0.098413
8210.0 0.093849
8230.0 0.089557
8250.0 0.087847
8270.0 0.084853
8290.0 0.078705
8310.0 0.072593
8330.0 0.068756
8350.0 0.067023
8370.0 0.069522
8390.0 0.075352
8410.0 0.080892
8430.0 0.086451
8450.0 0.093547
8470.0 0.099955
8490.0 0.107
8510.0 0.11408
8530.0 0.12109
8550.0 0.1269
8570.0 0.13138
8590.0 0.13504
8610.0 0.1387
8630.0 0.14
8650.0 0.13813
8670.0 0.13904
8690.0 0.1446
8710.0 0.15167
8730.0 0.15441
8750.0 0.15274
8770.0 0.15346
8790.0 0.15396
8810.0 0.1503
8830.0 0.14002
8850.0 0.12711
8870.0 0.11776
8890.0 0.1145
8910.0 0.11074
8930.0 0.10355
8950.0 0.09729
8970.0 0.095531
8990.0 0.096916
9010.0 0.096903
9030.0 0.095824
9050.0 0.095045
9070.0 0.094523
9090.0 0.09404
9110.0 0.093567
9130.0 0.093096
9150.0 0.092632
9170.0 0.092166
9190.0 0.091724
9210.0 0.091317
9230.0 0.090845
9250.0 0.090389
9270.0 0.089941
9290.0 0.089503
9310.0 0.089069
9330.0 0.088641
9350.0 0.08822
9370.0 0.087802
9390.0 0.087387
9410.0 0.086976
9430.0 0.086554
9450.0 0.086056
9470.0 0.085589
9490.0 0.08528
9510.0 0.084929
9530.0 0.084575
9550.0 0.084203
9570.0 0.083828
9590.0 0.083459
9610.0 0.083088
9630.0 0.082714
9650.0 0.082344
9670.0 0.081986
9690.0 0.081621
9710.0 0.081257
9730.0 0.080903
9750.0 0.080549
9770.0 0.080186
9790.0 0.079834
9810.0 0.079488
9830.0 0.079134
9850.0 0.078771
9870.0 0.078432
9890.0 0.078091
9910.0 0.077743
9930.0 0.0774
9950.0 0.076983
9970.0 0.076658
9990.0 0.076323
10010.0 0.075982
10030.0 0.07564
10050.0 0.075305
10070.0 0.074972
10090.0 0.07464
10110.0 0.074265
10130.0 0.073758
10150.0 0.073437
10170.0 0.073144
10190.0 0.072811
10210.0 0.072484
10230.0 0.072153
10250.0 0.07179
10270.0 0.071425
10290.0 0.071076
10310.0 0.070702
10330.0 0.070307
10350.0 0.069937
10370.0 0.069564
10390.0 0.069167
10410.0 0.06877
10430.0 0.068396
10450.0 0.067996
10470.0 0.06758
10490.0 0.067181
10510.0 0.066781
10530.0 0.06634
10550.0 0.065911
10570.0 0.065499
10590.0 0.065063
10610.0 0.064611
10630.0 0.064179
10650.0 0.063739
10670.0 0.063264
10690.0 0.062799
10710.0 0.062344
10730.0 0.061862
10750.0 0.061356
10770.0 0.060884
10790.0 0.060398
10810.0 0.059884
10830.0 0.059377
10850.0 0.058885
10870.0 0.058347
10890.0 0.057804
10910.0 0.057282
10930.0 0.056748
10950.0 0.056187
10970.0 0.055639
10990.0 0.055113
11010.0 0.05421
11030.0 0.053621
11050.0 0.053068
11070.0 0.052523
11090.0 0.051962
11110.0 0.051452
11130.0 0.050968
11150.0 0.050487
11170.0 0.050026
11190.0 0.049609
11210.0 0.049204
11230.0 0.048811
11250.0 0.048456
11270.0 0.048131
11290.0 0.047815
11310.0 0.047521
11330.0 0.047264
11350.0 0.047015
11370.0 0.046773
11390.0 0.046546
11410.0 0.046325
11430.0 0.046088
11450.0 0.045847
11470.0 0.045601
11490.0 0.045331
11510.0 0.04503
11530.0 0.044717
11550.0 0.044381
11570.0 0.044004
11590.0 0.043601
11610.0 0.043183
11630.0 0.042722
11650.0 0.042221
11670.0 0.041714
11690.0 0.04118
11710.0 0.040602
11730.0 0.040003
11750.0 0.0394
11770.0 0.03875
11790.0 0.038065
11810.0 0.037378
11830.0 0.03667
11850.0 0.035905
11870.0 0.035145
11890.0 0.034397
11910.0 0.033623
11930.0 0.032839
11950.0 0.032091
11970.0 0.031349
11990.0 0.030596
12010.0 0.029885
12030.0 0.029215
12050.0 0.028557
12070.0 0.027921
12090.0 0.027356
12110.0 0.026819
12130.0 0.026307
12150.0 0.025847
12170.0 0.025438
12190.0 0.025052
12210.0 0.024716
12230.0 0.024436
12250.0 0.024199
12270.0 0.024005
12290.0 0.023861
12310.0 0.023762
12330.0 0.023702
12350.0 0.023681
12370.0 0.02369
12390.0 0.023729
12410.0 0.023798
12430.0 0.023878
12450.0 0.02397
12470.0 0.024076
12490.0 0.024188
12510.0 0.024293
12530.0 0.024402
12550.0 0.02451
12570.0 0.024604
12590.0 0.024685
12610.0 0.024758
12630.0 0.024811
12650.0 0.024836
12670.0 0.024838
12690.0 0.024812
12710.0 0.024753
12730.0 0.024662
12750.0 0.024534
12770.0 0.024371
12790.0 0.024178
12810.0 0.023952
12830.0 0.023692
12850.0 0.023418
12870.0 0.023128
12890.0 0.022817
12910.0 0.022502
12930.0 0.022191
12950.0 0.021873
12970.0 0.021555
12990.0 0.021258
13010.0 0.02097
13030.0 0.020686
13050.0 0.020418
13070.0 0.020169
13090.0 0.019925
13110.0 0.01969
13130.0 0.019473
13150.0 0.019265
13170.0 0.01906
13190.0 0.018871
13210.0 0.018694
13230.0 0.018522
13250.0 0.018359
13270.0 0.018207
13290.0 0.018061
13310.0 0.017918
13330.0 0.017782
13350.0 0.017652
13370.0 0.017521
13390.0 0.01739
13410.0 0.017263
13430.0 0.017133
13450.0 0.016997
13470.0 0.01686
13490.0 0.016721
13510.0 0.01657
13530.0 0.016414
13550.0 0.016258
13570.0 0.016095
13590.0 0.015924
13610.0 0.015753
13630.0 0.015583
13650.0 0.015405
13670.0 0.015227
13690.0 0.015053
13710.0 0.014878
13730.0 0.014696
13750.0 0.014525
13770.0 0.014356
13790.0 0.014185
13810.0 0.014018
13830.0 0.01386
13850.0 0.013701
13870.0 0.013543
13890.0 0.013395
13910.0 0.013253
13930.0 0.013113
13950.0 0.01298
13970.0 0.01286
13990.0 0.012744
14010.0 0.012634
14030.0 0.012535
14050.0 0.012443
14070.0 0.012352
14090.0 0.01227
14110.0 0.012195
14130.0 0.012123
14150.0 0.012053
14170.0 0.01199
14190.0 0.011929
14210.0 0.011869
14230.0 0.011812
14250.0 0.011758
14270.0 0.011703
14290.0 0.011649
14310.0 0.011599
14330.0 0.01155
14350.0 0.011499
14370.0 0.011451
14390.0 0.011405
14410.0 0.011358
14430.0 0.011311
14450.0 0.011267
14470.0 0.011223
14490.0 0.011178
14510.0 0.011134
14530.0 0.011093
14550.0 0.01105
14570.0 0.011006
14590.0 0.010963
14610.0 0.010919
14630.0 0.010872
14650.0 0.010827
14670.0 0.010783
14690.0 0.010741
14710.0 0.010702
14730.0 0.010674
14750.0 0.010656
14770.0 0.010653
14790.0 0.010669
14810.0 0.010705
14830.0 0.01077
14850.0 0.010864
14870.0 0.010984
14890.0 0.011132
14910.0 0.011309
14930.0 0.011497
14950.0 0.011688
14970.0 0.011882
14990.0 0.012059
15010.0 0.012209
15030.0 0.012334
15050.0 0.012434
15070.0 0.012506
15090.0 0.01256
15110.0 0.012602
15130.0 0.012636
15150.0 0.012666
15170.0 0.012694
15190.0 0.012721
15210.0 0.012749
15230.0 0.012777
15250.0 0.012806
15270.0 0.012835
15290.0 0.012865
15310.0 0.012896
15330.0 0.012927
15350.0 0.012958
15370.0 0.012991
15390.0 0.013023
15410.0 0.013057
15430.0 0.013091
15450.0 0.013125
15470.0 0.01316
15490.0 0.013196
15510.0 0.013232
15530.0 0.013269
15550.0 0.013306
15570.0 0.013343
15590.0 0.013382
15610.0 0.01342
15630.0 0.013459
15650.0 0.013499
15670.0 0.013539
15690.0 0.013579
15710.0 0.01362
15730.0 0.013662
15750.0 0.013703
15770.0 0.013746
15790.0 0.013788
15810.0 0.013831
15830.0 0.013874
15850.0 0.013918
15870.0 0.013962
15890.0 0.014006
15910.0 0.014051
15930.0 0.014096
15950.0 0.014141
15970.0 0.014187
15990.0 0.014233
16010.0 0.014279
16030.0 0.014325
16050.0 0.014372
16070.0 0.014419
16090.0 0.014465
16110.0 0.014513
16130.0 0.01456
16150.0 0.014608
16170.0 0.014655
16190.0 0.014703
16210.0 0.014751
16230.0 0.014799
16250.0 0.014847
16270.0 0.014895
16290.0 0.014943
16310.0 0.014991
16330.0 0.01504
16350.0 0.015088
16370.0 0.015136
16390.0 0.015184
16410.0 0.015232
16430.0 0.01528
16450.0 0.015328
16470.0 0.015376
16490.0 0.015424
16510.0 0.015471
16530.0 0.015519
16550.0 0.015566
16570.0 0.015613
16590.0 0.01566
16610.0 0.015706
16630.0 0.015753
16650.0 0.015799
16670.0 0.015844
16690.0 0.01589
16710.0 0.015935
16730.0 0.01598
16750.0 0.016024
16770.0 0.016068
16790.0 0.016112
16810.0 0.016155
16830.0 0.016198
16850.0 0.016241
16870.0 0.016283
16890.0 0.016324
16910.0 0.016365
16930.0 0.016405
16950.0 0.016445
16970.0 0.016485
16990.0 0.016523
17010.0 0.016562
17030.0 0.016599
17050.0 0.016636
17070.0 0.016672
17090.0 0.016708
17110.0 0.016743
17130.0 0.016777
17150.0 0.016811
17170.0 0.016844
17190.0 0.016876
17210.0 0.016907
17230.0 0.016938
17250.0 0.016967
17270.0 0.016996
17290.0 0.017025
17310.0 0.017052
17330.0 0.017079
17350.0 0.017104
17370.0 0.017129
17390.0 0.017153
17410.0 0.017176
17430.0 0.017198
17450.0 0.017219
17470.0 0.01724
17490.0 0.017259
17510.0 0.017278
17530.0 0.017295
17550.0 0.017311
17570.0 0.017327
17590.0 0.017342
17610.0 0.017355
17630.0 0.017368
17650.0 0.017379
17670.0 0.01739
17690.0 0.017399
17710.0 0.017407
17730.0 0.017415
17750.0 0.017421
17770.0 0.017426
17790.0 0.017431
17810.0 0.017434
17830.0 0.017436
17850.0 0.017437
17870.0 0.017437
17890.0 0.017436
17910.0 0.017434
17930.0 0.01743
17950.0 0.017426
17970.0 0.01742
17990.0 0.017414
18010.0 0.017406
18030.0 0.017397
18050.0 0.017388
18070.0 0.017377
18090.0 0.017365
18110.0 0.017351
18130.0 0.017337
18150.0 0.017322
18170.0 0.017306
18190.0 0.017288
18210.0 0.01727
18230.0 0.01725
18250.0 0.017229
18270.0 0.017207
18290.0 0.017185
18310.0 0.017161
18330.0 0.017136
18350.0 0.01711
18370.0 0.017083
18390.0 0.017055
18410.0 0.017026
18430.0 0.016995
18450.0 0.016964
18470.0 0.016932
18490.0 0.016899
18510.0 0.016865
18530.0 0.01683
18550.0 0.016794
18570.0 0.016757
18590.0 0.016719
18610.0 0.01668
18630.0 0.01664
18650.0 0.016599
18670.0 0.016557
18690.0 0.016514
18710.0 0.016471
18730.0 0.016426
18750.0 0.016381
18770.0 0.016335
18790.0 0.016288
18810.0 0.01624
18830.0 0.016191
18850.0 0.016142
18870.0 0.016091
18890.0 0.01604
18910.0 0.015989
18930.0 0.015936
18950.0 0.015882
18970.0 0.015828
18990.0 0.015773
19010.0 0.015718
19030.0 0.015662
19050.0 0.015605
19070.0 0.015547
19090.0 0.015489
19110.0 0.01543
19130.0 0.01537
19150.0 0.01531
19170.0 0.015249
19190.0 0.015188
19210.0 0.015126
19230.0 0.015063
19250.0 0.015
19270.0 0.014937
19290.0 0.014872
19310.0 0.014808
19330.0 0.014743
19350.0 0.014677
19370.0 0.014611
19390.0 0.014544
19410.0 0.014477
19430.0 0.01441
19450.0 0.014342
19470.0 0.014274
19490.0 0.014206
19510.0 0.014137
19530.0 0.014067
19550.0 0.013998
19570.0 0.013928
19590.0 0.013858
19610.0 0.013787
19630.0 0.013716
19650.0 0.013645
19670.0 0.013574
19690.0 0.013502
19710.0 0.01343
19730.0 0.013358
19750.0 0.013286
19770.0 0.013214
19790.0 0.013141
19810.0 0.013068
19830.0 0.012995
19850.0 0.012921
19870.0 0.012846
19890.0 0.012768
19910.0 0.012686
19930.0 0.012598
19950.0 0.0125
19970.0 0.012386
19990.0 0.012254
20010.0 0.012107
20030.0 0.011938
20050.0 0.011749
20070.0 0.011549
20090.0 0.011339
20110.0 0.011114
20130.0 0.010891
20150.0 0.010672
20170.0 0.010452
20190.0 0.010232
20210.0 0.010023
20230.0 0.0098195
20250.0 0.0096159
20270.0 0.0094221
20290.0 0.0092387
20310.0 0.0090592
20330.0 0.0088841
20350.0 0.0087251
20370.0 0.0085729
20390.0 0.0084267
20410.0 0.0082912
20430.0 0.0081667
20450.0 0.0080471
20470.0 0.0079367
20490.0 0.0078365
20510.0 0.0077437
20530.0 0.0076572
20550.0 0.0075788
20570.0 0.0075074
20590.0 0.0074409
20610.0 0.0073796
20630.0 0.0073231
20650.0 0.00727
20670.0 0.00722
20690.0 0.0071723
20710.0 0.007126
20730.0 0.0070806
20750.0 0.0070355
20770.0 0.0069897
20790.0 0.006943
20810.0 0.0068949
20830.0 0.0068448
20850.0 0.0067926
20870.0 0.0067376
20890.0 0.0066797
20910.0 0.0066196
20930.0 0.0065565
20950.0 0.0064901
20970.0 0.0064218
20990.0 0.0063516
21010.0 0.0062778
21030.0 0.0062023
21050.0 0.0061262
21070.0 0.0060482
21090.0 0.0059679
21110.0 0.0058886
21130.0 0.0058092
21150.0 0.0057284
21170.0 0.005648
21190.0 0.0055694
21210.0 0.00549
21230.0 0.0054105
21250.0 0.0053336
21270.0 0.0052579
21290.0 0.0051823
21310.0 0.0051085
21330.0 0.0050379
21350.0 0.0049678
21370.0 0.0048991
21390.0 0.0048335
21410.0 0.0047701
21430.0 0.0047074
21450.0 0.0046481
21470.0 0.0045918
21490.0 0.0045374
21510.0 0.0044852
21530.0 0.0044362
21550.0 0.0043893
21570.0 0.0043443
21590.0 0.0043018
21610.0 0.0042615
21630.0 0.0042227
21650.0 0.0041855
21670.0 0.0041501
21690.0 0.0041157
21710.0 0.0040823
21730.0 0.0040498
21750.0 0.0040179
21770.0 0.0039864
21790.0 0.0039553
21810.0 0.0039244
21830.0 0.0038938
21850.0 0.0038631
21870.0 0.0038325
21890.0 0.003802
21910.0 0.0037713
21930.0 0.0037405
21950.0 0.0037098
21970.0 0.0036789
21990.0 0.0036475
22010.0 0.0036161
22030.0 0.0035845
22050.0 0.0035523
22070.0 0.0035197
22090.0 0.0034869
22110.0 0.0034534
22130.0 0.003419
22150.0 0.0033843
22170.0 0.0033491
22190.0 0.0033126
22210.0 0.0032754
22230.0 0.0032381
22250.0 0.0031998
22270.0 0.0031605
22290.0 0.0031211
22310.0 0.0030813
22330.0 0.0030399
22350.0 0.0029983
22370.0 0.0029569
22390.0 0.0029146
22410.0 0.0028711
22430.0 0.0028284
22450.0 0.0027856
22470.0 0.0027417
22490.0 0.002698
22510.0 0.0026551
22530.0 0.0026112
22550.0 0.002567
22570.0 0.0025242
22590.0 0.0024819
22610.0 0.0024392
22630.0 0.0023975
22650.0 0.0023577
22670.0 0.002318
22690.0 0.0022791
22710.0 0.0022422
22730.0 0.0022066
22750.0 0.0021712
22770.0 0.002138
22790.0 0.0021069
22810.0 0.0020767
22830.0 0.0020479
22850.0 0.0020212
22870.0 0.0019956
22890.0 0.001971
22910.0 0.001948
22930.0 0.0019264
22950.0 0.0019055
22970.0 0.0018855
22990.0 0.0018669
23010.0 0.0018489
23030.0 0.0018313
23050.0 0.0018146
23070.0 0.0017985
23090.0 0.0017824
23110.0 0.0017668
23130.0 0.0017518
23150.0 0.0017369
23170.0 0.0017221
23190.0 0.0017077
23210.0 0.0016936
23230.0 0.0016793
23250.0 0.0016651
23270.0 0.001651
23290.0 0.0016369
23310.0 0.0016223
23330.0 0.001608
23350.0 0.0015936
23370.0 0.0015788
23390.0 0.0015639
23410.0 0.0015494
23430.0 0.0015346
23450.0 0.0015198
23470.0 0.0015055
23490.0 0.0014915
23510.0 0.0014777
23530.0 0.0014645
23550.0 0.0014523
23570.0 0.0014407
23590.0 0.00143
23610.0 0.0014204
23630.0 0.0014119
23650.0 0.0014045
23670.0 0.0013984
23690.0 0.0013937
23710.0 0.0013904
23730.0 0.0013887
23750.0 0.0013884
23770.0 0.0013897
23790.0 0.0013929
23810.0 0.0013979
23830.0 0.0014042
23850.0 0.0014129
23870.0 0.0014238
23890.0 0.0014357
23910.0 0.0014493
23930.0 0.001465
23950.0 0.0014815
23970.0 0.001498
23990.0 0.0015159
24010.0 0.0015342
24030.0 0.0015515
24050.0 0.0015683
24070.0 0.0015855
24090.0 0.0016008
24110.0 0.0016145
24130.0 0.0016276
24150.0 0.0016395
24170.0 0.0016497
24190.0 0.001659
24210.0 0.0016678
24230.0 0.0016755
24250.0 0.0016823
24270.0 0.0016889
24290.0 0.0016953
24310.0 0.0017009
24330.0 0.0017065
24350.0 0.0017123
24370.0 0.001718
24390.0 0.0017235
24410.0 0.0017299
24430.0 0.0017364
24450.0 0.0017428
24470.0 0.0017497
24490.0 0.0017571
24510.0 0.0017644
24530.0 0.0017717
24550.0 0.0017794
24570.0 0.0017872
24590.0 0.0017946
24610.0 0.0018022
24630.0 0.00181
24650.0 0.0018173
24670.0 0.0018244
24690.0 0.0018317
24710.0 0.001839
24730.0 0.0018459
24750.0 0.0018532
24770.0 0.0018606
24790.0 0.0018674
24810.0 0.0018733
24830.0 0.001877
24850.0 0.0018749
24870.0 0.0018626
24890.0 0.0018322
24910.0 0.0017725
24930.0 0.0016779
24950.0 0.0015418
24970.0 0.0013513
24990.0 0.0011012
