#lamb flux
1010.0 7.1179e-06
1030.0 7.7432e-06
1050.0 8.4813e-06
1070.0 9.3122e-06
1090.0 1.0251e-05
1110.0 1.1214e-05
1130.0 1.2185e-05
1150.0 1.3202e-05
1170.0 1.4251e-05
1190.0 1.5245e-05
1210.0 1.625e-05
1230.0 1.7286e-05
1250.0 1.8299e-05
1270.0 1.9278e-05
1290.0 2.0309e-05
1310.0 2.1334e-05
1330.0 2.2311e-05
1350.0 2.3295e-05
1370.0 2.4309e-05
1390.0 2.5293e-05
1410.0 2.6245e-05
1430.0 2.7241e-05
1450.0 2.8237e-05
1470.0 2.92e-05
1490.0 3.0176e-05
1510.0 3.1212e-05
1530.0 3.2196e-05
1550.0 3.3172e-05
1570.0 3.4186e-05
1590.0 3.5208e-05
1610.0 3.619e-05
1630.0 3.7211e-05
1650.0 3.8265e-05
1670.0 3.929e-05
1690.0 4.0309e-05
1710.0 4.137e-05
1730.0 4.2441e-05
1750.0 4.3453e-05
1770.0 4.4495e-05
1790.0 4.5557e-05
1810.0 4.6583e-05
1830.0 4.7586e-05
1850.0 4.8642e-05
1870.0 4.9661e-05
1890.0 5.0634e-05
1910.0 5.1611e-05
1930.0 5.2594e-05
1950.0 5.351e-05
1970.0 5.4393e-05
1990.0 5.5289e-05
2010.0 5.6143e-05
2030.0 5.6936e-05
2050.0 5.7733e-05
2070.0 5.8529e-05
2090.0 5.9243e-05
2110.0 5.993e-05
2130.0 6.0624e-05
2150.0 6.1279e-05
2170.0 6.1875e-05
2190.0 6.2489e-05
2210.0 6.3095e-05
2230.0 6.3651e-05
2250.0 6.4194e-05
2270.0 6.477e-05
2290.0 6.531e-05
2310.0 6.5809e-05
2330.0 6.6333e-05
2350.0 6.6865e-05
2370.0 6.7362e-05
2390.0 6.7873e-05
2410.0 6.8439e-05
2430.0 6.8994e-05
2450.0 6.9554e-05
2470.0 7.0176e-05
2490.0 7.0871e-05
2510.0 7.161e-05
2530.0 7.2585e-05
2550.0 7.4082e-05
2570.0 7.64e-05
2590.0 7.9933e-05
2610.0 8.5697e-05
2630.0 9.402e-05
2650.0 0.00010456
2670.0 0.00011751
2690.0 0.00013244
2710.0 0.00014724
2730.0 0.00016065
2750.0 0.00017236
2770.0 0.00018067
2790.0 0.0001851
2810.0 0.00018606
2830.0 0.00018363
2850.0 0.00017877
2870.0 0.00017229
2890.0 0.00016445
2910.0 0.00015598
2930.0 0.0001476
2950.0 0.00013879
2970.0 0.00012976
2990.0 0.0001211
3010.0 0.0001638
3030.0 0.000151
3050.0 0.00013835
3070.0 0.00012673
3090.0 0.0001151
3110.0 0.00010399
3130.0 9.4417e-05
3150.0 8.7958e-05
3170.0 8.2804e-05
3190.0 0.00013667
3210.0 0.00038467
3230.0 0.0007864
3250.0 0.00099786
3270.0 0.00088115
3290.0 0.00067634
3310.0 0.00055971
3330.0 0.00052443
3350.0 0.00053851
3370.0 0.00056708
3390.0 0.00059746
3410.0 0.00062815
3430.0 0.00065687
3450.0 0.00068801
3470.0 0.00072188
3490.0 0.00074495
3510.0 0.00072123
3530.0 0.00073668
3550.0 0.00092393
3570.0 0.0011602
3590.0 0.0012813
3610.0 0.0013213
3630.0 0.001354
3650.0 0.0013522
3670.0 0.0014334
3690.0 0.0017153
3710.0 0.0020325
3730.0 0.00224
3750.0 0.0023874
3770.0 0.0024166
3790.0 0.0023231
3810.0 0.0021474
3830.0 0.0018775
3850.0 0.0015916
3870.0 0.0014441
3890.0 0.0016154
3910.0 0.0020434
3930.0 0.0024714
3950.0 0.0027257
3970.0 0.0028333
3990.0 0.0029515
4010.0 0.0030198
4030.0 0.0027245
4050.0 0.0021501
4070.0 0.0018555
4090.0 0.0019558
4110.0 0.0021532
4130.0 0.002264
4150.0 0.0022761
4170.0 0.0022242
4190.0 0.0021864
4210.0 0.0022418
4230.0 0.0023725
4250.0 0.0024789
4270.0 0.0025184
4290.0 0.0024837
4310.0 0.0024997
4330.0 0.0026514
4350.0 0.0028309
4370.0 0.0028178
4390.0 0.0026134
4410.0 0.0023067
4430.0 0.0019311
4450.0 0.0016659
4470.0 0.0016573
4490.0 0.0018103
4510.0 0.0020059
4530.0 0.0022175
4550.0 0.0025487
4570.0 0.003185
4590.0 0.0040922
4610.0 0.0048337
4630.0 0.0052074
4650.0 0.005515
4670.0 0.0058138
4690.0 0.0056863
4710.0 0.0049589
4730.0 0.0039969
4750.0 0.0032218
4770.0 0.0027542
4790.0 0.0025819
4810.0 0.0025813
4830.0 0.0027618
4850.0 0.0031227
4870.0 0.0034458
4890.0 0.0035512
4910.0 0.0036346
4930.0 0.0039758
4950.0 0.004436
4970.0 0.0046735
4990.0 0.0045443
5010.0 0.0040702
5030.0 0.0034087
5050.0 0.002849
5070.0 0.0025067
5090.0 0.0023662
5110.0 0.0023663
5130.0 0.0023891
5150.0 0.0023678
5170.0 0.0023156
5190.0 0.0023411
5210.0 0.0025391
5230.0 0.0029131
5250.0 0.0034667
5270.0 0.0040631
5290.0 0.0045101
5310.0 0.0048987
5330.0 0.0053824
5350.0 0.0057821
5370.0 0.0058307
5390.0 0.0056282
5410.0 0.0055019
5430.0 0.0057918
5450.0 0.00661
5470.0 0.0076268
5490.0 0.0084064
5510.0 0.0087741
5530.0 0.0088366
5550.0 0.008723
5570.0 0.0085368
5590.0 0.008363
5610.0 0.0082758
5630.0 0.0083299
5650.0 0.0083252
5670.0 0.0079678
5690.0 0.0073595
5710.0 0.0068047
5730.0 0.0064296
5750.0 0.0063776
5770.0 0.0066495
5790.0 0.0069586
5810.0 0.0071581
5830.0 0.0072999
5850.0 0.0073046
5870.0 0.0072188
5890.0 0.0073066
5910.0 0.0075571
5930.0 0.0075983
5950.0 0.0072346
5970.0 0.0065319
5990.0 0.0056801
6010.0 0.0050048
6030.0 0.0047934
6050.0 0.0050544
6070.0 0.0052976
6090.0 0.0051198
6110.0 0.0048303
6130.0 0.0049285
6150.0 0.0053446
6170.0 0.0057265
6190.0 0.0059451
6210.0 0.0060129
6230.0 0.0058489
6250.0 0.0053292
6270.0 0.0045868
6290.0 0.0039762
6310.0 0.0037598
6330.0 0.0038741
6350.0 0.004073
6370.0 0.0043288
6390.0 0.004876
6410.0 0.0056985
6430.0 0.0063828
6450.0 0.0067239
6470.0 0.0069127
6490.0 0.0070511
6510.0 0.0071081
6530.0 0.0071462
6550.0 0.0072424
6570.0 0.0073629
6590.0 0.007445
6610.0 0.007356
6630.0 0.0070261
6650.0 0.0065268
6670.0 0.0060511
6690.0 0.0057445
6710.0 0.0055125
6730.0 0.0052669
6750.0 0.0051492
6770.0 0.0052673
6790.0 0.0054365
6810.0 0.0054888
6830.0 0.0054017
6850.0 0.0051903
6870.0 0.004975
6890.0 0.004854
6910.0 0.0048674
6930.0 0.0049499
6950.0 0.0050153
6970.0 0.0050724
6990.0 0.0050565
7010.0 0.0048962
7030.0 0.0045638
7050.0 0.0041309
7070.0 0.0038278
7090.0 0.0037877
7110.0 0.0038497
7130.0 0.0037177
7150.0 0.0034526
7170.0 0.0034187
7190.0 0.003724
7210.0 0.0041519
7230.0 0.0044989
7250.0 0.0046406
7270.0 0.00454
7290.0 0.0043063
7310.0 0.0041276
7330.0 0.0041342
7350.0 0.0042339
7370.0 0.0043146
7390.0 0.0045003
7410.0 0.0048721
7430.0 0.0052978
7450.0 0.0056282
7470.0 0.0057242
7490.0 0.00545
7510.0 0.0050321
7530.0 0.0047635
7550.0 0.0044684
7570.0 0.0041663
7590.0 0.0039964
7610.0 0.0039556
7630.0 0.0040477
7650.0 0.0042807
7670.0 0.0045845
7690.0 0.0048498
7710.0 0.0050215
7730.0 0.0051536
7750.0 0.0052497
7770.0 0.005261
7790.0 0.0052807
7810.0 0.0052294
7830.0 0.0050121
7850.0 0.0047818
7870.0 0.0046317
7890.0 0.0045813
7910.0 0.0045387
7930.0 0.004388
7950.0 0.0041981
7970.0 0.0040053
7990.0 0.0038365
8010.0 0.0036184
8030.0 0.0035873
8050.0 0.0035447
8070.0 0.0034618
8090.0 0.0033931
8110.0 0.0033067
8130.0 0.0032757
8150.0 0.0032183
8170.0 0.0031298
8190.0 0.0030114
8210.0 0.0028833
8230.0 0.0027629
8250.0 0.0027033
8270.0 0.0025219
8290.0 0.002168
8310.0 0.0017832
8330.0 0.0015206
8350.0 0.0014446
8370.0 0.0015848
8390.0 0.0017921
8410.0 0.0018939
8430.0 0.0019462
8450.0 0.0020594
8470.0 0.0022012
8490.0 0.0023978
8510.0 0.0026251
8530.0 0.0028585
8550.0 0.0030346
8570.0 0.0031546
8590.0 0.0032349
8610.0 0.0032663
8630.0 0.0032249
8650.0 0.0031399
8670.0 0.0031146
8690.0 0.0032429
8710.0 0.0034245
8730.0 0.0034927
8750.0 0.003435
8770.0 0.0034375
8790.0 0.0034062
8810.0 0.0032264
8830.0 0.0029661
8850.0 0.0026524
8870.0 0.002412
8890.0 0.0023241
8910.0 0.0022628
8930.0 0.002099
8950.0 0.001925
8970.0 0.0018446
8990.0 0.001833
9010.0 0.0017925
9030.0 0.0017607
9050.0 0.0017444
9070.0 0.0017357
9090.0 0.0017281
9110.0 0.0017207
9130.0 0.0017133
9150.0 0.0017061
9170.0 0.0016987
9190.0 0.0016926
9210.0 0.0016889
9230.0 0.0016805
9250.0 0.0016728
9270.0 0.0016656
9290.0 0.0016588
9310.0 0.0016521
9330.0 0.0016456
9350.0 0.0016394
9370.0 0.0016332
9390.0 0.0016271
9410.0 0.0016211
9430.0 0.0016148
9450.0 0.0016064
9470.0 0.0015988
9490.0 0.0015954
9510.0 0.0015908
9530.0 0.0015861
9550.0 0.001581
9570.0 0.0015758
9590.0 0.0015706
9610.0 0.0015654
9630.0 0.0015601
9650.0 0.001555
9670.0 0.0015499
9690.0 0.0015448
9710.0 0.0015398
9730.0 0.0015348
9750.0 0.0015299
9770.0 0.0015249
9790.0 0.00152
9810.0 0.0015152
9830.0 0.0015103
9850.0 0.0015053
9870.0 0.0015006
9890.0 0.0014958
9910.0 0.0014909
9930.0 0.001486
9950.0 0.0014757
9970.0 0.0014724
9990.0 0.0014688
10010.0 0.0014651
10030.0 0.0014609
10050.0 0.0014562
10070.0 0.0014515
10090.0 0.0014468
10110.0 0.0014414
10130.0 0.0014346
10150.0 0.0014298
10170.0 0.0014252
10190.0 0.0014199
10210.0 0.0014149
10230.0 0.0014099
10250.0 0.0014043
10270.0 0.0013986
10290.0 0.0013933
10310.0 0.0013874
10330.0 0.0013811
10350.0 0.0013752
10370.0 0.0013693
10390.0 0.0013628
10410.0 0.0013563
10430.0 0.0013503
10450.0 0.0013437
10470.0 0.0013367
10490.0 0.00133
10510.0 0.0013233
10530.0 0.0013157
10550.0 0.0013083
10570.0 0.0013012
10590.0 0.0012936
10610.0 0.0012856
10630.0 0.001278
10650.0 0.0012702
10670.0 0.0012616
10690.0 0.0012532
10710.0 0.0012449
10730.0 0.0012361
10750.0 0.0012267
10770.0 0.001218
10790.0 0.0012089
10810.0 0.0011992
10830.0 0.0011896
10850.0 0.0011803
10870.0 0.00117
10890.0 0.0011595
10910.0 0.0011494
10930.0 0.0011389
10950.0 0.0011277
10970.0 0.0011166
10990.0 0.0011058
11010.0 0.0011844
11030.0 0.0011724
11050.0 0.0011608
11070.0 0.0011491
11090.0 0.0011365
11110.0 0.0011248
11130.0 0.0011133
11150.0 0.0011014
11170.0 0.0010896
11190.0 0.0010784
11210.0 0.0010671
11230.0 0.0010555
11250.0 0.0010444
11270.0 0.0010338
11290.0 0.0010228
11310.0 0.001012
11330.0 0.0010021
11350.0 0.00099201
11370.0 0.00098179
11390.0 0.00097193
11410.0 0.00096212
11430.0 0.00095149
11450.0 0.0009407
11470.0 0.00092981
11490.0 0.0009181
11510.0 0.00090534
11530.0 0.00089243
11550.0 0.00087894
11570.0 0.00086423
11590.0 0.00084901
11610.0 0.00083372
11630.0 0.00081742
11650.0 0.00080035
11670.0 0.00078377
11690.0 0.00076705
11710.0 0.00074974
11730.0 0.00073263
11750.0 0.00071624
11770.0 0.00069938
11790.0 0.00068247
11810.0 0.00066625
11830.0 0.00065023
11850.0 0.00063364
11870.0 0.00061772
11890.0 0.0006025
11910.0 0.0005871
11930.0 0.00057186
11950.0 0.0005575
11970.0 0.00054341
11990.0 0.00052928
12010.0 0.000516
12030.0 0.00050353
12050.0 0.00049137
12070.0 0.00047971
12090.0 0.00046937
12110.0 0.00045966
12130.0 0.00045057
12150.0 0.00044255
12170.0 0.00043558
12190.0 0.00042929
12210.0 0.00042409
12230.0 0.00042003
12250.0 0.00041693
12270.0 0.00041486
12290.0 0.00041381
12310.0 0.0004136
12330.0 0.00041435
12350.0 0.0004159
12370.0 0.000418
12390.0 0.0004207
12410.0 0.00042417
12430.0 0.00042768
12450.0 0.00043134
12470.0 0.00043532
12490.0 0.0004393
12510.0 0.00044292
12530.0 0.00044655
12550.0 0.00045006
12570.0 0.000453
12590.0 0.00045545
12610.0 0.00045757
12630.0 0.00045903
12650.0 0.00045959
12670.0 0.00045952
12690.0 0.00045866
12710.0 0.00045692
12730.0 0.00045436
12750.0 0.00045093
12770.0 0.00044666
12790.0 0.00044171
12810.0 0.00043602
12830.0 0.00042962
12850.0 0.00042291
12870.0 0.00041587
12890.0 0.00040838
12910.0 0.00040081
12930.0 0.00039334
12950.0 0.00038571
12970.0 0.00037807
12990.0 0.00037085
13010.0 0.0003638
13030.0 0.00035682
13050.0 0.00035014
13070.0 0.00034385
13090.0 0.00033761
13110.0 0.00033155
13130.0 0.00032585
13150.0 0.00032034
13170.0 0.00031485
13190.0 0.00030968
13210.0 0.0003048
13230.0 0.00030001
13250.0 0.00029538
13270.0 0.00029105
13290.0 0.00028686
13310.0 0.00028274
13330.0 0.00027889
13350.0 0.00027525
13370.0 0.00027171
13390.0 0.0002683
13410.0 0.00026517
13430.0 0.00026216
13450.0 0.00025924
13470.0 0.00025649
13490.0 0.0002539
13510.0 0.00025132
13530.0 0.00024884
13550.0 0.00024648
13570.0 0.00024414
13590.0 0.00024179
13610.0 0.0002395
13630.0 0.00023724
13650.0 0.00023493
13670.0 0.00023262
13690.0 0.00023036
13710.0 0.00022808
13730.0 0.00022574
13750.0 0.0002235
13770.0 0.00022131
13790.0 0.00021911
13810.0 0.00021697
13830.0 0.00021494
13850.0 0.00021294
13870.0 0.00021097
13890.0 0.00020912
13910.0 0.00020735
13930.0 0.00020559
13950.0 0.00020389
13970.0 0.0002023
13990.0 0.0002007
14010.0 0.00019911
14030.0 0.00019756
14050.0 0.00019601
14070.0 0.00019437
14090.0 0.00019274
14110.0 0.00019112
14130.0 0.00018943
14150.0 0.00018769
14170.0 0.000186
14190.0 0.00018432
14210.0 0.0001826
14230.0 0.00018096
14250.0 0.00017942
14270.0 0.00017792
14290.0 0.0001765
14310.0 0.00017528
14330.0 0.00017418
14350.0 0.00017318
14370.0 0.00017235
14390.0 0.00017168
14410.0 0.0001711
14430.0 0.00017064
14450.0 0.00017028
14470.0 0.00016999
14490.0 0.00016974
14510.0 0.00016955
14530.0 0.0001694
14550.0 0.00016926
14570.0 0.00016915
14590.0 0.00016909
14610.0 0.00016908
14630.0 0.00016914
14650.0 0.00016932
14670.0 0.00016964
14690.0 0.00017014
14710.0 0.00017088
14730.0 0.00017186
14750.0 0.00017314
14770.0 0.00017481
14790.0 0.00017683
14810.0 0.0001792
14830.0 0.00018216
14850.0 0.00018556
14870.0 0.00018929
14890.0 0.00019346
14910.0 0.00019807
14930.0 0.00020271
14950.0 0.00020725
14970.0 0.00021176
14990.0 0.00021582
15010.0 0.00021923
15030.0 0.0002221
15050.0 0.00022444
15070.0 0.00022617
15090.0 0.00022754
15110.0 0.00022867
15130.0 0.00022964
15150.0 0.00023053
15170.0 0.00023139
15190.0 0.00023224
15210.0 0.00023311
15230.0 0.00023399
15250.0 0.00023488
15270.0 0.0002358
15290.0 0.00023673
15310.0 0.00023768
15330.0 0.00023864
15350.0 0.00023963
15370.0 0.00024063
15390.0 0.00024164
15410.0 0.00024267
15430.0 0.00024372
15450.0 0.00024479
15470.0 0.00024587
15490.0 0.00024697
15510.0 0.00024808
15530.0 0.0002492
15550.0 0.00025034
15570.0 0.0002515
15590.0 0.00025267
15610.0 0.00025385
15630.0 0.00025505
15650.0 0.00025626
15670.0 0.00025748
15690.0 0.00025871
15710.0 0.00025996
15730.0 0.00026121
15750.0 0.00026248
15770.0 0.00026376
15790.0 0.00026505
15810.0 0.00026635
15830.0 0.00026766
15850.0 0.00026899
15870.0 0.00027031
15890.0 0.00027165
15910.0 0.000273
15930.0 0.00027435
15950.0 0.00027571
15970.0 0.00027708
15990.0 0.00027846
16010.0 0.00027984
16030.0 0.00028123
16050.0 0.00028262
16070.0 0.00028402
16090.0 0.00028542
16110.0 0.00028682
16130.0 0.00028823
16150.0 0.00028964
16170.0 0.00029106
16190.0 0.00029247
16210.0 0.00029389
16230.0 0.00029531
16250.0 0.00029673
16270.0 0.00029814
16290.0 0.00029956
16310.0 0.00030098
16330.0 0.00030239
16350.0 0.00030381
16370.0 0.00030521
16390.0 0.00030662
16410.0 0.00030803
16430.0 0.00030942
16450.0 0.00031082
16470.0 0.00031221
16490.0 0.00031359
16510.0 0.00031496
16530.0 0.00031633
16550.0 0.00031769
16570.0 0.00031904
16590.0 0.00032038
16610.0 0.00032172
16630.0 0.00032304
16650.0 0.00032436
16670.0 0.00032566
16690.0 0.00032695
16710.0 0.00032823
16730.0 0.00032949
16750.0 0.00033075
16770.0 0.00033199
16790.0 0.00033321
16810.0 0.00033442
16830.0 0.00033562
16850.0 0.00033679
16870.0 0.00033796
16890.0 0.0003391
16910.0 0.00034023
16930.0 0.00034134
16950.0 0.00034243
16970.0 0.0003435
16990.0 0.00034455
17010.0 0.00034559
17030.0 0.0003466
17050.0 0.00034759
17070.0 0.00034856
17090.0 0.00034951
17110.0 0.00035043
17130.0 0.00035134
17150.0 0.00035222
17170.0 0.00035307
17190.0 0.0003539
17210.0 0.00035471
17230.0 0.00035549
17250.0 0.00035625
17270.0 0.00035698
17290.0 0.00035769
17310.0 0.00035837
17330.0 0.00035902
17350.0 0.00035965
17370.0 0.00036025
17390.0 0.00036082
17410.0 0.00036136
17430.0 0.00036188
17450.0 0.00036237
17470.0 0.00036283
17490.0 0.00036326
17510.0 0.00036366
17530.0 0.00036403
17550.0 0.00036437
17570.0 0.00036469
17590.0 0.00036497
17610.0 0.00036522
17630.0 0.00036545
17650.0 0.00036564
17670.0 0.0003658
17690.0 0.00036593
17710.0 0.00036604
17730.0 0.00036611
17750.0 0.00036615
17770.0 0.00036616
17790.0 0.00036614
17810.0 0.00036609
17830.0 0.00036601
17850.0 0.0003659
17870.0 0.00036576
17890.0 0.00036558
17910.0 0.00036538
17930.0 0.00036515
17950.0 0.00036488
17970.0 0.00036459
17990.0 0.00036427
18010.0 0.00036391
18030.0 0.00036353
18050.0 0.00036311
18070.0 0.00036267
18090.0 0.0003622
18110.0 0.0003617
18130.0 0.00036117
18150.0 0.00036061
18170.0 0.00036003
18190.0 0.00035941
18210.0 0.00035877
18230.0 0.0003581
18250.0 0.0003574
18270.0 0.00035667
18290.0 0.00035592
18310.0 0.00035514
18330.0 0.00035434
18350.0 0.00035351
18370.0 0.00035265
18390.0 0.00035177
18410.0 0.00035087
18430.0 0.00034994
18450.0 0.00034898
18470.0 0.000348
18490.0 0.000347
18510.0 0.00034598
18530.0 0.00034493
18550.0 0.00034386
18570.0 0.00034277
18590.0 0.00034165
18610.0 0.00034052
18630.0 0.00033937
18650.0 0.00033819
18670.0 0.00033699
18690.0 0.00033578
18710.0 0.00033455
18730.0 0.0003333
18750.0 0.00033203
18770.0 0.00033074
18790.0 0.00032943
18810.0 0.00032811
18830.0 0.00032678
18850.0 0.00032542
18870.0 0.00032405
18890.0 0.00032267
18910.0 0.00032127
18930.0 0.00031986
18950.0 0.00031843
18970.0 0.00031699
18990.0 0.00031554
19010.0 0.00031408
19030.0 0.0003126
19050.0 0.00031111
19070.0 0.00030962
19090.0 0.00030811
19110.0 0.00030659
19130.0 0.00030506
19150.0 0.00030352
19170.0 0.00030198
19190.0 0.00030042
19210.0 0.00029886
19230.0 0.00029729
19250.0 0.00029571
19270.0 0.00029413
19290.0 0.00029254
19310.0 0.00029094
19330.0 0.00028934
19350.0 0.00028773
19370.0 0.00028612
19390.0 0.00028451
19410.0 0.00028289
19430.0 0.00028126
19450.0 0.00027964
19470.0 0.00027801
19490.0 0.00027638
19510.0 0.00027475
19530.0 0.00027312
19550.0 0.00027148
19570.0 0.00026984
19590.0 0.00026821
19610.0 0.00026657
19630.0 0.00026493
19650.0 0.0002633
19670.0 0.00026166
19690.0 0.00026002
19710.0 0.00025839
19730.0 0.00025676
19750.0 0.00025513
19770.0 0.0002535
19790.0 0.00025188
19810.0 0.00025025
19830.0 0.00024862
19850.0 0.00024699
19870.0 0.00024534
19890.0 0.00024364
19910.0 0.00024185
19930.0 0.00023993
19950.0 0.00023781
19970.0 0.00023537
19990.0 0.00023255
20010.0 0.0002294
20030.0 0.0002258
20050.0 0.00022177
20070.0 0.00021751
20090.0 0.00021307
20110.0 0.00020829
20130.0 0.00020357
20150.0 0.00019897
20170.0 0.00019435
20190.0 0.00018977
20210.0 0.00018545
20230.0 0.00018126
20250.0 0.00017711
20270.0 0.0001732
20290.0 0.00016953
20310.0 0.00016597
20330.0 0.00016254
20350.0 0.00015947
20370.0 0.00015655
20390.0 0.00015378
20410.0 0.00015123
20430.0 0.00014892
20450.0 0.00014671
20470.0 0.00014469
20490.0 0.00014287
20510.0 0.00014119
20530.0 0.00013963
20550.0 0.00013821
20570.0 0.00013692
20590.0 0.00013571
20610.0 0.00013459
20630.0 0.00013354
20650.0 0.00013254
20670.0 0.00013159
20690.0 0.00013067
20710.0 0.00012976
20730.0 0.00012886
20750.0 0.00012795
20770.0 0.00012702
20790.0 0.00012607
20810.0 0.00012508
20830.0 0.00012406
20850.0 0.000123
20870.0 0.00012188
20890.0 0.00012071
20910.0 0.00011952
20930.0 0.00011827
20950.0 0.00011698
20970.0 0.00011566
20990.0 0.00011433
21010.0 0.00011294
21030.0 0.00011154
21050.0 0.00011015
21070.0 0.00010874
21090.0 0.00010731
21110.0 0.00010592
21130.0 0.00010454
21150.0 0.00010316
21170.0 0.00010179
21190.0 0.00010048
21210.0 9.9164e-05
21230.0 9.7863e-05
21250.0 9.6619e-05
21270.0 9.5408e-05
21290.0 9.4212e-05
21310.0 9.3056e-05
21330.0 9.1961e-05
21350.0 9.0885e-05
21370.0 8.9842e-05
21390.0 8.8854e-05
21410.0 8.7908e-05
21430.0 8.6982e-05
21450.0 8.6112e-05
21470.0 8.5292e-05
21490.0 8.4504e-05
21510.0 8.3754e-05
21530.0 8.305e-05
21550.0 8.238e-05
21570.0 8.1738e-05
21590.0 8.1132e-05
21610.0 8.0556e-05
21630.0 8.0003e-05
21650.0 7.9472e-05
21670.0 7.8964e-05
21690.0 7.8472e-05
21710.0 7.7994e-05
21730.0 7.7529e-05
21750.0 7.7075e-05
21770.0 7.6631e-05
21790.0 7.6196e-05
21810.0 7.5767e-05
21830.0 7.5345e-05
21850.0 7.4931e-05
21870.0 7.4521e-05
21890.0 7.4114e-05
21910.0 7.3713e-05
21930.0 7.3315e-05
21950.0 7.2919e-05
21970.0 7.2523e-05
21990.0 7.2128e-05
22010.0 7.173e-05
22030.0 7.1329e-05
22050.0 7.0923e-05
22070.0 7.051e-05
22090.0 7.0092e-05
22110.0 6.9665e-05
22130.0 6.9227e-05
22150.0 6.8782e-05
22170.0 6.8328e-05
22190.0 6.786e-05
22210.0 6.7381e-05
22230.0 6.6897e-05
22250.0 6.64e-05
22270.0 6.5888e-05
22290.0 6.5369e-05
22310.0 6.4841e-05
22330.0 6.4288e-05
22350.0 6.3723e-05
22370.0 6.3149e-05
22390.0 6.2551e-05
22410.0 6.1922e-05
22430.0 6.1287e-05
22450.0 6.0632e-05
22470.0 5.9939e-05
22490.0 5.9226e-05
22510.0 5.8504e-05
22530.0 5.7741e-05
22550.0 5.6944e-05
22570.0 5.6149e-05
22590.0 5.5339e-05
22610.0 5.4495e-05
22630.0 5.3648e-05
22650.0 5.2823e-05
22670.0 5.1974e-05
22690.0 5.1123e-05
22710.0 5.0303e-05
22730.0 4.9498e-05
22750.0 4.8677e-05
22770.0 4.7903e-05
22790.0 4.717e-05
22810.0 4.6448e-05
22830.0 4.5753e-05
22850.0 4.5111e-05
22870.0 4.4496e-05
22890.0 4.3898e-05
22910.0 4.3345e-05
22930.0 4.2831e-05
22950.0 4.2335e-05
22970.0 4.1861e-05
22990.0 4.1433e-05
23010.0 4.1022e-05
23030.0 4.0624e-05
23050.0 4.025e-05
