#lamb flux
1010.0 4.9256e-08
1030.0 5.411e-08
1050.0 5.9693e-08
1070.0 6.5977e-08
1090.0 7.3116e-08
1110.0 8.0437e-08
1130.0 8.7806e-08
1150.0 9.5524e-08
1170.0 1.0349e-07
1190.0 1.1104e-07
1210.0 1.1869e-07
1230.0 1.2659e-07
1250.0 1.3434e-07
1270.0 1.4186e-07
1290.0 1.4981e-07
1310.0 1.5775e-07
1330.0 1.6537e-07
1350.0 1.7307e-07
1370.0 1.8103e-07
1390.0 1.8878e-07
1410.0 1.963e-07
1430.0 2.0416e-07
1450.0 2.1202e-07
1470.0 2.1962e-07
1490.0 2.273e-07
1510.0 2.354e-07
1530.0 2.4309e-07
1550.0 2.5066e-07
1570.0 2.585e-07
1590.0 2.6634e-07
1610.0 2.7382e-07
1630.0 2.8154e-07
1650.0 2.8946e-07
1670.0 2.9711e-07
1690.0 3.0466e-07
1710.0 3.1249e-07
1730.0 3.2036e-07
1750.0 3.2775e-07
1770.0 3.3534e-07
1790.0 3.4308e-07
1810.0 3.5055e-07
1830.0 3.5787e-07
1850.0 3.6563e-07
1870.0 3.7316e-07
1890.0 3.804e-07
1910.0 3.8775e-07
1930.0 3.9526e-07
1950.0 4.0236e-07
1970.0 4.0932e-07
1990.0 4.1651e-07
2010.0 4.2351e-07
2030.0 4.3016e-07
2050.0 4.3696e-07
2070.0 4.4386e-07
2090.0 4.5022e-07
2110.0 4.5645e-07
2130.0 4.6278e-07
2150.0 4.6884e-07
2170.0 4.7444e-07
2190.0 4.8016e-07
2210.0 4.8575e-07
2230.0 4.9088e-07
2250.0 4.9579e-07
2270.0 5.0081e-07
2290.0 5.0539e-07
2310.0 5.0946e-07
2330.0 5.1353e-07
2350.0 5.1742e-07
2370.0 5.208e-07
2390.0 5.2406e-07
2410.0 5.2755e-07
2430.0 5.3082e-07
2450.0 5.341e-07
2470.0 5.3809e-07
2490.0 5.4329e-07
2510.0 5.4983e-07
2530.0 5.602e-07
2550.0 5.7822e-07
2570.0 6.0733e-07
2590.0 6.5155e-07
2610.0 7.2219e-07
2630.0 8.2051e-07
2650.0 9.397e-07
2670.0 1.0799e-06
2690.0 1.2345e-06
2710.0 1.3807e-06
2730.0 1.5084e-06
2750.0 1.6201e-06
2770.0 1.705e-06
2790.0 1.7635e-06
2810.0 1.8053e-06
2830.0 1.837e-06
2850.0 1.8581e-06
2870.0 1.8751e-06
2890.0 1.8919e-06
2910.0 1.9079e-06
2930.0 1.9216e-06
2950.0 1.9365e-06
2970.0 1.9519e-06
2990.0 1.9654e-06
3010.0 1.9566e-05
3030.0 1.9702e-05
3050.0 1.9828e-05
3070.0 1.9915e-05
3090.0 1.9984e-05
3110.0 2.0006e-05
3130.0 1.9944e-05
3150.0 1.9788e-05
3170.0 1.9519e-05
3190.0 1.9143e-05
3210.0 1.8709e-05
3230.0 1.8264e-05
3250.0 1.7833e-05
3270.0 1.7608e-05
3290.0 1.7486e-05
3310.0 1.7718e-05
3330.0 1.8104e-05
3350.0 1.865e-05
3370.0 1.9372e-05
3390.0 2.0239e-05
3410.0 2.1143e-05
3430.0 2.2116e-05
3450.0 2.3177e-05
3470.0 2.4269e-05
3490.0 2.5363e-05
3510.0 2.6524e-05
3530.0 2.7712e-05
3550.0 2.896e-05
3570.0 3.0311e-05
3590.0 3.1725e-05
3610.0 3.3313e-05
3630.0 3.4729e-05
3650.0 3.6147e-05
3670.0 3.7286e-05
3690.0 3.811e-05
3710.0 3.8594e-05
3730.0 3.8564e-05
3750.0 3.8559e-05
3770.0 3.877e-05
3790.0 3.9908e-05
3810.0 4.2291e-05
3830.0 4.5482e-05
3850.0 5.0051e-05
3870.0 5.6156e-05
3890.0 6.3041e-05
3910.0 7.0052e-05
3930.0 7.5769e-05
3950.0 7.933e-05
3970.0 7.0716e-05
3990.0 5.4952e-05
4010.0 5.3007e-05
4030.0 6.4331e-05
4050.0 7.4738e-05
4070.0 6.598e-05
4090.0 4.5727e-05
4110.0 4.7588e-05
4130.0 6.0099e-05
4150.0 6.6202e-05
4170.0 5.8787e-05
4190.0 5.2652e-05
4210.0 6.3422e-05
4230.0 6.8833e-05
4250.0 6.7314e-05
4270.0 6.8514e-05
4290.0 6.4262e-05
4310.0 6.924e-05
4330.0 7.9189e-05
4350.0 9.2933e-05
4370.0 9.6331e-05
4390.0 9.2053e-05
4410.0 7.9214e-05
4430.0 6.4715e-05
4450.0 5.0531e-05
4470.0 5.158e-05
4490.0 5.7595e-05
4510.0 7.4803e-05
4530.0 7.9243e-05
4550.0 8.0135e-05
4570.0 9.2432e-05
4590.0 0.00011874
4610.0 0.00016339
4630.0 0.00019657
4650.0 0.00019597
4670.0 0.00020102
4690.0 0.00022035
4710.0 0.00021718
4730.0 0.00017378
4750.0 0.00012516
4770.0 0.00010442
4790.0 9.6136e-05
4810.0 8.8953e-05
4830.0 9.3888e-05
4850.0 0.00010912
4870.0 0.00013541
4890.0 0.00014325
4910.0 0.00012354
4930.0 0.00012381
4950.0 0.00015296
4970.0 0.00019859
4990.0 0.00023211
5010.0 0.00023207
5030.0 0.00019117
5050.0 0.00013386
5070.0 9.8497e-05
5090.0 8.5838e-05
5110.0 8.7498e-05
5130.0 9.5775e-05
5150.0 9.2403e-05
5170.0 9.2479e-05
5190.0 9.1235e-05
5210.0 9.1451e-05
5230.0 9.7562e-05
5250.0 0.00010114
5270.0 0.00011329
5290.0 0.00013564
5310.0 0.0001489
5330.0 0.00015519
5350.0 0.00016241
5370.0 0.00017589
5390.0 0.00018067
5410.0 0.00016393
5430.0 0.00014658
5450.0 0.00014732
5470.0 0.00017698
5490.0 0.00022927
5510.0 0.00027635
5530.0 0.00029296
5550.0 0.00028266
5570.0 0.00026331
5590.0 0.00024324
5610.0 0.00023281
5630.0 0.00023571
5650.0 0.00024154
5670.0 0.00023454
5690.0 0.00022282
5710.0 0.00021551
5730.0 0.00018872
5750.0 0.00014571
5770.0 0.00013226
5790.0 0.00014924
5810.0 0.00016922
5830.0 0.00018942
5850.0 0.00019765
5870.0 0.00019328
5890.0 0.00017912
5910.0 0.00016867
5930.0 0.00017132
5950.0 0.00018206
5970.0 0.00018509
5990.0 0.00016514
6010.0 0.00013395
6030.0 0.00010762
6050.0 9.7788e-05
6070.0 0.00010518
6090.0 0.00011863
6110.0 0.00011984
6130.0 0.00011067
6150.0 0.000109
6170.0 0.00012169
6190.0 0.00014493
6210.0 0.00017464
6230.0 0.00019501
6250.0 0.00018759
6270.0 0.00016482
6290.0 0.00013622
6310.0 0.00010747
6330.0 9.0003e-05
6350.0 8.8157e-05
6370.0 9.7148e-05
6390.0 0.000108
6410.0 0.00012546
6430.0 0.00015195
6450.0 0.00018694
6470.0 0.00022487
6490.0 0.00025893
6510.0 0.00027274
6530.0 0.00026099
6550.0 0.00025063
6570.0 0.00025119
6590.0 0.00024719
6610.0 0.00023171
6630.0 0.00021738
6650.0 0.00020485
6670.0 0.00020459
6690.0 0.00019952
6710.0 0.00017994
6730.0 0.00015669
6750.0 0.00014146
6770.0 0.00014752
6790.0 0.0001576
6810.0 0.00016871
6830.0 0.00017194
6850.0 0.00016345
6870.0 0.00015708
6890.0 0.00015347
6910.0 0.0001453
6930.0 0.00013897
6950.0 0.00014074
6970.0 0.00014514
6990.0 0.00015571
7010.0 0.00016703
7030.0 0.00016249
7050.0 0.00014748
7070.0 0.00012993
7090.0 0.00010987
7110.0 9.9489e-05
7130.0 0.00010554
7150.0 0.00011377
7170.0 0.00011437
7190.0 0.00011109
7210.0 0.00011065
7230.0 0.00012501
7250.0 0.00014464
7270.0 0.0001583
7290.0 0.00016088
7310.0 0.00015075
7330.0 0.00013688
7350.0 0.00012616
7370.0 0.0001216
7390.0 0.0001222
7410.0 0.00012986
7430.0 0.00014744
7450.0 0.00016504
7470.0 0.00018576
7490.0 0.00020716
7510.0 0.00019225
7530.0 0.00016843
7550.0 0.00014345
7570.0 0.00012022
7590.0 9.8319e-05
7610.0 9.4618e-05
7630.0 0.00010128
7650.0 0.00011348
7670.0 0.00012984
7690.0 0.00014326
7710.0 0.00016074
7730.0 0.00017017
7750.0 0.00017661
7770.0 0.00018284
7790.0 0.00018292
7810.0 0.00018233
7830.0 0.00017583
7850.0 0.00017059
7870.0 0.00016367
7890.0 0.00014972
7910.0 0.00013554
7930.0 0.00012148
7950.0 0.00010683
7970.0 0.00010226
7990.0 0.00010653
8010.0 0.00011949
8030.0 0.0001206
8050.0 0.0001242
8070.0 0.0001227
8090.0 0.00012268
8110.0 0.00011928
8130.0 0.00011202
8150.0 0.00010464
8170.0 0.00010379
8190.0 0.00010542
8210.0 0.00010664
8230.0 0.00010199
8250.0 9.6737e-05
8270.0 8.5264e-05
8290.0 6.9259e-05
8310.0 5.3263e-05
8330.0 3.7262e-05
8350.0 2.753e-05
8370.0 2.6295e-05
8390.0 3.0218e-05
8410.0 3.6699e-05
8430.0 4.5621e-05
8450.0 5.0394e-05
8470.0 5.3735e-05
8490.0 5.8035e-05
8510.0 6.1884e-05
8530.0 6.8563e-05
8550.0 8.0869e-05
8570.0 9.3459e-05
8590.0 0.00010422
8610.0 0.00012072
8630.0 0.00013995
8650.0 0.0001488
8670.0 0.00015048
8690.0 0.00014833
8710.0 0.00014249
8730.0 0.00013673
8750.0 0.00012938
8770.0 0.00012675
8790.0 0.00012227
8810.0 0.00011332
8830.0 0.00010573
8850.0 9.1503e-05
8870.0 8.2905e-05
8890.0 7.683e-05
8910.0 8.3256e-05
8930.0 7.9908e-05
8950.0 8.1604e-05
8970.0 8.2962e-05
8990.0 8.2996e-05
9010.0 8.4044e-05
9030.0 8.1676e-05
9050.0 8.1515e-05
9070.0 8.159e-05
9090.0 8.1668e-05
9110.0 8.1763e-05
9130.0 8.185e-05
9150.0 8.1942e-05
9170.0 8.1947e-05
9190.0 8.1833e-05
9210.0 8.254e-05
9230.0 8.2518e-05
9250.0 8.2579e-05
9270.0 8.2665e-05
9290.0 8.2771e-05
9310.0 8.2894e-05
9330.0 8.3027e-05
9350.0 8.3171e-05
9370.0 8.3322e-05
9390.0 8.3479e-05
9410.0 8.3642e-05
9430.0 8.3813e-05
9450.0 8.3987e-05
9470.0 8.4168e-05
9490.0 8.4355e-05
9510.0 8.4546e-05
9530.0 8.4743e-05
9550.0 8.4947e-05
9570.0 8.5156e-05
9590.0 8.537e-05
9610.0 8.559e-05
9630.0 8.5816e-05
9650.0 8.6048e-05
9670.0 8.6282e-05
9690.0 8.6524e-05
9710.0 8.6771e-05
9730.0 8.7022e-05
9750.0 8.7277e-05
9770.0 8.754e-05
9790.0 8.7805e-05
9810.0 8.8074e-05
9830.0 8.8349e-05
9850.0 8.8628e-05
9870.0 8.8908e-05
9890.0 8.9193e-05
9910.0 8.9483e-05
9930.0 8.9774e-05
9950.0 9.0024e-05
9970.0 9.0335e-05
9990.0 9.0647e-05
10010.0 9.0926e-05
10030.0 9.1233e-05
10050.0 9.1512e-05
10070.0 9.1639e-05
10090.0 9.2009e-05
10110.0 9.237e-05
10130.0 9.2715e-05
10150.0 9.305e-05
10170.0 9.3372e-05
10190.0 9.3679e-05
10210.0 9.3989e-05
10230.0 9.4299e-05
10250.0 9.4598e-05
10270.0 9.4895e-05
10290.0 9.5197e-05
10310.0 9.549e-05
10330.0 9.5772e-05
10350.0 9.606e-05
10370.0 9.6346e-05
10390.0 9.6619e-05
10410.0 9.6889e-05
10430.0 9.7164e-05
10450.0 9.7426e-05
10470.0 9.7678e-05
10490.0 9.7931e-05
10510.0 9.8179e-05
10530.0 9.8408e-05
10550.0 9.8636e-05
10570.0 9.8865e-05
10590.0 9.9079e-05
10610.0 9.9282e-05
10630.0 9.9485e-05
10650.0 9.9679e-05
10670.0 9.9855e-05
10690.0 0.00010003
10710.0 0.00010019
10730.0 0.00010035
10750.0 0.00010048
10770.0 0.00010062
10790.0 0.00010075
10810.0 0.00010086
10830.0 0.00010096
10850.0 0.00010104
10870.0 0.00010108
10890.0 0.00010107
10910.0 0.00010098
10930.0 0.00010074
10950.0 0.00010027
10970.0 9.9527e-05
10990.0 9.8486e-05
11010.0 9.7584e-05
11030.0 9.5545e-05
11050.0 9.3213e-05
11070.0 9.0546e-05
11090.0 8.7464e-05
11110.0 8.4402e-05
11130.0 8.1339e-05
11150.0 7.8195e-05
11170.0 7.5142e-05
11190.0 7.2372e-05
11210.0 6.9717e-05
11230.0 6.7218e-05
11250.0 6.5047e-05
11270.0 6.3151e-05
11290.0 6.1429e-05
11310.0 5.995e-05
11330.0 5.8754e-05
11350.0 5.7686e-05
11370.0 5.6723e-05
11390.0 5.5868e-05
11410.0 5.5057e-05
11430.0 5.419e-05
11450.0 5.3292e-05
11470.0 5.2348e-05
11490.0 5.1293e-05
11510.0 5.01e-05
11530.0 4.8857e-05
11550.0 4.7542e-05
11570.0 4.6105e-05
11590.0 4.4632e-05
11610.0 4.3184e-05
11630.0 4.1686e-05
11650.0 4.0182e-05
11670.0 3.8793e-05
11690.0 3.7469e-05
11710.0 3.6183e-05
11730.0 3.5001e-05
11750.0 3.3948e-05
11770.0 3.2942e-05
11790.0 3.2009e-05
11810.0 3.1175e-05
11830.0 3.04e-05
11850.0 2.9636e-05
11870.0 2.8927e-05
11890.0 2.8257e-05
11910.0 2.7575e-05
11930.0 2.6883e-05
11950.0 2.6204e-05
11970.0 2.5506e-05
11990.0 2.4763e-05
12010.0 2.4022e-05
12030.0 2.3286e-05
12050.0 2.2527e-05
12070.0 2.1764e-05
12090.0 2.1065e-05
12110.0 2.0392e-05
12130.0 1.9756e-05
12150.0 1.9201e-05
12170.0 1.8737e-05
12190.0 1.8347e-05
12210.0 1.8073e-05
12230.0 1.7918e-05
12250.0 1.7879e-05
12270.0 1.7968e-05
12290.0 1.8173e-05
12310.0 1.8475e-05
12330.0 1.8896e-05
12350.0 1.9406e-05
12370.0 1.9966e-05
12390.0 2.0584e-05
12410.0 2.1274e-05
12430.0 2.1931e-05
12450.0 2.2569e-05
12470.0 2.32e-05
12490.0 2.3782e-05
12510.0 2.4273e-05
12530.0 2.4712e-05
12550.0 2.5078e-05
12570.0 2.5341e-05
12590.0 2.5514e-05
12610.0 2.5607e-05
12630.0 2.5608e-05
12650.0 2.5522e-05
12670.0 2.5363e-05
12690.0 2.5132e-05
12710.0 2.4843e-05
12730.0 2.4507e-05
12750.0 2.4112e-05
12770.0 2.3685e-05
12790.0 2.3238e-05
12810.0 2.276e-05
12830.0 2.2252e-05
12850.0 2.1746e-05
12870.0 2.1228e-05
12890.0 2.0679e-05
12910.0 2.0121e-05
12930.0 1.9563e-05
12950.0 1.8971e-05
12970.0 1.835e-05
12990.0 1.7739e-05
13010.0 1.7115e-05
13030.0 1.6465e-05
13050.0 1.5822e-05
13070.0 1.5205e-05
13090.0 1.458e-05
13110.0 1.3975e-05
13130.0 1.342e-05
13150.0 1.2907e-05
13170.0 1.2423e-05
13190.0 1.2015e-05
13210.0 1.1677e-05
13230.0 1.1397e-05
13250.0 1.1183e-05
13270.0 1.1041e-05
13290.0 1.0958e-05
13310.0 1.0934e-05
13330.0 1.0962e-05
13350.0 1.1031e-05
13370.0 1.1138e-05
13390.0 1.1275e-05
13410.0 1.1417e-05
13430.0 1.1571e-05
13450.0 1.1731e-05
13470.0 1.1879e-05
13490.0 1.2013e-05
13510.0 1.2142e-05
13530.0 1.2253e-05
13550.0 1.2341e-05
13570.0 1.2415e-05
13590.0 1.2477e-05
13610.0 1.2523e-05
13630.0 1.2556e-05
13650.0 1.2585e-05
13670.0 1.2605e-05
13690.0 1.2619e-05
13710.0 1.2628e-05
13730.0 1.2636e-05
13750.0 1.2635e-05
13770.0 1.2628e-05
13790.0 1.2615e-05
13810.0 1.2593e-05
13830.0 1.256e-05
13850.0 1.2514e-05
13870.0 1.2455e-05
13890.0 1.2381e-05
13910.0 1.2294e-05
13930.0 1.219e-05
13950.0 1.2072e-05
13970.0 1.195e-05
13990.0 1.1817e-05
14010.0 1.1678e-05
14030.0 1.1543e-05
14050.0 1.1411e-05
14070.0 1.1279e-05
14090.0 1.116e-05
14110.0 1.1054e-05
14130.0 1.0958e-05
14150.0 1.0874e-05
14170.0 1.0807e-05
14190.0 1.0753e-05
14210.0 1.0712e-05
14230.0 1.0685e-05
14250.0 1.0672e-05
14270.0 1.0674e-05
14290.0 1.0692e-05
14310.0 1.0724e-05
14330.0 1.077e-05
14350.0 1.0833e-05
14370.0 1.0909e-05
14390.0 1.0994e-05
14410.0 1.1095e-05
14430.0 1.1206e-05
14450.0 1.1321e-05
14470.0 1.1444e-05
14490.0 1.1581e-05
14510.0 1.1719e-05
14530.0 1.1862e-05
14550.0 1.202e-05
14570.0 1.2193e-05
14590.0 1.2376e-05
14610.0 1.2583e-05
14630.0 1.2825e-05
14650.0 1.3088e-05
14670.0 1.3377e-05
14690.0 1.3708e-05
14710.0 1.4079e-05
14730.0 1.4458e-05
14750.0 1.487e-05
14770.0 1.5316e-05
14790.0 1.5765e-05
14810.0 1.6208e-05
14830.0 1.6678e-05
14850.0 1.7127e-05
14870.0 1.7537e-05
14890.0 1.7924e-05
14910.0 1.828e-05
14930.0 1.8576e-05
14950.0 1.8817e-05
14970.0 1.9014e-05
14990.0 1.9154e-05
15010.0 1.9241e-05
15030.0 1.9289e-05
15050.0 1.9301e-05
15070.0 1.9287e-05
15090.0 1.9257e-05
15110.0 1.9215e-05
15130.0 1.9167e-05
15150.0 1.9119e-05
15170.0 1.9067e-05
15190.0 1.9015e-05
15210.0 1.8964e-05
15230.0 1.8914e-05
15250.0 1.8862e-05
15270.0 1.881e-05
15290.0 1.8762e-05
15310.0 1.8713e-05
15330.0 1.8663e-05
15350.0 1.8615e-05
15370.0 1.8568e-05
15390.0 1.8518e-05
15410.0 1.847e-05
15430.0 1.8423e-05
15450.0 1.8376e-05
15470.0 1.8327e-05
15490.0 1.8282e-05
15510.0 1.8236e-05
15530.0 1.8189e-05
15550.0 1.8142e-05
15570.0 1.8098e-05
15590.0 1.8051e-05
15610.0 1.8004e-05
15630.0 1.7959e-05
15650.0 1.7915e-05
15670.0 1.7868e-05
15690.0 1.7823e-05
15710.0 1.778e-05
15730.0 1.7734e-05
15750.0 1.7688e-05
15770.0 1.7644e-05
15790.0 1.76e-05
15810.0 1.7553e-05
15830.0 1.7508e-05
15850.0 1.7465e-05
15870.0 1.742e-05
15890.0 1.7374e-05
15910.0 1.7331e-05
15930.0 1.7287e-05
15950.0 1.724e-05
15970.0 1.7195e-05
15990.0 1.7151e-05
16010.0 1.7105e-05
16030.0 1.7059e-05
16050.0 1.7016e-05
16070.0 1.6971e-05
16090.0 1.6924e-05
16110.0 1.6879e-05
16130.0 1.6835e-05
16150.0 1.6787e-05
16170.0 1.6741e-05
16190.0 1.6696e-05
16210.0 1.665e-05
16230.0 1.6602e-05
16250.0 1.6556e-05
16270.0 1.6511e-05
16290.0 1.6463e-05
16310.0 1.6416e-05
16330.0 1.637e-05
16350.0 1.6323e-05
16370.0 1.6272e-05
16390.0 1.6226e-05
16410.0 1.6179e-05
16430.0 1.613e-05
16450.0 1.6081e-05
16470.0 1.6034e-05
16490.0 1.5985e-05
16510.0 1.5935e-05
16530.0 1.5886e-05
16550.0 1.5837e-05
16570.0 1.5786e-05
16590.0 1.5735e-05
16610.0 1.5687e-05
16630.0 1.5636e-05
16650.0 1.5585e-05
16670.0 1.5535e-05
16690.0 1.5485e-05
16710.0 1.5431e-05
16730.0 1.5379e-05
16750.0 1.5328e-05
16770.0 1.5276e-05
16790.0 1.5222e-05
16810.0 1.517e-05
16830.0 1.5118e-05
16850.0 1.5064e-05
16870.0 1.501e-05
16890.0 1.4958e-05
16910.0 1.4903e-05
16930.0 1.4847e-05
16950.0 1.4793e-05
16970.0 1.4739e-05
16990.0 1.4683e-05
17010.0 1.4628e-05
17030.0 1.4574e-05
17050.0 1.4517e-05
17070.0 1.446e-05
17090.0 1.4404e-05
17110.0 1.4348e-05
17130.0 1.4289e-05
17150.0 1.4232e-05
17170.0 1.4176e-05
17190.0 1.4118e-05
17210.0 1.4059e-05
17230.0 1.4003e-05
17250.0 1.3944e-05
17270.0 1.3884e-05
17290.0 1.3825e-05
17310.0 1.3767e-05
17330.0 1.3707e-05
17350.0 1.3646e-05
17370.0 1.3588e-05
17390.0 1.3528e-05
17410.0 1.3466e-05
17430.0 1.3406e-05
17450.0 1.3347e-05
17470.0 1.3284e-05
17490.0 1.3222e-05
17510.0 1.3162e-05
17530.0 1.31e-05
17550.0 1.3037e-05
17570.0 1.2976e-05
17590.0 1.2915e-05
17610.0 1.2851e-05
17630.0 1.2788e-05
17650.0 1.2727e-05
17670.0 1.2663e-05
17690.0 1.2597e-05
17710.0 1.2535e-05
17730.0 1.2473e-05
17750.0 1.2408e-05
17770.0 1.2344e-05
17790.0 1.2282e-05
17810.0 1.2217e-05
17830.0 1.2151e-05
17850.0 1.2087e-05
17870.0 1.2024e-05
17890.0 1.1957e-05
17910.0 1.1891e-05
17930.0 1.1828e-05
17950.0 1.1763e-05
17970.0 1.1696e-05
17990.0 1.1632e-05
18010.0 1.1568e-05
18030.0 1.15e-05
18050.0 1.1434e-05
18070.0 1.1369e-05
18090.0 1.1302e-05
18110.0 1.1235e-05
18130.0 1.117e-05
18150.0 1.1105e-05
18170.0 1.1037e-05
18190.0 1.0971e-05
18210.0 1.0906e-05
18230.0 1.0838e-05
18250.0 1.077e-05
18270.0 1.0704e-05
18290.0 1.0638e-05
18310.0 1.057e-05
18330.0 1.0503e-05
18350.0 1.0438e-05
18370.0 1.037e-05
18390.0 1.0302e-05
18410.0 1.0236e-05
18430.0 1.0169e-05
18450.0 1.01e-05
18470.0 1.0033e-05
18490.0 9.9674e-06
18510.0 9.8994e-06
18530.0 9.8317e-06
18550.0 9.7662e-06
18570.0 9.6989e-06
18590.0 9.6298e-06
18610.0 9.563e-06
18630.0 9.4968e-06
18650.0 9.4285e-06
18670.0 9.3602e-06
18690.0 9.2949e-06
18710.0 9.2279e-06
18730.0 9.1596e-06
18750.0 9.0932e-06
18770.0 9.0276e-06
18790.0 8.9583e-06
18810.0 8.8906e-06
18830.0 8.825e-06
18850.0 8.758e-06
18870.0 8.6898e-06
18890.0 8.624e-06
18910.0 8.5584e-06
18930.0 8.4903e-06
18950.0 8.4234e-06
18970.0 8.3581e-06
18990.0 8.2913e-06
19010.0 8.2222e-06
19030.0 8.1572e-06
19050.0 8.0917e-06
19070.0 8.0244e-06
19090.0 7.9581e-06
19110.0 7.8939e-06
19130.0 7.8269e-06
19150.0 7.7597e-06
19170.0 7.6947e-06
19190.0 7.6295e-06
19210.0 7.5621e-06
19230.0 7.4961e-06
19250.0 7.4324e-06
19270.0 7.3665e-06
19290.0 7.3003e-06
19310.0 7.2363e-06
19330.0 7.172e-06
19350.0 7.1046e-06
19370.0 7.0398e-06
19390.0 6.9762e-06
19410.0 6.9108e-06
19430.0 6.845e-06
19450.0 6.782e-06
19470.0 6.7182e-06
19490.0 6.6527e-06
19510.0 6.5888e-06
19530.0 6.5261e-06
19550.0 6.4609e-06
19570.0 6.3955e-06
19590.0 6.3333e-06
19610.0 6.27e-06
19630.0 6.2054e-06
19650.0 6.1426e-06
19670.0 6.0809e-06
19690.0 6.0166e-06
19710.0 5.9529e-06
19730.0 5.8912e-06
19750.0 5.8287e-06
19770.0 5.764e-06
19790.0 5.7021e-06
19810.0 5.641e-06
19830.0 5.5779e-06
19850.0 5.5148e-06
19870.0 5.4533e-06
19890.0 5.3885e-06
19910.0 5.3196e-06
19930.0 5.2489e-06
19950.0 5.1725e-06
19970.0 5.0849e-06
19990.0 4.9868e-06
20010.0 4.8827e-06
20030.0 4.7651e-06
20050.0 4.637e-06
20070.0 4.5079e-06
20090.0 4.3786e-06
20110.0 4.2441e-06
20130.0 4.1195e-06
20150.0 4.0065e-06
20170.0 3.8999e-06
20190.0 3.8024e-06
20210.0 3.7193e-06
20230.0 3.6463e-06
20250.0 3.5812e-06
20270.0 3.5279e-06
20290.0 3.4851e-06
20310.0 3.4503e-06
20330.0 3.4239e-06
20350.0 3.4069e-06
20370.0 3.3971e-06
20390.0 3.3946e-06
20410.0 3.3992e-06
20430.0 3.4099e-06
20450.0 3.4282e-06
20470.0 3.4533e-06
20490.0 3.4839e-06
20510.0 3.5209e-06
20530.0 3.5658e-06
20550.0 3.6156e-06
20570.0 3.6686e-06
20590.0 3.7286e-06
20610.0 3.7931e-06
20630.0 3.8582e-06
20650.0 3.9261e-06
20670.0 3.999e-06
20690.0 4.0686e-06
20710.0 4.1362e-06
20730.0 4.2045e-06
20750.0 4.2709e-06
20770.0 4.3316e-06
20790.0 4.3912e-06
20810.0 4.4503e-06
20830.0 4.5058e-06
20850.0 4.5592e-06
20870.0 4.6151e-06
20890.0 4.6716e-06
20910.0 4.7263e-06
20930.0 4.7843e-06
20950.0 4.8459e-06
20970.0 4.9076e-06
20990.0 4.9698e-06
21010.0 5.0365e-06
21030.0 5.1021e-06
21050.0 5.1641e-06
21070.0 5.2248e-06
21090.0 5.2835e-06
21110.0 5.3336e-06
21130.0 5.3771e-06
21150.0 5.4148e-06
21170.0 5.4437e-06
21190.0 5.4631e-06
21210.0 5.4746e-06
21230.0 5.4769e-06
21250.0 5.4699e-06
21270.0 5.4546e-06
21290.0 5.4303e-06
21310.0 5.3981e-06
21330.0 5.3601e-06
21350.0 5.3144e-06
21370.0 5.2618e-06
21390.0 5.2055e-06
21410.0 5.1452e-06
21430.0 5.0774e-06
21450.0 5.0088e-06
21470.0 4.9402e-06
21490.0 4.8687e-06
21510.0 4.7961e-06
21530.0 4.7272e-06
21550.0 4.6597e-06
21570.0 4.5925e-06
21590.0 4.5306e-06
21610.0 4.4745e-06
21630.0 4.4222e-06
21650.0 4.3753e-06
21670.0 4.338e-06
21690.0 4.3073e-06
21710.0 4.2839e-06
21730.0 4.2693e-06
21750.0 4.2629e-06
21770.0 4.265e-06
21790.0 4.2761e-06
21810.0 4.2949e-06
21830.0 4.3218e-06
21850.0 4.3578e-06
21870.0 4.4002e-06
21890.0 4.4476e-06
21910.0 4.5032e-06
21930.0 4.5646e-06
21950.0 4.6285e-06
21970.0 4.6974e-06
21990.0 4.7735e-06
22010.0 4.8487e-06
22030.0 4.9246e-06
22050.0 5.0042e-06
22070.0 5.0842e-06
22090.0 5.1598e-06
22110.0 5.236e-06
22130.0 5.3117e-06
22150.0 5.3818e-06
22170.0 5.4469e-06
22190.0 5.5098e-06
22210.0 5.566e-06
22230.0 5.6126e-06
22250.0 5.653e-06
22270.0 5.6854e-06
22290.0 5.7075e-06
22310.0 5.72e-06
22330.0 5.7226e-06
22350.0 5.714e-06
22370.0 5.6948e-06
22390.0 5.6642e-06
22410.0 5.6207e-06
22430.0 5.5684e-06
22450.0 5.5062e-06
22470.0 5.4315e-06
22490.0 5.3479e-06
22510.0 5.2587e-06
22530.0 5.1578e-06
22550.0 5.0475e-06
22570.0 4.9357e-06
22590.0 4.819e-06
22610.0 4.694e-06
