#lamb flux
1010.0 2.1208e-07
1030.0 2.3456e-07
1050.0 2.6042e-07
1070.0 2.8952e-07
1090.0 3.2259e-07
1110.0 3.565e-07
1130.0 3.9063e-07
1150.0 4.2638e-07
1170.0 4.6326e-07
1190.0 4.9823e-07
1210.0 5.3367e-07
1230.0 5.703e-07
1250.0 6.0618e-07
1270.0 6.4103e-07
1290.0 6.7785e-07
1310.0 7.1465e-07
1330.0 7.4994e-07
1350.0 7.8562e-07
1370.0 8.2246e-07
1390.0 8.5839e-07
1410.0 8.9324e-07
1430.0 9.2968e-07
1450.0 9.6612e-07
1470.0 1.0013e-06
1490.0 1.0369e-06
1510.0 1.0745e-06
1530.0 1.1102e-06
1550.0 1.1453e-06
1570.0 1.1817e-06
1590.0 1.2182e-06
1610.0 1.253e-06
1630.0 1.2889e-06
1650.0 1.3257e-06
1670.0 1.3614e-06
1690.0 1.3967e-06
1710.0 1.4333e-06
1730.0 1.4702e-06
1750.0 1.5049e-06
1770.0 1.5406e-06
1790.0 1.5771e-06
1810.0 1.6125e-06
1830.0 1.6473e-06
1850.0 1.6844e-06
1870.0 1.7205e-06
1890.0 1.7554e-06
1910.0 1.7912e-06
1930.0 1.8278e-06
1950.0 1.8629e-06
1970.0 1.8977e-06
1990.0 1.9338e-06
2010.0 1.9694e-06
2030.0 2.0038e-06
2050.0 2.0394e-06
2070.0 2.0759e-06
2090.0 2.1104e-06
2110.0 2.1449e-06
2130.0 2.1806e-06
2150.0 2.2156e-06
2170.0 2.2491e-06
2190.0 2.284e-06
2210.0 2.3192e-06
2230.0 2.353e-06
2250.0 2.3867e-06
2270.0 2.422e-06
2290.0 2.4562e-06
2310.0 2.4891e-06
2330.0 2.5233e-06
2350.0 2.5584e-06
2370.0 2.5934e-06
2390.0 2.6313e-06
2410.0 2.6762e-06
2430.0 2.7279e-06
2450.0 2.7896e-06
2470.0 2.8687e-06
2490.0 2.9684e-06
2510.0 3.0817e-06
2530.0 3.2181e-06
2550.0 3.3888e-06
2570.0 3.6013e-06
2590.0 3.8775e-06
2610.0 4.2912e-06
2630.0 4.8818e-06
2650.0 5.6541e-06
2670.0 6.6525e-06
2690.0 7.8795e-06
2710.0 9.1892e-06
2730.0 1.0483e-05
2750.0 1.1758e-05
2770.0 1.2867e-05
2790.0 1.3747e-05
2810.0 1.4446e-05
2830.0 1.4992e-05
2850.0 1.5365e-05
2870.0 1.5638e-05
2890.0 1.5855e-05
2910.0 1.6027e-05
2930.0 1.6169e-05
2950.0 1.6303e-05
2970.0 1.6435e-05
2990.0 1.6559e-05
3010.0 0.00046805
3030.0 0.00047155
3050.0 0.00047493
3070.0 0.00047782
3090.0 0.00048031
3110.0 0.00048186
3130.0 0.0004818
3150.0 0.00047966
3170.0 0.00047452
3190.0 0.00046645
3210.0 0.00045622
3230.0 0.00044451
3250.0 0.00043295
3270.0 0.0004245
3290.0 0.00041981
3310.0 0.00042057
3330.0 0.00042666
3350.0 0.00043726
3370.0 0.00045239
3390.0 0.00047147
3410.0 0.00049223
3430.0 0.00051553
3450.0 0.00054235
3470.0 0.00057165
3490.0 0.0006027
3510.0 0.00063779
3530.0 0.00067537
3550.0 0.00071342
3570.0 0.00075311
3590.0 0.00079628
3610.0 0.00084075
3630.0 0.00088509
3650.0 0.00093109
3670.0 0.00097309
3690.0 0.0010045
3710.0 0.0010225
3730.0 0.0010231
3750.0 0.0010088
3770.0 0.0010032
3790.0 0.00099728
3810.0 0.00097277
3830.0 0.0010029
3850.0 0.0011213
3870.0 0.0011864
3890.0 0.0011809
3910.0 0.001186
3930.0 0.0012172
3950.0 0.0012364
3970.0 0.0011265
3990.0 0.0009693
4010.0 0.0029051
4030.0 0.0035199
4050.0 0.0040354
4070.0 0.0035014
4090.0 0.0031712
4110.0 0.0027983
4130.0 0.0025755
4150.0 0.0027396
4170.0 0.0026986
4190.0 0.0028765
4210.0 0.0028502
4230.0 0.0030148
4250.0 0.0035665
4270.0 0.0036085
4290.0 0.0033252
4310.0 0.0034551
4330.0 0.0036752
4350.0 0.0041208
4370.0 0.0046895
4390.0 0.0044006
4410.0 0.0032513
4430.0 0.0027524
4450.0 0.0025291
4470.0 0.0019412
4490.0 0.0020948
4510.0 0.0031643
4530.0 0.0036494
4550.0 0.003681
4570.0 0.004142
4590.0 0.0047182
4610.0 0.0063638
4630.0 0.0082652
4650.0 0.0089635
4670.0 0.008301
4690.0 0.0079207
4710.0 0.0083727
4730.0 0.0079015
4750.0 0.0059073
4770.0 0.0043332
4790.0 0.0040464
4810.0 0.0038569
4830.0 0.0035309
4850.0 0.0038746
4870.0 0.0051187
4890.0 0.0060364
4910.0 0.0052962
4930.0 0.0046864
4950.0 0.0051487
4970.0 0.0066029
4990.0 0.0089485
5010.0 0.010294
5030.0 0.0090769
5050.0 0.0061411
5070.0 0.0040473
5090.0 0.0032635
5110.0 0.0033562
5130.0 0.0038736
5150.0 0.0041967
5170.0 0.0041338
5190.0 0.0038627
5210.0 0.0040374
5230.0 0.0042442
5250.0 0.004574
5270.0 0.0049349
5290.0 0.0054688
5310.0 0.0063654
5330.0 0.0070441
5350.0 0.006999
5370.0 0.0073517
5390.0 0.0084361
5410.0 0.0084284
5430.0 0.0074536
5450.0 0.006848
5470.0 0.0072713
5490.0 0.0088834
5510.0 0.011107
5530.0 0.012739
5550.0 0.012312
5570.0 0.011193
5590.0 0.009732
5610.0 0.008975
5630.0 0.0087029
5650.0 0.0082885
5670.0 0.0078539
5690.0 0.0070213
5710.0 0.0068458
5730.0 0.0063059
5750.0 0.0044459
5770.0 0.0034685
5790.0 0.0039305
5810.0 0.0044382
5830.0 0.0054462
5850.0 0.006483
5870.0 0.0071929
5890.0 0.0073146
5910.0 0.0071761
5930.0 0.0068307
5950.0 0.0069603
5970.0 0.0079338
5990.0 0.0074598
6010.0 0.0062534
6030.0 0.0052832
6050.0 0.004601
6070.0 0.0045759
6090.0 0.0049618
6110.0 0.0055481
6130.0 0.0056331
6150.0 0.0048467
6170.0 0.0042636
6190.0 0.0047981
6210.0 0.006343
6230.0 0.0083239
6250.0 0.0090159
6270.0 0.0078787
6290.0 0.0066288
6310.0 0.0051749
6330.0 0.003965
6350.0 0.0035366
6370.0 0.0037191
6390.0 0.0042996
6410.0 0.0053016
6430.0 0.0061908
6450.0 0.0070839
6470.0 0.0081111
6490.0 0.0097977
6510.0 0.010955
6530.0 0.010748
6550.0 0.0097188
6570.0 0.0082503
6590.0 0.0074396
6610.0 0.0064148
6630.0 0.0058116
6650.0 0.0054936
6670.0 0.0053369
6690.0 0.0048222
6710.0 0.0043835
6730.0 0.0031573
6750.0 0.0031302
6770.0 0.0034023
6790.0 0.0039107
6810.0 0.0035783
6830.0 0.0036847
6850.0 0.0034464
6870.0 0.0031482
6890.0 0.0030228
6910.0 0.0032212
6930.0 0.0030171
6950.0 0.0031041
6970.0 0.0032649
6990.0 0.003706
7010.0 0.0037375
7030.0 0.0037969
7050.0 0.003621
7070.0 0.0034501
7090.0 0.0034602
7110.0 0.0035603
7130.0 0.0038315
7150.0 0.0040693
7170.0 0.0044902
7190.0 0.004936
7210.0 0.0048503
7230.0 0.0049862
7250.0 0.0053584
7270.0 0.0058394
7290.0 0.0069307
7310.0 0.0075205
7330.0 0.0072692
7350.0 0.0065745
7370.0 0.0057204
7390.0 0.0055495
7410.0 0.0058975
7430.0 0.0065543
7450.0 0.0071388
7470.0 0.0070732
7490.0 0.0064494
7510.0 0.0073057
7530.0 0.0072257
7550.0 0.0064947
7570.0 0.0050736
7590.0 0.0034879
7610.0 0.0029937
7630.0 0.0034014
7650.0 0.0040218
7670.0 0.0050055
7690.0 0.0055082
7710.0 0.0057403
7730.0 0.0060323
7750.0 0.0067721
7770.0 0.0068786
7790.0 0.0063184
7810.0 0.0057652
7830.0 0.0059453
7850.0 0.0057794
7870.0 0.0052988
7890.0 0.004452
7910.0 0.0036189
7930.0 0.0034556
7950.0 0.0031481
7970.0 0.0029142
7990.0 0.0028976
8010.0 0.00021695
8030.0 0.00021385
8050.0 0.00021123
8070.0 0.00021449
8090.0 0.00023118
8110.0 0.0002271
8130.0 0.00018615
8150.0 0.00018157
8170.0 0.00015544
8190.0 0.00014664
8210.0 0.00019212
8230.0 0.0002142
8250.0 0.00019135
8270.0 0.00016633
8290.0 0.00016333
8310.0 0.00012601
8330.0 8.4846e-05
8350.0 6.0293e-05
8370.0 3.7497e-05
8390.0 6.9392e-05
8410.0 8.0819e-05
8430.0 9.9616e-05
8450.0 0.00011693
8470.0 0.00014605
8490.0 0.00014461
8510.0 0.0001418
8530.0 0.00014712
8550.0 0.00020038
8570.0 0.0002382
8590.0 0.00025533
8610.0 0.00032332
8630.0 0.00038902
8650.0 0.00040451
8670.0 0.00043102
8690.0 0.00043557
8710.0 0.0003941
8730.0 0.00036729
8750.0 0.00032361
8770.0 0.00030678
8790.0 0.00030186
8810.0 0.00028981
8830.0 0.00023056
8850.0 0.00016789
8870.0 0.00012841
8890.0 0.00012679
8910.0 0.0001462
8930.0 0.00016694
8950.0 0.00017039
8970.0 0.00017098
8990.0 0.00015173
9010.0 0.0015621
9030.0 0.0014145
9050.0 0.0014215
9070.0 0.0014328
9090.0 0.0014427
9110.0 0.001455
9130.0 0.0014645
9150.0 0.0014718
9170.0 0.0014797
9190.0 0.001488
9210.0 0.0014968
9230.0 0.0015061
9250.0 0.0015156
9270.0 0.0015254
9290.0 0.0015354
9310.0 0.0015456
9330.0 0.0015559
9350.0 0.0015667
9370.0 0.0015776
9390.0 0.0015885
9410.0 0.0015998
9430.0 0.0016114
9450.0 0.001623
9470.0 0.0016348
9490.0 0.001647
9510.0 0.0016593
9530.0 0.0016716
9550.0 0.0016844
9570.0 0.0016974
9590.0 0.0017105
9610.0 0.0017238
9630.0 0.0017374
9650.0 0.0017511
9670.0 0.0017649
9690.0 0.0017791
9710.0 0.0017934
9730.0 0.0018078
9750.0 0.0018224
9770.0 0.0018374
9790.0 0.0018524
9810.0 0.0018675
9830.0 0.0018829
9850.0 0.0018985
9870.0 0.0019141
9890.0 0.0019299
9910.0 0.001946
9930.0 0.0019621
9950.0 0.0019782
9970.0 0.0019947
9990.0 0.0020114
10010.0 0.0017454
10030.0 0.0017598
10050.0 0.0017745
10070.0 0.0017897
10090.0 0.001804
10110.0 0.0018187
10130.0 0.0018334
10150.0 0.0018481
10170.0 0.0018629
10190.0 0.001878
10210.0 0.001893
10230.0 0.0019079
10250.0 0.001923
10270.0 0.0019381
10290.0 0.0019531
10310.0 0.0019682
10330.0 0.0019835
10350.0 0.0019985
10370.0 0.0020134
10390.0 0.0020286
10410.0 0.0020436
10430.0 0.0020584
10450.0 0.0020733
10470.0 0.0020883
10490.0 0.002103
10510.0 0.0021176
10530.0 0.0021324
10550.0 0.002147
10570.0 0.0021613
10590.0 0.0021757
10610.0 0.0021901
10630.0 0.0022041
10650.0 0.002218
10670.0 0.002232
10690.0 0.0022457
10710.0 0.0022592
10730.0 0.0022727
10750.0 0.0022862
10770.0 0.0022992
10790.0 0.002312
10810.0 0.0023249
10830.0 0.0023373
10850.0 0.0023491
10870.0 0.0023606
10890.0 0.0023707
10910.0 0.0023784
10930.0 0.0023828
10950.0 0.0023818
10970.0 0.0023738
10990.0 0.002358
11010.0 0.0023284
11030.0 0.0022913
11050.0 0.0022462
11070.0 0.0021922
11090.0 0.0021274
11110.0 0.0020603
11130.0 0.0019903
11150.0 0.0019149
11170.0 0.0018373
11190.0 0.0017619
11210.0 0.0016841
11230.0 0.0016043
11250.0 0.0015281
11270.0 0.0014549
11290.0 0.0013816
11310.0 0.0013121
11330.0 0.0012509
11350.0 0.0011931
11370.0 0.0011397
11390.0 0.0010934
11410.0 0.001053
11430.0 0.0010155
11450.0 0.00098309
11470.0 0.0009551
11490.0 0.00092905
11510.0 0.00090396
11530.0 0.00088068
11550.0 0.00085755
11570.0 0.00083287
11590.0 0.00080731
11610.0 0.0007813
11630.0 0.00075299
11650.0 0.00072267
11670.0 0.0006928
11690.0 0.0006625
11710.0 0.00063125
11730.0 0.00060097
11750.0 0.00057294
11770.0 0.00054546
11790.0 0.0005197
11810.0 0.00049702
11830.0 0.00047674
11850.0 0.00045806
11870.0 0.00044244
11890.0 0.00042945
11910.0 0.00041804
11930.0 0.00040823
11950.0 0.00040006
11970.0 0.00039276
11990.0 0.00038586
12010.0 0.00037948
12030.0 0.00037333
12050.0 0.00036697
12070.0 0.00036035
12090.0 0.00035398
12110.0 0.0003475
12130.0 0.00034102
12150.0 0.00033504
12170.0 0.00032982
12190.0 0.0003253
12210.0 0.00032216
12230.0 0.00032063
12250.0 0.00032088
12270.0 0.0003233
12290.0 0.00032787
12310.0 0.00033443
12330.0 0.00034361
12350.0 0.00035507
12370.0 0.00036811
12390.0 0.00038315
12410.0 0.00040077
12430.0 0.00041868
12450.0 0.00043723
12470.0 0.00045695
12490.0 0.00047675
12510.0 0.00049534
12530.0 0.00051382
12550.0 0.00053166
12570.0 0.0005474
12590.0 0.00056122
12610.0 0.00057353
12630.0 0.00058335
12650.0 0.00059013
12670.0 0.00059458
12690.0 0.00059636
12710.0 0.00059538
12730.0 0.00059193
12750.0 0.00058577
12770.0 0.00057732
12790.0 0.00056708
12810.0 0.00055484
12830.0 0.00054068
12850.0 0.00052588
12870.0 0.00051022
12890.0 0.00049329
12910.0 0.00047607
12930.0 0.0004591
12950.0 0.00044139
12970.0 0.00042336
12990.0 0.00040631
13010.0 0.00038947
13030.0 0.00037244
13050.0 0.00035608
13070.0 0.00034076
13090.0 0.00032538
13110.0 0.00031051
13130.0 0.00029679
13150.0 0.0002838
13170.0 0.00027109
13190.0 0.00025977
13210.0 0.00024981
13230.0 0.00024071
13250.0 0.00023287
13270.0 0.00022668
13290.0 0.00022187
13310.0 0.00021856
13330.0 0.00021705
13350.0 0.00021723
13370.0 0.00021917
13390.0 0.000223
13410.0 0.00022818
13430.0 0.0002349
13450.0 0.0002432
13470.0 0.00025242
13490.0 0.00026219
13510.0 0.0002732
13530.0 0.00028437
13550.0 0.00029506
13570.0 0.00030559
13590.0 0.00031586
13610.0 0.000325
13630.0 0.00033297
13650.0 0.00034026
13670.0 0.0003463
13690.0 0.00035098
13710.0 0.00035459
13730.0 0.00035717
13750.0 0.00035846
13770.0 0.00035876
13790.0 0.00035811
13810.0 0.00035652
13830.0 0.00035419
13850.0 0.00035102
13870.0 0.00034703
13890.0 0.00034247
13910.0 0.00033732
13930.0 0.00033137
13950.0 0.00032487
13970.0 0.00031822
13990.0 0.00031098
14010.0 0.00030329
14030.0 0.00029561
14050.0 0.00028787
14070.0 0.0002797
14090.0 0.00027187
14110.0 0.00026452
14130.0 0.00025739
14150.0 0.00025067
14170.0 0.00024495
14190.0 0.00023999
14210.0 0.00023579
14230.0 0.00023268
14250.0 0.00023067
14270.0 0.00022969
14290.0 0.0002299
14310.0 0.00023118
14330.0 0.00023348
14350.0 0.00023687
14370.0 0.00024109
14390.0 0.00024588
14410.0 0.00025152
14430.0 0.00025772
14450.0 0.00026405
14470.0 0.00027061
14490.0 0.0002776
14510.0 0.00028427
14530.0 0.00029062
14550.0 0.00029695
14570.0 0.00030304
14590.0 0.00030858
14610.0 0.00031394
14630.0 0.00031924
14650.0 0.00032418
14670.0 0.00032895
14690.0 0.00033392
14710.0 0.00033915
14730.0 0.00034438
14750.0 0.00035017
14770.0 0.00035674
14790.0 0.00036386
14810.0 0.00037158
14830.0 0.00038072
14850.0 0.00039066
14870.0 0.00040103
14890.0 0.00041222
14910.0 0.0004241
14930.0 0.00043552
14950.0 0.00044619
14970.0 0.0004563
14990.0 0.00046478
15010.0 0.00047126
15030.0 0.00047606
15050.0 0.00047923
15070.0 0.00048078
15090.0 0.00048132
15110.0 0.00048117
15130.0 0.00048056
15150.0 0.00047975
15170.0 0.00047879
15190.0 0.00047776
15210.0 0.00047674
15230.0 0.00047573
15250.0 0.00047468
15270.0 0.00047364
15290.0 0.00047266
15310.0 0.00047165
15330.0 0.00047062
15350.0 0.00046964
15370.0 0.00046867
15390.0 0.00046765
15410.0 0.00046666
15430.0 0.0004657
15450.0 0.00046472
15470.0 0.00046373
15490.0 0.00046278
15510.0 0.00046184
15530.0 0.00046086
15550.0 0.00045991
15570.0 0.00045899
15590.0 0.00045803
15610.0 0.00045705
15630.0 0.00045613
15650.0 0.00045521
15670.0 0.00045426
15690.0 0.00045333
15710.0 0.00045243
15730.0 0.0004515
15750.0 0.00045056
15770.0 0.00044966
15790.0 0.00044875
15810.0 0.0004478
15830.0 0.00044689
15850.0 0.000446
15870.0 0.00044509
15890.0 0.00044417
15910.0 0.00044329
15930.0 0.00044239
15950.0 0.00044146
15970.0 0.00044056
15990.0 0.00043968
16010.0 0.00043877
16030.0 0.00043784
16050.0 0.00043698
16070.0 0.00043609
16090.0 0.00043517
16110.0 0.00043429
16130.0 0.00043342
16150.0 0.00043249
16170.0 0.00043158
16190.0 0.00043071
16210.0 0.00042982
16230.0 0.0004289
16250.0 0.00042802
16270.0 0.00042715
16290.0 0.00042624
16310.0 0.00042533
16330.0 0.00042446
16350.0 0.00042356
16370.0 0.00042262
16390.0 0.00042174
16410.0 0.00042086
16430.0 0.00041995
16450.0 0.00041904
16470.0 0.00041817
16490.0 0.00041726
16510.0 0.00041633
16530.0 0.00041544
16550.0 0.00041455
16570.0 0.00041361
16590.0 0.00041269
16610.0 0.00041181
16630.0 0.0004109
16650.0 0.00040997
16670.0 0.00040907
16690.0 0.00040817
16710.0 0.00040721
16730.0 0.00040629
16750.0 0.00040539
16770.0 0.00040446
16790.0 0.00040351
16810.0 0.0004026
16830.0 0.00040169
16850.0 0.00040073
16870.0 0.0003998
16890.0 0.00039889
16910.0 0.00039793
16930.0 0.00039696
16950.0 0.00039604
16970.0 0.0003951
16990.0 0.00039413
17010.0 0.00039318
17030.0 0.00039226
17050.0 0.00039129
17070.0 0.00039032
17090.0 0.00038938
17110.0 0.00038842
17130.0 0.00038742
17150.0 0.00038646
17170.0 0.00038551
17190.0 0.00038453
17210.0 0.00038354
17230.0 0.00038259
17250.0 0.00038162
17270.0 0.0003806
17290.0 0.00037962
17310.0 0.00037865
17330.0 0.00037765
17350.0 0.00037663
17370.0 0.00037567
17390.0 0.00037468
17410.0 0.00037366
17430.0 0.00037266
17450.0 0.00037169
17470.0 0.00037064
17490.0 0.00036962
17510.0 0.00036863
17530.0 0.00036762
17550.0 0.00036657
17570.0 0.00036557
17590.0 0.00036457
17610.0 0.00036353
17630.0 0.00036249
17650.0 0.00036149
17670.0 0.00036046
17690.0 0.00035937
17710.0 0.00035836
17730.0 0.00035734
17750.0 0.00035628
17770.0 0.00035523
17790.0 0.00035423
17810.0 0.00035316
17830.0 0.00035209
17850.0 0.00035105
17870.0 0.00035001
17890.0 0.00034893
17910.0 0.00034786
17930.0 0.00034683
17950.0 0.00034577
17970.0 0.00034469
17990.0 0.00034364
18010.0 0.00034259
18030.0 0.00034148
18050.0 0.00034041
18070.0 0.00033936
18090.0 0.00033827
18110.0 0.00033717
18130.0 0.00033612
18150.0 0.00033505
18170.0 0.00033395
18190.0 0.00033287
18210.0 0.00033181
18230.0 0.0003307
18250.0 0.00032959
18270.0 0.00032852
18290.0 0.00032744
18310.0 0.00032632
18330.0 0.00032524
18350.0 0.00032417
18370.0 0.00032306
18390.0 0.00032195
18410.0 0.00032087
18430.0 0.00031977
18450.0 0.00031863
18470.0 0.00031754
18490.0 0.00031646
18510.0 0.00031534
18530.0 0.00031423
18550.0 0.00031315
18570.0 0.00031204
18590.0 0.0003109
18610.0 0.0003098
18630.0 0.00030871
18650.0 0.00030758
18670.0 0.00030645
18690.0 0.00030537
18710.0 0.00030426
18730.0 0.00030312
18750.0 0.00030202
18770.0 0.00030094
18790.0 0.00029978
18810.0 0.00029865
18830.0 0.00029756
18850.0 0.00029644
18870.0 0.0002953
18890.0 0.0002942
18910.0 0.00029311
18930.0 0.00029196
18950.0 0.00029084
18970.0 0.00028974
18990.0 0.00028862
19010.0 0.00028745
19030.0 0.00028636
19050.0 0.00028525
19070.0 0.00028412
19090.0 0.00028299
19110.0 0.00028191
19130.0 0.00028077
19150.0 0.00027963
19170.0 0.00027852
19190.0 0.00027741
19210.0 0.00027626
19230.0 0.00027513
19250.0 0.00027405
19270.0 0.00027292
19290.0 0.00027178
19310.0 0.00027069
19330.0 0.00026958
19350.0 0.00026842
19370.0 0.0002673
19390.0 0.0002662
19410.0 0.00026507
19430.0 0.00026393
19450.0 0.00026284
19470.0 0.00026173
19490.0 0.00026059
19510.0 0.00025948
19530.0 0.00025839
19550.0 0.00025725
19570.0 0.0002561
19590.0 0.00025501
19610.0 0.00025391
19630.0 0.00025277
19650.0 0.00025166
19670.0 0.00025058
19690.0 0.00024944
19710.0 0.00024832
19730.0 0.00024723
19750.0 0.00024612
19770.0 0.00024497
19790.0 0.00024387
19810.0 0.00024278
19830.0 0.00024165
19850.0 0.00024051
19870.0 0.0002394
19890.0 0.0002382
19910.0 0.00023689
19930.0 0.00023549
19950.0 0.00023388
19970.0 0.0002319
19990.0 0.00022952
20010.0 0.0002042
20030.0 0.00020124
20050.0 0.00019778
20070.0 0.00019404
20090.0 0.00019
20110.0 0.00018544
20130.0 0.00018083
20150.0 0.00017625
20170.0 0.00017151
20190.0 0.0001667
20210.0 0.00016215
20230.0 0.00015772
20250.0 0.00015328
20270.0 0.00014916
20290.0 0.00014539
20310.0 0.00014182
20330.0 0.00013847
20350.0 0.0001357
20370.0 0.00013324
20390.0 0.00013108
20410.0 0.00012933
20430.0 0.00012799
20450.0 0.00012692
20470.0 0.00012621
20490.0 0.00012583
20510.0 0.00012572
20530.0 0.00012587
20550.0 0.00012626
20570.0 0.00012682
20590.0 0.00012759
20610.0 0.00012852
20630.0 0.00012954
20650.0 0.00013068
20670.0 0.00013199
20690.0 0.00013332
20710.0 0.00013469
20730.0 0.00013618
20750.0 0.00013773
20770.0 0.00013925
20790.0 0.00014085
20810.0 0.00014254
20830.0 0.00014423
20850.0 0.00014592
20870.0 0.00014773
20890.0 0.00014958
20910.0 0.00015136
20930.0 0.00015321
20950.0 0.00015513
20970.0 0.000157
20990.0 0.00015884
21010.0 0.00016078
21030.0 0.00016267
21050.0 0.00016448
21070.0 0.00016628
21090.0 0.00016809
21110.0 0.00016975
21130.0 0.0001713
21150.0 0.0001728
21170.0 0.00017416
21190.0 0.00017533
21210.0 0.00017638
21230.0 0.00017726
21250.0 0.00017788
21270.0 0.00017828
21290.0 0.00017843
21310.0 0.00017829
21330.0 0.00017787
21350.0 0.00017713
21370.0 0.00017604
21390.0 0.00017466
21410.0 0.00017298
21430.0 0.00017084
21450.0 0.00016844
21470.0 0.00016583
21490.0 0.00016287
21510.0 0.00015963
21530.0 0.00015633
21550.0 0.00015288
21570.0 0.0001492
21590.0 0.00014558
21610.0 0.00014208
21630.0 0.00013858
21650.0 0.00013516
21670.0 0.0001322
21690.0 0.00012946
21710.0 0.000127
21730.0 0.00012498
21750.0 0.00012343
21770.0 0.00012224
21790.0 0.00012156
21810.0 0.00012137
21830.0 0.00012164
21850.0 0.0001224
21870.0 0.00012358
21890.0 0.00012512
21910.0 0.00012708
21930.0 0.00012939
21950.0 0.00013188
21970.0 0.00013465
21990.0 0.00013775
22010.0 0.00014085
22030.0 0.000144
22050.0 0.00014731
22070.0 0.00015064
22090.0 0.00015379
22110.0 0.00015697
22130.0 0.00016014
22150.0 0.0001631
22170.0 0.00016589
22190.0 0.00016866
22210.0 0.00017123
22230.0 0.0001735
22250.0 0.00017563
22270.0 0.00017759
22290.0 0.00017927
22310.0 0.00018071
22330.0 0.00018198
22350.0 0.00018296
22370.0 0.00018366
22390.0 0.00018409
22410.0 0.00018423
22430.0 0.00018405
22450.0 0.00018358
22470.0 0.00018276
22490.0 0.0001816
22510.0 0.00018017
22530.0 0.00017834
22550.0 0.0001761
22570.0 0.00017363
22590.0 0.00017083
22610.0 0.00016762
22630.0 0.00016414
22650.0 0.00016055
22670.0 0.00015658
22690.0 0.00015233
22710.0 0.00014805
22730.0 0.00014364
22750.0 0.00013886
22770.0 0.00013419
22790.0 0.00012962
22810.0 0.00012494
22830.0 0.00012026
22850.0 0.00011589
22870.0 0.0001116
22890.0 0.00010733
22910.0 0.0001034
22930.0 9.9801e-05
22950.0 9.6369e-05
22970.0 9.3194e-05
