#lamb flux
1010.0 7.4212e-06
1030.0 8.036e-06
1050.0 8.9037e-06
1070.0 9.8806e-06
1090.0 1.0946e-05
1110.0 1.2048e-05
1130.0 1.3163e-05
1150.0 1.4335e-05
1170.0 1.5542e-05
1190.0 1.6679e-05
1210.0 1.7816e-05
1230.0 1.8972e-05
1250.0 2.0086e-05
1270.0 2.1135e-05
1290.0 2.2212e-05
1310.0 2.325e-05
1330.0 2.4203e-05
1350.0 2.5137e-05
1370.0 2.6079e-05
1390.0 2.6973e-05
1410.0 2.7823e-05
1430.0 2.872e-05
1450.0 2.9624e-05
1470.0 3.0509e-05
1490.0 3.1433e-05
1510.0 3.245e-05
1530.0 3.3451e-05
1550.0 3.4487e-05
1570.0 3.5613e-05
1590.0 3.6799e-05
1610.0 3.8003e-05
1630.0 3.9321e-05
1650.0 4.0733e-05
1670.0 4.2177e-05
1690.0 4.367e-05
1710.0 4.5266e-05
1730.0 4.6922e-05
1750.0 4.8555e-05
1770.0 5.0255e-05
1790.0 5.2e-05
1810.0 5.3715e-05
1830.0 5.54e-05
1850.0 5.7129e-05
1870.0 5.8781e-05
1890.0 6.0326e-05
1910.0 6.1811e-05
1930.0 6.3224e-05
1950.0 6.4464e-05
1970.0 6.5558e-05
1990.0 6.6556e-05
2010.0 6.7387e-05
2030.0 6.8026e-05
2050.0 6.8553e-05
2070.0 6.8967e-05
2090.0 6.9179e-05
2110.0 6.9269e-05
2130.0 6.9286e-05
2150.0 6.9194e-05
2170.0 6.8988e-05
2190.0 6.8772e-05
2210.0 6.8531e-05
2230.0 6.8239e-05
2250.0 6.795e-05
2270.0 6.7726e-05
2290.0 6.7508e-05
2310.0 6.7302e-05
2330.0 6.7186e-05
2350.0 6.7148e-05
2370.0 6.7153e-05
2390.0 6.7258e-05
2410.0 6.7509e-05
2430.0 6.7851e-05
2450.0 6.8306e-05
2470.0 6.8942e-05
2490.0 6.9781e-05
2510.0 7.0781e-05
2530.0 7.2142e-05
2550.0 7.4156e-05
2570.0 7.7102e-05
2590.0 8.1374e-05
2610.0 8.8053e-05
2630.0 9.747e-05
2650.0 0.00010928
2670.0 0.00012373
2690.0 0.00014042
2710.0 0.00015717
2730.0 0.00017271
2750.0 0.00018686
2770.0 0.00019793
2790.0 0.00020552
2810.0 0.00021021
2830.0 0.00021234
2850.0 0.00021261
2870.0 0.0002119
2890.0 0.00021057
2910.0 0.00020915
2930.0 0.00020807
2950.0 0.00020715
2970.0 0.00020652
2990.0 0.00020643
3010.0 0.00027682
3030.0 0.00027767
3050.0 0.00027904
3070.0 0.0002811
3090.0 0.00028328
3110.0 0.00028541
3130.0 0.00028746
3150.0 0.0002902
3170.0 0.00029138
3190.0 0.00033665
3210.0 0.00053424
3230.0 0.00085202
3250.0 0.0010099
3270.0 0.00090738
3290.0 0.00072927
3310.0 0.00063361
3330.0 0.00059994
3350.0 0.00060504
3370.0 0.00062135
3390.0 0.00064031
3410.0 0.00065765
3430.0 0.00065903
3450.0 0.00066952
3470.0 0.00068409
3490.0 0.00073095
3510.0 0.00081917
3530.0 0.00092293
3550.0 0.0011086
3570.0 0.0013347
3590.0 0.0014541
3610.0 0.0014791
3630.0 0.0014832
3650.0 0.0015012
3670.0 0.001632
3690.0 0.0019406
3710.0 0.0022765
3730.0 0.0025105
3750.0 0.0026924
3770.0 0.002702
3790.0 0.0025632
3810.0 0.0023665
3830.0 0.0021003
3850.0 0.0018859
3870.0 0.001801
3890.0 0.0020015
3910.0 0.0023896
3930.0 0.0027851
3950.0 0.0031011
3970.0 0.0032657
3990.0 0.0032989
4010.0 0.003253
4030.0 0.0029117
4050.0 0.0024242
4070.0 0.0021654
4090.0 0.0021926
4110.0 0.0023539
4130.0 0.0024316
4150.0 0.0024465
4170.0 0.0024399
4190.0 0.0024734
4210.0 0.0024925
4230.0 0.0025777
4250.0 0.0026545
4270.0 0.0027221
4290.0 0.0027532
4310.0 0.0028074
4330.0 0.0028751
4350.0 0.0029141
4370.0 0.0028166
4390.0 0.0025841
4410.0 0.0022741
4430.0 0.0019833
4450.0 0.0018122
4470.0 0.0018254
4490.0 0.0019699
4510.0 0.0022125
4530.0 0.0025816
4550.0 0.0031518
4570.0 0.0038221
4590.0 0.0045989
4610.0 0.0053696
4630.0 0.0058418
4650.0 0.005984
4670.0 0.0058981
4690.0 0.0054942
4710.0 0.0048022
4730.0 0.0040166
4750.0 0.0033643
4770.0 0.0029502
4790.0 0.0028664
4810.0 0.0029573
4830.0 0.0031152
4850.0 0.0033364
4870.0 0.0036001
4890.0 0.0037552
4910.0 0.0039021
4930.0 0.0041938
4950.0 0.0045086
4970.0 0.0045934
4990.0 0.0043659
5010.0 0.0039002
5030.0 0.0033369
5050.0 0.0028917
5070.0 0.0026184
5090.0 0.0024866
5110.0 0.0024754
5130.0 0.0024887
5150.0 0.0024836
5170.0 0.0025118
5190.0 0.0026378
5210.0 0.0029023
5230.0 0.0032483
5250.0 0.0036891
5270.0 0.0041542
5290.0 0.0045134
5310.0 0.004788
5330.0 0.0050471
5350.0 0.0051937
5370.0 0.0051478
5390.0 0.0050398
5410.0 0.0050461
5430.0 0.0053034
5450.0 0.0058252
5470.0 0.0063957
5490.0 0.0067547
5510.0 0.006851
5530.0 0.0067861
5550.0 0.0066294
5570.0 0.0064154
5590.0 0.0062125
5610.0 0.006047
5630.0 0.0059197
5650.0 0.0057182
5670.0 0.0053522
5690.0 0.0049418
5710.0 0.004614
5730.0 0.0043492
5750.0 0.0042483
5770.0 0.0043234
5790.0 0.004425
5810.0 0.0044549
5830.0 0.004463
5850.0 0.0044244
5870.0 0.004317
5890.0 0.0042739
5910.0 0.0042797
5930.0 0.0041444
5950.0 0.0038436
5970.0 0.0034502
5990.0 0.0030559
6010.0 0.0027737
6030.0 0.0026681
6050.0 0.0027461
6070.0 0.0028704
6090.0 0.0028581
6110.0 0.0027831
6130.0 0.0028119
6150.0 0.0029415
6170.0 0.0030655
6190.0 0.0031299
6210.0 0.0031251
6230.0 0.0029994
6250.0 0.0027449
6270.0 0.0024358
6290.0 0.0021878
6310.0 0.0021265
6330.0 0.0022365
6350.0 0.0023949
6370.0 0.0025549
6390.0 0.0028093
6410.0 0.0031665
6430.0 0.0034506
6450.0 0.0035987
6470.0 0.0036991
6490.0 0.003784
6510.0 0.0038225
6530.0 0.0038411
6550.0 0.003891
6570.0 0.0039165
6590.0 0.0038991
6610.0 0.0038154
6630.0 0.0036502
6650.0 0.0034185
6670.0 0.0031903
6690.0 0.0030398
6710.0 0.0029279
6730.0 0.0028039
6750.0 0.0027352
6770.0 0.0027796
6790.0 0.0028433
6810.0 0.0028452
6830.0 0.002796
6850.0 0.0027257
6870.0 0.0026552
6890.0 0.0025952
6910.0 0.0025983
6930.0 0.0026218
6950.0 0.0026239
6970.0 0.0026219
6990.0 0.0025918
7010.0 0.0025142
7030.0 0.0023708
7050.0 0.0021728
7070.0 0.0020198
7090.0 0.0020027
7110.0 0.0020517
7130.0 0.0020265
7150.0 0.0019492
7170.0 0.0019597
7190.0 0.0020907
7210.0 0.0022439
7230.0 0.0023644
7250.0 0.0024287
7270.0 0.0023845
7290.0 0.0022873
7310.0 0.002226
7330.0 0.0022543
7350.0 0.0023256
7370.0 0.0023764
7390.0 0.0024603
7410.0 0.0026118
7430.0 0.0027615
7450.0 0.0028618
7470.0 0.0028789
7490.0 0.0027433
7510.0 0.0025661
7530.0 0.0024877
7550.0 0.0023862
7570.0 0.0022816
7590.0 0.0022341
7610.0 0.0022285
7630.0 0.0022768
7650.0 0.0024063
7670.0 0.0025775
7690.0 0.0027356
7710.0 0.0028435
7730.0 0.0029333
7750.0 0.0030098
7770.0 0.0030594
7790.0 0.0031078
7810.0 0.0031088
7830.0 0.0030081
7850.0 0.0028928
7870.0 0.0028137
7890.0 0.0027764
7910.0 0.0027674
7930.0 0.0027037
7950.0 0.0026216
7970.0 0.0025284
7990.0 0.0024563
8010.0 0.0023169
8030.0 0.0023114
8050.0 0.0022995
8070.0 0.0022651
8090.0 0.0022377
8110.0 0.0022092
8130.0 0.0022074
8150.0 0.0021886
8170.0 0.0021515
8190.0 0.0020857
8210.0 0.0019976
8230.0 0.001918
8250.0 0.001886
8270.0 0.0017874
8290.0 0.0015804
8310.0 0.0013553
8330.0 0.0012028
8350.0 0.0011566
8370.0 0.0012473
8390.0 0.0013941
8410.0 0.0014859
8430.0 0.0015526
8450.0 0.0016623
8470.0 0.001785
8490.0 0.0019408
8510.0 0.002114
8530.0 0.0022897
8550.0 0.0024266
8570.0 0.0025261
8590.0 0.0025999
8610.0 0.0026471
8630.0 0.0026406
8650.0 0.0025907
8670.0 0.0025915
8690.0 0.0027095
8710.0 0.0028694
8730.0 0.0029362
8750.0 0.0029045
8770.0 0.0029219
8790.0 0.0029187
8810.0 0.0028029
8830.0 0.0025948
8850.0 0.0023375
8870.0 0.0021445
8890.0 0.0020807
8910.0 0.0020293
8930.0 0.0018938
8950.0 0.0017552
8970.0 0.0017
8990.0 0.0017084
9010.0 0.0016883
9030.0 0.0016621
9050.0 0.0016471
9070.0 0.0016386
9090.0 0.0016309
9110.0 0.0016235
9130.0 0.0016162
9150.0 0.0016089
9170.0 0.0016016
9190.0 0.0015951
9210.0 0.0015902
9230.0 0.0015823
9250.0 0.0015748
9270.0 0.0015677
9290.0 0.0015609
9310.0 0.0015542
9330.0 0.0015476
9350.0 0.0015413
9370.0 0.001535
9390.0 0.0015287
9410.0 0.0015225
9430.0 0.0015161
9450.0 0.0015079
9470.0 0.0015004
9490.0 0.0014965
9510.0 0.0014917
9530.0 0.0014867
9550.0 0.0014813
9570.0 0.0014759
9590.0 0.0014705
9610.0 0.0014652
9630.0 0.0014597
9650.0 0.0014543
9670.0 0.0014491
9690.0 0.0014438
9710.0 0.0014386
9730.0 0.0014335
9750.0 0.0014283
9770.0 0.0014231
9790.0 0.001418
9810.0 0.001413
9830.0 0.0014079
9850.0 0.0014027
9870.0 0.0013979
9890.0 0.0013929
9910.0 0.0013878
9930.0 0.0013828
9950.0 0.0013743
9970.0 0.0013702
9990.0 0.001366
10010.0 0.0013617
10030.0 0.0013571
10050.0 0.0013522
10070.0 0.0013473
10090.0 0.0013425
10110.0 0.0013369
10130.0 0.0013297
10150.0 0.0013249
10170.0 0.0013203
10190.0 0.0013151
10210.0 0.0013101
10230.0 0.0013051
10250.0 0.0012995
10270.0 0.0012939
10290.0 0.0012885
10310.0 0.0012827
10330.0 0.0012765
10350.0 0.0012707
10370.0 0.0012648
10390.0 0.0012585
10410.0 0.0012521
10430.0 0.0012462
10450.0 0.0012397
10470.0 0.001233
10490.0 0.0012265
10510.0 0.0012199
10530.0 0.0012126
10550.0 0.0012055
10570.0 0.0011987
10590.0 0.0011913
10610.0 0.0011837
10630.0 0.0011764
10650.0 0.001169
10670.0 0.0011608
10690.0 0.0011528
10710.0 0.001145
10730.0 0.0011367
10750.0 0.0011278
10770.0 0.0011196
10790.0 0.0011111
10810.0 0.001102
10830.0 0.001093
10850.0 0.0010843
10870.0 0.0010746
10890.0 0.0010649
10910.0 0.0010554
10930.0 0.0010457
10950.0 0.0010354
10970.0 0.0010252
10990.0 0.0010154
11010.0 0.001063
11030.0 0.0010521
11050.0 0.0010416
11070.0 0.0010311
11090.0 0.0010199
11110.0 0.0010096
11130.0 0.00099959
11150.0 0.00098929
11170.0 0.0009791
11190.0 0.00096962
11210.0 0.00096002
11230.0 0.00095033
11250.0 0.00094122
11270.0 0.00093251
11290.0 0.00092364
11310.0 0.00091504
11330.0 0.0009072
11350.0 0.00089933
11370.0 0.0008914
11390.0 0.00088379
11410.0 0.00087626
11430.0 0.00086812
11450.0 0.00085987
11470.0 0.00085151
11490.0 0.00084251
11510.0 0.00083265
11530.0 0.00082263
11550.0 0.0008121
11570.0 0.00080055
11590.0 0.00078852
11610.0 0.00077636
11630.0 0.0007633
11650.0 0.00074951
11670.0 0.000736
11690.0 0.00072225
11710.0 0.00070785
11730.0 0.00069345
11750.0 0.00067949
11770.0 0.00066495
11790.0 0.00065017
11810.0 0.00063579
11830.0 0.00062143
11850.0 0.00060635
11870.0 0.00059172
11890.0 0.00057761
11910.0 0.00056322
11930.0 0.00054887
11950.0 0.00053528
11970.0 0.00052191
11990.0 0.00050844
12010.0 0.00049577
12030.0 0.00048387
12050.0 0.00047223
12070.0 0.00046106
12090.0 0.00045114
12110.0 0.0004418
12130.0 0.00043302
12150.0 0.00042522
12170.0 0.0004184
12190.0 0.00041216
12210.0 0.00040692
12230.0 0.00040273
12250.0 0.00039942
12270.0 0.00039702
12290.0 0.00039556
12310.0 0.00039491
12330.0 0.00039509
12350.0 0.00039602
12370.0 0.00039746
12390.0 0.00039945
12410.0 0.0004021
12430.0 0.00040482
12450.0 0.00040769
12470.0 0.00041082
12490.0 0.00041397
12510.0 0.00041684
12530.0 0.00041971
12550.0 0.00042248
12570.0 0.0004248
12590.0 0.00042673
12610.0 0.00042839
12630.0 0.00042952
12650.0 0.00042992
12670.0 0.00042979
12690.0 0.00042901
12710.0 0.00042748
12730.0 0.00042527
12750.0 0.0004223
12770.0 0.00041861
12790.0 0.00041432
12810.0 0.00040938
12830.0 0.0004038
12850.0 0.00039794
12870.0 0.00039178
12890.0 0.00038522
12910.0 0.00037857
12930.0 0.00037202
12950.0 0.00036532
12970.0 0.00035861
12990.0 0.00035227
13010.0 0.00034609
13030.0 0.00033997
13050.0 0.00033414
13070.0 0.00032867
13090.0 0.00032324
13110.0 0.000318
13130.0 0.00031308
13150.0 0.00030835
13170.0 0.00030365
13190.0 0.00029925
13210.0 0.00029512
13230.0 0.00029108
13250.0 0.00028719
13270.0 0.00028356
13290.0 0.00028006
13310.0 0.00027662
13330.0 0.00027339
13350.0 0.00027031
13370.0 0.00026729
13390.0 0.00026433
13410.0 0.00026157
13430.0 0.00025885
13450.0 0.00025614
13470.0 0.00025353
13490.0 0.00025101
13510.0 0.00024843
13530.0 0.00024589
13550.0 0.00024344
13570.0 0.00024098
13590.0 0.00023848
13610.0 0.00023605
13630.0 0.00023367
13650.0 0.00023123
13670.0 0.00022881
13690.0 0.00022647
13710.0 0.00022412
13730.0 0.00022171
13750.0 0.00021943
13770.0 0.00021719
13790.0 0.00021494
13810.0 0.00021274
13830.0 0.00021065
13850.0 0.00020856
13870.0 0.0002065
13890.0 0.00020455
13910.0 0.00020267
13930.0 0.00020079
13950.0 0.00019899
13970.0 0.00019732
13990.0 0.00019567
14010.0 0.00019404
14030.0 0.00019249
14050.0 0.00019099
14070.0 0.00018944
14090.0 0.00018794
14110.0 0.00018648
14130.0 0.00018501
14150.0 0.00018352
14170.0 0.00018211
14190.0 0.00018072
14210.0 0.00017932
14230.0 0.00017799
14250.0 0.00017676
14270.0 0.00017555
14290.0 0.00017441
14310.0 0.00017341
14330.0 0.0001725
14350.0 0.00017165
14370.0 0.00017092
14390.0 0.00017029
14410.0 0.00016971
14430.0 0.0001692
14450.0 0.00016876
14470.0 0.00016836
14490.0 0.00016797
14510.0 0.00016762
14530.0 0.00016729
14550.0 0.00016696
14570.0 0.00016664
14590.0 0.00016635
14610.0 0.00016608
14630.0 0.00016583
14650.0 0.00016567
14670.0 0.00016561
14690.0 0.00016567
14710.0 0.00016592
14730.0 0.00016638
14750.0 0.00016711
14770.0 0.00016817
14790.0 0.00016957
14810.0 0.00017132
14830.0 0.00017363
14850.0 0.00017639
14870.0 0.0001795
14890.0 0.00018308
14910.0 0.0001871
14930.0 0.0001912
14950.0 0.00019525
14970.0 0.00019929
14990.0 0.00020295
15010.0 0.00020603
15030.0 0.00020861
15050.0 0.00021071
15070.0 0.00021226
15090.0 0.00021347
15110.0 0.00021446
15130.0 0.0002153
15150.0 0.00021607
15170.0 0.00021681
15190.0 0.00021754
15210.0 0.00021828
15230.0 0.00021903
15250.0 0.0002198
15270.0 0.00022058
15290.0 0.00022138
15310.0 0.00022219
15330.0 0.00022301
15350.0 0.00022386
15370.0 0.00022472
15390.0 0.00022559
15410.0 0.00022647
15430.0 0.00022737
15450.0 0.00022829
15470.0 0.00022921
15490.0 0.00023015
15510.0 0.00023111
15530.0 0.00023208
15550.0 0.00023306
15570.0 0.00023405
15590.0 0.00023505
15610.0 0.00023607
15630.0 0.0002371
15650.0 0.00023814
15670.0 0.00023919
15690.0 0.00024025
15710.0 0.00024133
15730.0 0.00024241
15750.0 0.00024351
15770.0 0.00024461
15790.0 0.00024572
15810.0 0.00024685
15830.0 0.00024798
15850.0 0.00024912
15870.0 0.00025027
15890.0 0.00025142
15910.0 0.00025259
15930.0 0.00025376
15950.0 0.00025493
15970.0 0.00025612
15990.0 0.00025731
16010.0 0.00025851
16030.0 0.00025971
16050.0 0.00026091
16070.0 0.00026213
16090.0 0.00026334
16110.0 0.00026456
16130.0 0.00026578
16150.0 0.00026701
16170.0 0.00026824
16190.0 0.00026947
16210.0 0.0002707
16230.0 0.00027193
16250.0 0.00027317
16270.0 0.0002744
16290.0 0.00027564
16310.0 0.00027687
16330.0 0.00027811
16350.0 0.00027934
16370.0 0.00028057
16390.0 0.0002818
16410.0 0.00028302
16430.0 0.00028424
16450.0 0.00028546
16470.0 0.00028668
16490.0 0.00028789
16510.0 0.00028909
16530.0 0.00029029
16550.0 0.00029148
16570.0 0.00029267
16590.0 0.00029385
16610.0 0.00029502
16630.0 0.00029619
16650.0 0.00029734
16670.0 0.00029849
16690.0 0.00029963
16710.0 0.00030075
16730.0 0.00030187
16750.0 0.00030298
16770.0 0.00030407
16790.0 0.00030515
16810.0 0.00030623
16830.0 0.00030728
16850.0 0.00030833
16870.0 0.00030936
16890.0 0.00031038
16910.0 0.00031138
16930.0 0.00031237
16950.0 0.00031334
16970.0 0.0003143
16990.0 0.00031524
17010.0 0.00031616
17030.0 0.00031707
17050.0 0.00031796
17070.0 0.00031883
17090.0 0.00031968
17110.0 0.00032052
17130.0 0.00032133
17150.0 0.00032213
17170.0 0.0003229
17190.0 0.00032366
17210.0 0.00032439
17230.0 0.00032511
17250.0 0.0003258
17270.0 0.00032647
17290.0 0.00032712
17310.0 0.00032775
17330.0 0.00032835
17350.0 0.00032893
17370.0 0.00032949
17390.0 0.00033002
17410.0 0.00033053
17430.0 0.00033102
17450.0 0.00033149
17470.0 0.00033192
17490.0 0.00033234
17510.0 0.00033273
17530.0 0.00033309
17550.0 0.00033343
17570.0 0.00033374
17590.0 0.00033403
17610.0 0.00033429
17630.0 0.00033453
17650.0 0.00033474
17670.0 0.00033492
17690.0 0.00033508
17710.0 0.00033521
17730.0 0.00033532
17750.0 0.0003354
17770.0 0.00033545
17790.0 0.00033548
17810.0 0.00033548
17830.0 0.00033545
17850.0 0.00033539
17870.0 0.00033531
17890.0 0.00033521
17910.0 0.00033507
17930.0 0.00033491
17950.0 0.00033473
17970.0 0.00033451
17990.0 0.00033428
18010.0 0.00033401
18030.0 0.00033372
18050.0 0.0003334
18070.0 0.00033306
18090.0 0.00033269
18110.0 0.00033229
18130.0 0.00033187
18150.0 0.00033143
18170.0 0.00033096
18190.0 0.00033046
18210.0 0.00032994
18230.0 0.00032939
18250.0 0.00032882
18270.0 0.00032823
18290.0 0.00032761
18310.0 0.00032697
18330.0 0.0003263
18350.0 0.00032562
18370.0 0.0003249
18390.0 0.00032417
18410.0 0.00032341
18430.0 0.00032263
18450.0 0.00032183
18470.0 0.00032101
18490.0 0.00032017
18510.0 0.0003193
18530.0 0.00031842
18550.0 0.00031751
18570.0 0.00031659
18590.0 0.00031564
18610.0 0.00031467
18630.0 0.00031369
18650.0 0.00031269
18670.0 0.00031166
18690.0 0.00031063
18710.0 0.00030957
18730.0 0.00030849
18750.0 0.0003074
18770.0 0.0003063
18790.0 0.00030517
18810.0 0.00030403
18830.0 0.00030287
18850.0 0.0003017
18870.0 0.00030052
18890.0 0.00029932
18910.0 0.0002981
18930.0 0.00029688
18950.0 0.00029563
18970.0 0.00029438
18990.0 0.00029311
19010.0 0.00029184
19030.0 0.00029055
19050.0 0.00028924
19070.0 0.00028793
19090.0 0.00028661
19110.0 0.00028527
19130.0 0.00028393
19150.0 0.00028258
19170.0 0.00028121
19190.0 0.00027984
19210.0 0.00027846
19230.0 0.00027708
19250.0 0.00027568
19270.0 0.00027428
19290.0 0.00027287
19310.0 0.00027145
19330.0 0.00027003
19350.0 0.0002686
19370.0 0.00026717
19390.0 0.00026573
19410.0 0.00026428
19430.0 0.00026283
19450.0 0.00026138
19470.0 0.00025992
19490.0 0.00025846
19510.0 0.000257
19530.0 0.00025553
19550.0 0.00025406
19570.0 0.00025259
19590.0 0.00025112
19610.0 0.00024964
19630.0 0.00024817
19650.0 0.00024669
19670.0 0.00024521
19690.0 0.00024373
19710.0 0.00024225
19730.0 0.00024077
19750.0 0.00023929
19770.0 0.00023781
19790.0 0.00023633
19810.0 0.00023486
19830.0 0.00023337
19850.0 0.00023188
19870.0 0.00023038
19890.0 0.00022883
19910.0 0.00022719
19930.0 0.00022543
19950.0 0.00022349
19970.0 0.00022125
19990.0 0.00021867
20010.0 0.00021579
20030.0 0.00021249
20050.0 0.00020879
20070.0 0.00020489
20090.0 0.00020083
20110.0 0.00019645
20130.0 0.00019212
20150.0 0.00018791
20170.0 0.00018366
20190.0 0.00017945
20210.0 0.00017546
20230.0 0.0001716
20250.0 0.00016775
20270.0 0.00016412
20290.0 0.00016071
20310.0 0.0001574
20330.0 0.00015419
20350.0 0.00015131
20370.0 0.00014857
20390.0 0.00014596
20410.0 0.00014356
20430.0 0.00014138
20450.0 0.0001393
20470.0 0.00013739
20490.0 0.00013567
20510.0 0.00013409
20530.0 0.00013262
20550.0 0.00013128
20570.0 0.00013007
20590.0 0.00012893
20610.0 0.00012788
20630.0 0.0001269
20650.0 0.00012597
20670.0 0.00012508
20690.0 0.00012422
20710.0 0.00012337
20730.0 0.00012253
20750.0 0.00012167
20770.0 0.0001208
20790.0 0.0001199
20810.0 0.00011897
20830.0 0.00011799
20850.0 0.00011698
20870.0 0.00011592
20890.0 0.0001148
20910.0 0.00011365
20930.0 0.00011245
20950.0 0.0001112
20970.0 0.00010993
20990.0 0.00010864
21010.0 0.00010729
21030.0 0.00010593
21050.0 0.00010458
21070.0 0.00010321
21090.0 0.00010181
21110.0 0.00010045
21130.0 9.9102e-05
21150.0 9.7745e-05
21170.0 9.6411e-05
21190.0 9.5121e-05
21210.0 9.383e-05
21230.0 9.2552e-05
21250.0 9.1329e-05
21270.0 9.0138e-05
21290.0 8.896e-05
21310.0 8.7821e-05
21330.0 8.674e-05
21350.0 8.5677e-05
21370.0 8.4646e-05
21390.0 8.3668e-05
21410.0 8.273e-05
21430.0 8.1811e-05
21450.0 8.0947e-05
21470.0 8.0131e-05
21490.0 7.9345e-05
21510.0 7.8596e-05
21530.0 7.7892e-05
21550.0 7.7221e-05
21570.0 7.6577e-05
21590.0 7.5966e-05
21610.0 7.5383e-05
21630.0 7.4822e-05
21650.0 7.428e-05
21670.0 7.3759e-05
21690.0 7.3252e-05
21710.0 7.2756e-05
21730.0 7.2271e-05
21750.0 7.1794e-05
21770.0 7.1323e-05
21790.0 7.0857e-05
21810.0 7.0397e-05
21830.0 6.9941e-05
21850.0 6.9489e-05
21870.0 6.9042e-05
21890.0 6.8598e-05
21910.0 6.8157e-05
21930.0 6.7718e-05
21950.0 6.7283e-05
21970.0 6.6849e-05
21990.0 6.6414e-05
22010.0 6.5979e-05
22030.0 6.5543e-05
22050.0 6.5101e-05
22070.0 6.4655e-05
22090.0 6.4204e-05
22110.0 6.3745e-05
22130.0 6.3275e-05
22150.0 6.2798e-05
22170.0 6.2314e-05
22190.0 6.1812e-05
22210.0 6.1299e-05
22230.0 6.0784e-05
22250.0 6.0253e-05
22270.0 5.9706e-05
22290.0 5.9155e-05
22310.0 5.8595e-05
22330.0 5.801e-05
22350.0 5.7416e-05
22370.0 5.6817e-05
22390.0 5.6198e-05
22410.0 5.5552e-05
22430.0 5.4908e-05
22450.0 5.425e-05
22470.0 5.3563e-05
22490.0 5.2864e-05
22510.0 5.2166e-05
22530.0 5.1435e-05
22550.0 5.0683e-05
22570.0 4.9941e-05
22590.0 4.9191e-05
22610.0 4.8419e-05
22630.0 4.7652e-05
22650.0 4.6908e-05
22670.0 4.6151e-05
22690.0 4.5397e-05
22710.0 4.4673e-05
22730.0 4.3966e-05
22750.0 4.3251e-05
22770.0 4.2577e-05
22790.0 4.194e-05
22810.0 4.1315e-05
22830.0 4.0713e-05
22850.0 4.0157e-05
22870.0 3.9624e-05
22890.0 3.9106e-05
22910.0 3.8624e-05
22930.0 3.8175e-05
22950.0 3.7742e-05
22970.0 3.7325e-05
22990.0 3.6947e-05
23010.0 3.6581e-05
