#lamb flux
1010.0 4.2921e-06
1030.0 4.7732e-06
1050.0 5.2382e-06
1070.0 5.7631e-06
1090.0 6.3863e-06
1110.0 7.023e-06
1130.0 7.6635e-06
1150.0 8.3363e-06
1170.0 9.0357e-06
1190.0 9.7101e-06
1210.0 1.0408e-05
1230.0 1.1147e-05
1250.0 1.1889e-05
1270.0 1.2639e-05
1290.0 1.3455e-05
1310.0 1.4303e-05
1330.0 1.5153e-05
1350.0 1.6039e-05
1370.0 1.6975e-05
1390.0 1.7916e-05
1410.0 1.8852e-05
1430.0 1.9833e-05
1450.0 2.082e-05
1470.0 2.1782e-05
1490.0 2.2747e-05
1510.0 2.3745e-05
1530.0 2.4684e-05
1550.0 2.5592e-05
1570.0 2.6501e-05
1590.0 2.7382e-05
1610.0 2.819e-05
1630.0 2.8977e-05
1650.0 2.9743e-05
1670.0 3.044e-05
1690.0 3.1083e-05
1710.0 3.171e-05
1730.0 3.2297e-05
1750.0 3.2793e-05
1770.0 3.3271e-05
1790.0 3.3728e-05
1810.0 3.4128e-05
1830.0 3.4489e-05
1850.0 3.4876e-05
1870.0 3.523e-05
1890.0 3.5556e-05
1910.0 3.5899e-05
1930.0 3.6269e-05
1950.0 3.6623e-05
1970.0 3.6991e-05
1990.0 3.7411e-05
2010.0 3.7846e-05
2030.0 3.8286e-05
2050.0 3.8772e-05
2070.0 3.9297e-05
2090.0 3.9801e-05
2110.0 4.0315e-05
2130.0 4.0851e-05
2150.0 4.137e-05
2170.0 4.1847e-05
2190.0 4.2324e-05
2210.0 4.2775e-05
2230.0 4.3161e-05
2250.0 4.3497e-05
2270.0 4.381e-05
2290.0 4.4045e-05
2310.0 4.4193e-05
2330.0 4.4298e-05
2350.0 4.4342e-05
2370.0 4.4295e-05
2390.0 4.4186e-05
2410.0 4.4032e-05
2430.0 4.3787e-05
2450.0 4.3452e-05
2470.0 4.305e-05
2490.0 4.2576e-05
2510.0 4.2031e-05
2530.0 4.1518e-05
2550.0 4.1191e-05
2570.0 4.1232e-05
2590.0 4.185e-05
2610.0 4.351e-05
2630.0 4.6356e-05
2650.0 5.0187e-05
2670.0 5.5029e-05
2690.0 6.0625e-05
2710.0 6.5964e-05
2730.0 7.0448e-05
2750.0 7.3882e-05
2770.0 7.5441e-05
2790.0 7.489e-05
2810.0 7.2327e-05
2830.0 6.7656e-05
2850.0 6.1484e-05
2870.0 5.4166e-05
2890.0 4.5752e-05
2910.0 3.6706e-05
2930.0 2.7561e-05
2950.0 1.7876e-05
2970.0 7.7956e-06
2990.0 3.0004e-06
3010.0 5.6054e-06
3030.0 5.6054e-06
3050.0 5.6054e-06
3070.0 5.6054e-06
3090.0 5.6054e-06
3110.0 5.6054e-06
3130.0 5.6054e-06
3150.0 5.6054e-06
3170.0 5.6054e-06
3190.0 5.6054e-06
3210.0 3.6475e-05
3230.0 0.00031742
3250.0 0.0005086
3270.0 0.00045849
3290.0 0.00038297
3310.0 0.00028905
3330.0 0.00027427
3350.0 0.00029914
3370.0 0.00033777
3390.0 0.0003793
3410.0 0.00042377
3430.0 0.00048325
3450.0 0.00053988
3470.0 0.00059816
3490.0 0.00061066
3510.0 0.00052465
3530.0 0.00048173
3550.0 0.00056734
3570.0 0.00065767
3590.0 0.00072401
3610.0 0.00072594
3630.0 0.00084414
3650.0 0.00089011
3670.0 0.00092885
3690.0 0.00098319
3710.0 0.0009896
3730.0 0.0010233
3750.0 0.0010179
3770.0 0.0010134
3790.0 0.00097571
3810.0 0.00091668
3830.0 0.00086772
3850.0 0.00054378
3870.0 0.00057433
3890.0 0.00065768
3910.0 0.00086518
3930.0 0.0011201
3950.0 0.0012136
3970.0 0.0013021
3990.0 0.0015102
4010.0 0.0014227
4030.0 0.0012586
4050.0 0.00090126
4070.0 0.00079246
4090.0 0.0010613
4110.0 0.0011191
4130.0 0.0012183
4150.0 0.0011893
4170.0 0.0011253
4190.0 0.0010305
4210.0 0.0012678
4230.0 0.0013571
4250.0 0.0014715
4270.0 0.001426
4290.0 0.0013813
4310.0 0.0014481
4330.0 0.00168
4350.0 0.0018181
4370.0 0.0018368
4390.0 0.0016991
4410.0 0.0015471
4430.0 0.0012098
4450.0 0.00097142
4470.0 0.0010124
4490.0 0.0011658
4510.0 0.001228
4530.0 0.0012293
4550.0 0.0012349
4570.0 0.0017335
4590.0 0.0025844
4610.0 0.0030522
4630.0 0.003136
4650.0 0.0034437
4670.0 0.0040309
4690.0 0.0043129
4710.0 0.0036464
4730.0 0.0027899
4750.0 0.0021647
4770.0 0.001832
4790.0 0.00165
4810.0 0.0015614
4830.0 0.0017289
4850.0 0.0020759
4870.0 0.0023001
4890.0 0.0023859
4910.0 0.0022976
4930.0 0.0025194
4950.0 0.0030339
4970.0 0.0034585
4990.0 0.0035466
5010.0 0.0032456
5030.0 0.0026852
5050.0 0.0020933
5070.0 0.0016983
5090.0 0.0015507
5110.0 0.0015379
5130.0 0.0015642
5150.0 0.0015471
5170.0 0.0014433
5190.0 0.0013559
5210.0 0.0013476
5230.0 0.0015265
5250.0 0.0018386
5270.0 0.0021857
5290.0 0.0024422
5310.0 0.0026092
5330.0 0.0028816
5350.0 0.0031609
5370.0 0.0031973
5390.0 0.0028753
5410.0 0.0025502
5430.0 0.0025058
5450.0 0.0028962
5470.0 0.0034974
5490.0 0.003977
5510.0 0.0041579
5530.0 0.0040642
5550.0 0.0038577
5570.0 0.0036815
5590.0 0.0035019
5610.0 0.0033892
5630.0 0.0033472
5650.0 0.0033231
5670.0 0.0031842
5690.0 0.0028274
5710.0 0.0023845
5730.0 0.0021228
5750.0 0.0020254
5770.0 0.0020513
5790.0 0.0020843
5810.0 0.0021098
5830.0 0.0020962
5850.0 0.001976
5870.0 0.0018462
5890.0 0.0017853
5910.0 0.001812
5930.0 0.0018235
5950.0 0.001675
5970.0 0.001435
5990.0 0.0011477
6010.0 0.00092327
6030.0 0.00086354
6050.0 0.00093961
6070.0 0.00099321
6090.0 0.00093478
6110.0 0.00082973
6130.0 0.00085509
6150.0 0.00099113
6170.0 0.001126
6190.0 0.0012195
6210.0 0.0012408
6230.0 0.0012244
6250.0 0.0011152
6270.0 0.00092841
6290.0 0.00076647
6310.0 0.00068657
6330.0 0.00067645
6350.0 0.00068809
6370.0 0.0007063
6390.0 0.00080735
6410.0 0.0010059
6430.0 0.0012163
6450.0 0.001338
6470.0 0.0013749
6490.0 0.0013764
6510.0 0.0013993
6530.0 0.0014305
6550.0 0.0014315
6570.0 0.0014829
6590.0 0.0015247
6610.0 0.001544
6630.0 0.0015019
6650.0 0.0013929
6670.0 0.0012722
6690.0 0.0011721
6710.0 0.0011162
6730.0 0.0010899
6750.0 0.0010946
6770.0 0.0011243
6790.0 0.0011652
6810.0 0.0011911
6830.0 0.0011701
6850.0 0.0011095
6870.0 0.0010398
6890.0 0.0010159
6910.0 0.00099705
6930.0 0.0010314
6950.0 0.0010825
6970.0 0.0011098
6990.0 0.0011254
7010.0 0.0010902
7030.0 0.0010015
7050.0 0.00088857
7070.0 0.00080377
7090.0 0.0007672
7110.0 0.00076439
7130.0 0.00073405
7150.0 0.00065107
7170.0 0.00062237
7190.0 0.0006892
7210.0 0.00080286
7230.0 0.00091815
7250.0 0.00096344
7270.0 0.00094617
7290.0 0.00087629
7310.0 0.00081445
7330.0 0.00078964
7350.0 0.00079495
7370.0 0.00080868
7390.0 0.00084906
7410.0 0.00094299
7430.0 0.0010813
7450.0 0.0012079
7470.0 0.0012618
7490.0 0.0012195
7510.0 0.0011391
7530.0 0.0010331
7550.0 0.00096457
7570.0 0.0008855
7590.0 0.00085088
7610.0 0.00087784
7630.0 0.00095035
7650.0 0.0010561
7670.0 0.0011715
7690.0 0.0012646
7710.0 0.0013544
7730.0 0.0014437
7750.0 0.0015211
7770.0 0.0015295
7790.0 0.0015572
7810.0 0.0015907
7830.0 0.0015826
7850.0 0.001543
7870.0 0.0015159
7890.0 0.0015458
7910.0 0.0015345
7930.0 0.0015202
7950.0 0.0014577
7970.0 0.0014224
7990.0 0.0013789
8010.0 0.0013858
8030.0 0.0014062
8050.0 0.0014227
8070.0 0.0014154
8090.0 0.0014146
8110.0 0.0013804
8130.0 0.0013893
8150.0 0.0013834
8170.0 0.0013592
8190.0 0.0013362
8210.0 0.0013314
8230.0 0.0013085
8250.0 0.001297
8270.0 0.0011951
8290.0 0.00099382
8310.0 0.00076462
8330.0 0.00060709
8350.0 0.00057597
8370.0 0.00068403
8390.0 0.00082618
8410.0 0.00089265
8430.0 0.00091858
8450.0 0.0009745
8470.0 0.0010549
8490.0 0.0011875
8510.0 0.0013575
8530.0 0.0015538
8550.0 0.0017303
8570.0 0.0018736
8590.0 0.0019852
8610.0 0.0020498
8630.0 0.0020551
8650.0 0.0020389
8670.0 0.002049
8690.0 0.0021675
8710.0 0.0023259
8730.0 0.0024283
8750.0 0.0024301
8770.0 0.0024754
8790.0 0.0024806
8810.0 0.0023475
8830.0 0.0022092
8850.0 0.0020246
8870.0 0.0018776
8890.0 0.0018373
8910.0 0.0018405
8930.0 0.0017421
8950.0 0.0016248
8970.0 0.0015788
8990.0 0.0015755
9010.0 0.0015228
9030.0 0.0014893
9050.0 0.001476
9070.0 0.0014698
9090.0 0.0014645
9110.0 0.0014594
9130.0 0.0014543
9150.0 0.0014493
9170.0 0.0014438
9190.0 0.0014399
9210.0 0.0014406
9230.0 0.0014334
9250.0 0.0014273
9270.0 0.0014218
9290.0 0.0014168
9310.0 0.001412
9330.0 0.0014073
9350.0 0.0014031
9370.0 0.0013988
9390.0 0.0013944
9410.0 0.0013903
9430.0 0.0013859
9450.0 0.0013797
9470.0 0.0013742
9490.0 0.0013721
9510.0 0.0013691
9530.0 0.0013658
9550.0 0.0013623
9570.0 0.0013587
9590.0 0.0013551
9610.0 0.0013514
9630.0 0.0013478
9650.0 0.0013441
9670.0 0.0013405
9690.0 0.0013369
9710.0 0.0013334
9730.0 0.0013298
9750.0 0.0013263
9770.0 0.0013228
9790.0 0.0013193
9810.0 0.0013157
9830.0 0.0013122
9850.0 0.0013087
9870.0 0.0013052
9890.0 0.0013017
9910.0 0.0012981
9930.0 0.0012945
9950.0 0.0012818
9970.0 0.0012809
9990.0 0.0012794
10010.0 0.0012777
10030.0 0.0012751
10050.0 0.0012719
10070.0 0.0012686
10090.0 0.0012653
10110.0 0.0012612
10130.0 0.0012571
10150.0 0.0012534
10170.0 0.0012494
10190.0 0.0012449
10210.0 0.0012409
10230.0 0.0012369
10250.0 0.0012324
10270.0 0.0012279
10290.0 0.0012237
10310.0 0.001219
10330.0 0.0012139
10350.0 0.0012093
10370.0 0.0012045
10390.0 0.0011993
10410.0 0.0011941
10430.0 0.0011892
10450.0 0.0011838
10470.0 0.0011781
10490.0 0.0011726
10510.0 0.0011671
10530.0 0.0011608
10550.0 0.0011547
10570.0 0.0011489
10590.0 0.0011426
10610.0 0.0011359
10630.0 0.0011296
10650.0 0.0011231
10670.0 0.0011159
10690.0 0.0011088
10710.0 0.0011019
10730.0 0.0010945
10750.0 0.0010865
10770.0 0.0010792
10790.0 0.0010716
10810.0 0.0010633
10830.0 0.0010552
10850.0 0.0010473
10870.0 0.0010385
10890.0 0.0010295
10910.0 0.0010207
10930.0 0.0010116
10950.0 0.0010017
10970.0 0.00099178
10990.0 0.00098197
11010.0 0.0010527
11030.0 0.0010411
11050.0 0.0010299
11070.0 0.0010184
11090.0 0.0010061
11110.0 0.00099466
11130.0 0.00098361
11150.0 0.00097226
11170.0 0.00096103
11190.0 0.00095056
11210.0 0.00093987
11230.0 0.00092891
11250.0 0.00091845
11270.0 0.00090825
11290.0 0.00089761
11310.0 0.00088702
11330.0 0.00087713
11350.0 0.00086694
11370.0 0.00085643
11390.0 0.00084614
11410.0 0.00083582
11430.0 0.00082452
11450.0 0.000813
11470.0 0.00080136
11490.0 0.00078887
11510.0 0.0007753
11530.0 0.00076167
11550.0 0.00074755
11570.0 0.00073224
11590.0 0.00071655
11610.0 0.00070096
11630.0 0.00068447
11650.0 0.00066737
11670.0 0.00065098
11690.0 0.00063465
11710.0 0.00061796
11730.0 0.00060173
11750.0 0.00058646
11770.0 0.00057103
11790.0 0.00055587
11810.0 0.00054165
11830.0 0.00052791
11850.0 0.00051397
11870.0 0.00050091
11890.0 0.00048866
11910.0 0.00047647
11930.0 0.00046457
11950.0 0.00045349
11970.0 0.0004427
11990.0 0.00043192
12010.0 0.00042182
12030.0 0.00041234
12050.0 0.00040308
12070.0 0.00039419
12090.0 0.0003863
12110.0 0.00037889
12130.0 0.00037196
12150.0 0.00036586
12170.0 0.00036059
12190.0 0.00035588
12210.0 0.00035205
12230.0 0.00034913
12250.0 0.000347
12270.0 0.00034571
12290.0 0.00034525
12310.0 0.0003455
12330.0 0.00034658
12350.0 0.00034837
12370.0 0.00035066
12390.0 0.00035357
12410.0 0.00035726
12430.0 0.00036112
12450.0 0.00036525
12470.0 0.00036985
12490.0 0.00037463
12510.0 0.00037921
12530.0 0.00038397
12550.0 0.00038876
12570.0 0.0003931
12590.0 0.00039702
12610.0 0.00040068
12630.0 0.0004037
12650.0 0.00040577
12670.0 0.00040717
12690.0 0.00040774
12710.0 0.00040732
12730.0 0.000406
12750.0 0.00040375
12770.0 0.00040057
12790.0 0.00039663
12810.0 0.00039191
12830.0 0.00038645
12850.0 0.00038063
12870.0 0.00037448
12890.0 0.0003679
12910.0 0.00036124
12930.0 0.0003547
12950.0 0.00034804
12970.0 0.0003414
12990.0 0.00033518
13010.0 0.00032916
13030.0 0.00032321
13050.0 0.00031756
13070.0 0.00031227
13090.0 0.000307
13110.0 0.00030188
13130.0 0.00029702
13150.0 0.00029228
13170.0 0.00028748
13190.0 0.00028289
13210.0 0.00027848
13230.0 0.00027407
13250.0 0.00026975
13270.0 0.00026569
13290.0 0.00026175
13310.0 0.00025791
13330.0 0.00025439
13350.0 0.00025119
13370.0 0.00024822
13390.0 0.00024557
13410.0 0.00024334
13430.0 0.0002414
13450.0 0.00023973
13470.0 0.00023832
13490.0 0.00023711
13510.0 0.000236
13530.0 0.00023495
13550.0 0.00023386
13570.0 0.00023267
13590.0 0.0002313
13610.0 0.00022974
13630.0 0.00022798
13650.0 0.00022594
13670.0 0.00022367
13690.0 0.00022127
13710.0 0.00021868
13730.0 0.00021589
13750.0 0.00021318
13770.0 0.00021049
13790.0 0.0002078
13810.0 0.00020524
13830.0 0.00020291
13850.0 0.00020068
13870.0 0.00019862
13890.0 0.00019681
13910.0 0.00019518
13930.0 0.00019368
13950.0 0.00019233
13970.0 0.00019115
13990.0 0.00019001
14010.0 0.00018892
14030.0 0.00018786
14050.0 0.0001868
14070.0 0.00018564
14090.0 0.00018444
14110.0 0.00018319
14130.0 0.00018181
14150.0 0.00018029
14170.0 0.00017873
14190.0 0.00017709
14210.0 0.00017532
14230.0 0.00017353
14250.0 0.00017178
14270.0 0.00016998
14290.0 0.0001682
14310.0 0.0001666
14330.0 0.00016511
14350.0 0.00016372
14370.0 0.00016254
14390.0 0.00016157
14410.0 0.00016075
14430.0 0.00016011
14450.0 0.00015967
14470.0 0.00015938
14490.0 0.00015922
14510.0 0.00015919
14530.0 0.00015927
14550.0 0.00015943
14570.0 0.00015969
14590.0 0.00016004
14610.0 0.00016048
14630.0 0.00016107
14650.0 0.00016179
14670.0 0.00016266
14690.0 0.00016375
14710.0 0.00016507
14730.0 0.00016655
14750.0 0.00016828
14770.0 0.00017032
14790.0 0.00017258
14810.0 0.00017505
14830.0 0.00017796
14850.0 0.00018115
14870.0 0.00018452
14890.0 0.00018819
14910.0 0.00019218
14930.0 0.00019614
14950.0 0.00019997
14970.0 0.00020376
14990.0 0.00020713
15010.0 0.00020993
15030.0 0.00021225
15050.0 0.0002141
15070.0 0.00021542
15090.0 0.00021643
15110.0 0.00021721
15130.0 0.00021785
15150.0 0.00021842
15170.0 0.00021896
15190.0 0.00021948
15210.0 0.00022002
15230.0 0.00022055
15250.0 0.0002211
15270.0 0.00022166
15290.0 0.00022223
15310.0 0.00022281
15330.0 0.0002234
15350.0 0.000224
15370.0 0.00022461
15390.0 0.00022523
15410.0 0.00022586
15430.0 0.0002265
15450.0 0.00022715
15470.0 0.0002278
15490.0 0.00022847
15510.0 0.00022914
15530.0 0.00022982
15550.0 0.00023051
15570.0 0.00023121
15590.0 0.00023192
15610.0 0.00023263
15630.0 0.00023335
15650.0 0.00023408
15670.0 0.00023481
15690.0 0.00023555
15710.0 0.00023629
15730.0 0.00023705
15750.0 0.0002378
15770.0 0.00023856
15790.0 0.00023933
15810.0 0.0002401
15830.0 0.00024088
15850.0 0.00024166
15870.0 0.00024245
15890.0 0.00024324
15910.0 0.00024403
15930.0 0.00024483
15950.0 0.00024562
15970.0 0.00024642
15990.0 0.00024723
16010.0 0.00024803
16030.0 0.00024884
16050.0 0.00024965
16070.0 0.00025046
16090.0 0.00025127
16110.0 0.00025208
16130.0 0.00025289
16150.0 0.0002537
16170.0 0.00025451
16190.0 0.00025532
16210.0 0.00025613
16230.0 0.00025693
16250.0 0.00025774
16270.0 0.00025854
16290.0 0.00025934
16310.0 0.00026014
16330.0 0.00026093
16350.0 0.00026172
16370.0 0.00026251
16390.0 0.00026329
16410.0 0.00026407
16430.0 0.00026484
16450.0 0.00026561
16470.0 0.00026637
16490.0 0.00026713
16510.0 0.00026788
16530.0 0.00026862
16550.0 0.00026936
16570.0 0.00027009
16590.0 0.00027081
16610.0 0.00027152
16630.0 0.00027223
16650.0 0.00027292
16670.0 0.00027361
16690.0 0.00027429
16710.0 0.00027495
16730.0 0.00027561
16750.0 0.00027626
16770.0 0.00027689
16790.0 0.00027752
16810.0 0.00027813
16830.0 0.00027874
16850.0 0.00027932
16870.0 0.0002799
16890.0 0.00028047
16910.0 0.00028102
16930.0 0.00028155
16950.0 0.00028208
16970.0 0.00028259
16990.0 0.00028309
17010.0 0.00028357
17030.0 0.00028404
17050.0 0.00028449
17070.0 0.00028492
17090.0 0.00028534
17110.0 0.00028575
17130.0 0.00028613
17150.0 0.00028651
17170.0 0.00028686
17190.0 0.0002872
17210.0 0.00028752
17230.0 0.00028783
17250.0 0.00028811
17270.0 0.00028838
17290.0 0.00028863
17310.0 0.00028887
17330.0 0.00028908
17350.0 0.00028927
17370.0 0.00028945
17390.0 0.00028961
17410.0 0.00028975
17430.0 0.00028987
17450.0 0.00028997
17470.0 0.00029005
17490.0 0.00029011
17510.0 0.00029015
17530.0 0.00029018
17550.0 0.00029018
17570.0 0.00029016
17590.0 0.00029012
17610.0 0.00029007
17630.0 0.00028999
17650.0 0.00028989
17670.0 0.00028978
17690.0 0.00028963
17710.0 0.00028948
17730.0 0.0002893
17750.0 0.0002891
17770.0 0.00028888
17790.0 0.00028865
17810.0 0.00028839
17830.0 0.00028811
17850.0 0.00028781
17870.0 0.0002875
17890.0 0.00028716
17910.0 0.0002868
17930.0 0.00028643
17950.0 0.00028603
17970.0 0.00028561
17990.0 0.00028518
18010.0 0.00028473
18030.0 0.00028425
18050.0 0.00028376
18070.0 0.00028325
18090.0 0.00028272
18110.0 0.00028217
18130.0 0.0002816
18150.0 0.00028102
18170.0 0.00028042
18190.0 0.0002798
18210.0 0.00027916
18230.0 0.00027851
18250.0 0.00027783
18270.0 0.00027715
18290.0 0.00027644
18310.0 0.00027572
18330.0 0.00027498
18350.0 0.00027423
18370.0 0.00027346
18390.0 0.00027268
18410.0 0.00027188
18430.0 0.00027107
18450.0 0.00027023
18470.0 0.00026939
18490.0 0.00026854
18510.0 0.00026766
18530.0 0.00026678
18550.0 0.00026588
18570.0 0.00026497
18590.0 0.00026405
18610.0 0.00026311
18630.0 0.00026217
18650.0 0.00026121
18670.0 0.00026023
18690.0 0.00025926
18710.0 0.00025826
18730.0 0.00025726
18750.0 0.00025625
18770.0 0.00025523
18790.0 0.00025419
18810.0 0.00025315
18830.0 0.0002521
18850.0 0.00025104
18870.0 0.00024997
18890.0 0.0002489
18910.0 0.00024781
18930.0 0.00024672
18950.0 0.00024562
18970.0 0.00024452
18990.0 0.00024341
19010.0 0.00024229
19030.0 0.00024116
19050.0 0.00024004
19070.0 0.0002389
19090.0 0.00023776
19110.0 0.00023662
19130.0 0.00023547
19150.0 0.00023432
19170.0 0.00023316
19190.0 0.000232
19210.0 0.00023084
19230.0 0.00022967
19250.0 0.0002285
19270.0 0.00022733
19290.0 0.00022616
19310.0 0.00022499
19330.0 0.00022381
19350.0 0.00022263
19370.0 0.00022145
19390.0 0.00022027
19410.0 0.00021909
19430.0 0.00021791
19450.0 0.00021673
19470.0 0.00021555
19490.0 0.00021437
19510.0 0.00021319
19530.0 0.00021201
19550.0 0.00021083
19570.0 0.00020965
19590.0 0.00020848
19610.0 0.0002073
19630.0 0.00020613
19650.0 0.00020496
19670.0 0.00020379
19690.0 0.00020263
19710.0 0.00020147
19730.0 0.00020031
19750.0 0.00019915
19770.0 0.000198
19790.0 0.00019685
19810.0 0.0001957
19830.0 0.00019455
19850.0 0.0001934
19870.0 0.00019223
19890.0 0.00019103
19910.0 0.00018975
19930.0 0.00018837
19950.0 0.00018683
19970.0 0.00018502
19990.0 0.00018291
20010.0 0.00018054
20030.0 0.00017778
20050.0 0.00017468
20070.0 0.00017138
20090.0 0.00016794
20110.0 0.00016422
20130.0 0.00016055
20150.0 0.00015698
20170.0 0.0001534
20190.0 0.00014985
20210.0 0.00014652
20230.0 0.0001433
20250.0 0.00014012
20270.0 0.00013711
20290.0 0.0001343
20310.0 0.00013157
20330.0 0.00012892
20350.0 0.00012653
20370.0 0.00012425
20390.0 0.00012206
20410.0 0.00012002
20430.0 0.00011815
20450.0 0.00011632
20470.0 0.00011463
20490.0 0.00011308
20510.0 0.00011163
20530.0 0.00011026
20550.0 0.00010901
20570.0 0.00010787
20590.0 0.0001068
20610.0 0.00010582
20630.0 0.00010492
20650.0 0.0001041
20670.0 0.00010333
20690.0 0.00010263
20710.0 0.00010198
20730.0 0.00010137
20750.0 0.0001008
20770.0 0.00010025
20790.0 9.9725e-05
20810.0 9.9213e-05
20830.0 9.8704e-05
20850.0 9.8194e-05
20870.0 9.7677e-05
20890.0 9.7146e-05
20910.0 9.6597e-05
20930.0 9.6025e-05
20950.0 9.5425e-05
20970.0 9.4798e-05
20990.0 9.4145e-05
21010.0 9.3451e-05
21030.0 9.2725e-05
21050.0 9.1975e-05
21070.0 9.119e-05
21090.0 9.0361e-05
21110.0 8.9522e-05
21130.0 8.8663e-05
21150.0 8.7766e-05
21170.0 8.6853e-05
21190.0 8.5943e-05
21210.0 8.5001e-05
21230.0 8.4037e-05
21250.0 8.3089e-05
21270.0 8.2141e-05
21290.0 8.1174e-05
21310.0 8.0216e-05
21330.0 7.9291e-05
21350.0 7.8358e-05
21370.0 7.7433e-05
21390.0 7.6546e-05
21410.0 7.5684e-05
21430.0 7.4822e-05
21450.0 7.4009e-05
21470.0 7.3244e-05
21490.0 7.2506e-05
21510.0 7.1806e-05
21530.0 7.1165e-05
21550.0 7.0567e-05
21570.0 7.0009e-05
21590.0 6.9507e-05
21610.0 6.9056e-05
21630.0 6.8652e-05
21650.0 6.8297e-05
21670.0 6.7989e-05
21690.0 6.7724e-05
21710.0 6.7501e-05
21730.0 6.7315e-05
21750.0 6.7155e-05
21770.0 6.7034e-05
21790.0 6.6936e-05
21810.0 6.6849e-05
21830.0 6.6778e-05
21850.0 6.6724e-05
21870.0 6.6667e-05
21890.0 6.6601e-05
21910.0 6.654e-05
21930.0 6.6469e-05
21950.0 6.6379e-05
21970.0 6.6277e-05
21990.0 6.6165e-05
22010.0 6.6026e-05
22030.0 6.5867e-05
22050.0 6.5691e-05
22070.0 6.5496e-05
22090.0 6.5279e-05
22110.0 6.5046e-05
22130.0 6.4797e-05
22150.0 6.4533e-05
22170.0 6.4256e-05
22190.0 6.3965e-05
22210.0 6.3663e-05
22230.0 6.3352e-05
22250.0 6.3029e-05
22270.0 6.2694e-05
22290.0 6.2349e-05
22310.0 6.1992e-05
22330.0 6.1613e-05
22350.0 6.1218e-05
22370.0 6.0807e-05
22390.0 6.0367e-05
22410.0 5.9892e-05
22430.0 5.9398e-05
22450.0 5.8874e-05
22470.0 5.8303e-05
22490.0 5.7699e-05
22510.0 5.7073e-05
22530.0 5.6392e-05
22550.0 5.5665e-05
22570.0 5.4928e-05
22590.0 5.4162e-05
22610.0 5.335e-05
22630.0 5.2526e-05
22650.0 5.1717e-05
22670.0 5.0876e-05
22690.0 5.0028e-05
22710.0 4.9208e-05
22730.0 4.8403e-05
22750.0 4.758e-05
22770.0 4.6808e-05
22790.0 4.6081e-05
22810.0 4.537e-05
22830.0 4.469e-05
22850.0 4.4071e-05
22870.0 4.3483e-05
22890.0 4.2918e-05
22910.0 4.2405e-05
22930.0 4.1934e-05
