#lamb flux
1010.0 1.15e-06
1030.0 1.2954e-06
1050.0 1.4627e-06
1070.0 1.6511e-06
1090.0 1.865e-06
1110.0 2.0844e-06
1130.0 2.3052e-06
1150.0 2.5366e-06
1170.0 2.7752e-06
1190.0 3.0015e-06
1210.0 3.2308e-06
1230.0 3.4678e-06
1250.0 3.6999e-06
1270.0 3.9254e-06
1290.0 4.1637e-06
1310.0 4.4017e-06
1330.0 4.63e-06
1350.0 4.8609e-06
1370.0 5.0993e-06
1390.0 5.3316e-06
1410.0 5.5571e-06
1430.0 5.7928e-06
1450.0 6.0284e-06
1470.0 6.2561e-06
1490.0 6.4862e-06
1510.0 6.7292e-06
1530.0 6.9594e-06
1550.0 7.1864e-06
1570.0 7.4211e-06
1590.0 7.656e-06
1610.0 7.8803e-06
1630.0 8.1113e-06
1650.0 8.3483e-06
1670.0 8.5772e-06
1690.0 8.803e-06
1710.0 9.0371e-06
1730.0 9.2722e-06
1750.0 9.4927e-06
1770.0 9.7192e-06
1790.0 9.9498e-06
1810.0 1.0172e-05
1830.0 1.039e-05
1850.0 1.062e-05
1870.0 1.0843e-05
1890.0 1.1057e-05
1910.0 1.1273e-05
1930.0 1.1494e-05
1950.0 1.1702e-05
1970.0 1.1905e-05
1990.0 1.2115e-05
2010.0 1.2317e-05
2030.0 1.2509e-05
2050.0 1.2704e-05
2070.0 1.2901e-05
2090.0 1.3081e-05
2110.0 1.3255e-05
2130.0 1.3432e-05
2150.0 1.3598e-05
2170.0 1.375e-05
2190.0 1.3904e-05
2210.0 1.4053e-05
2230.0 1.4186e-05
2250.0 1.4311e-05
2270.0 1.4437e-05
2290.0 1.4549e-05
2310.0 1.4644e-05
2330.0 1.4736e-05
2350.0 1.4822e-05
2370.0 1.4893e-05
2390.0 1.4959e-05
2410.0 1.5033e-05
2430.0 1.5103e-05
2450.0 1.5176e-05
2470.0 1.5273e-05
2490.0 1.5401e-05
2510.0 1.555e-05
2530.0 1.5769e-05
2550.0 1.613e-05
2570.0 1.6698e-05
2590.0 1.7568e-05
2610.0 1.9015e-05
2630.0 2.1114e-05
2650.0 2.3765e-05
2670.0 2.7011e-05
2690.0 3.0731e-05
2710.0 3.4363e-05
2730.0 3.7614e-05
2750.0 4.0508e-05
2770.0 4.2702e-05
2790.0 4.4145e-05
2810.0 4.5052e-05
2830.0 4.5563e-05
2850.0 4.5681e-05
2870.0 4.5599e-05
2890.0 4.5425e-05
2910.0 4.5181e-05
2930.0 4.4881e-05
2950.0 4.459e-05
2970.0 4.4309e-05
2990.0 4.4015e-05
3010.0 0.0010286
3030.0 0.0010217
3050.0 0.0010149
3070.0 0.0010074
3090.0 0.00099961
3110.0 0.00099042
3130.0 0.00097867
3150.0 0.00096376
3170.0 0.00094447
3190.0 0.00092125
3210.0 0.0008959
3230.0 0.00087012
3250.0 0.00084741
3270.0 0.00083175
3290.0 0.00082508
3310.0 0.00082891
3330.0 0.0008436
3350.0 0.00086699
3370.0 0.00089955
3390.0 0.0009402
3410.0 0.00098437
3430.0 0.0010341
3450.0 0.0010914
3470.0 0.0011538
3490.0 0.0012197
3510.0 0.0012937
3530.0 0.0013728
3550.0 0.0014533
3570.0 0.0015385
3590.0 0.001634
3610.0 0.0017347
3630.0 0.0018399
3650.0 0.0019505
3670.0 0.0020539
3690.0 0.0021343
3710.0 0.0021824
3730.0 0.0021841
3750.0 0.0021386
3770.0 0.0020028
3790.0 0.0018295
3810.0 0.0016482
3830.0 0.0014601
3850.0 0.0012208
3870.0 0.00087303
3890.0 0.0012641
3910.0 0.0020059
3930.0 0.0024508
3950.0 0.0024291
3970.0 0.0025684
3990.0 0.002871
4010.0 0.0038202
4030.0 0.0037812
4050.0 0.0033313
4070.0 0.0030844
4090.0 0.0029328
4110.0 0.0034716
4130.0 0.0037323
4150.0 0.0038388
4170.0 0.003733
4190.0 0.0037219
4210.0 0.0037357
4230.0 0.0042353
4250.0 0.0046737
4270.0 0.0047984
4290.0 0.0047806
4310.0 0.0047988
4330.0 0.005228
4350.0 0.0061495
4370.0 0.0070481
4390.0 0.0064986
4410.0 0.0050793
4430.0 0.0042001
4450.0 0.0036269
4470.0 0.0034382
4490.0 0.0039126
4510.0 0.0047091
4530.0 0.0052946
4550.0 0.0059796
4570.0 0.0068188
4590.0 0.00814
4610.0 0.011042
4630.0 0.013755
4650.0 0.013915
4670.0 0.01317
4690.0 0.01403
4710.0 0.014904
4730.0 0.01253
4750.0 0.0087428
4770.0 0.0070033
4790.0 0.0069193
4810.0 0.0065125
4830.0 0.0061685
4850.0 0.0070055
4870.0 0.0091249
4890.0 0.010583
4910.0 0.0088078
4930.0 0.007825
4950.0 0.0087687
4970.0 0.011805
4990.0 0.015496
5010.0 0.01677
5030.0 0.013774
5050.0 0.0087068
5070.0 0.0059901
5090.0 0.0052369
5110.0 0.0054147
5130.0 0.0058931
5150.0 0.006121
5170.0 0.0060775
5190.0 0.0058945
5210.0 0.0057637
5230.0 0.0060549
5250.0 0.0065483
5270.0 0.0072894
5290.0 0.0083619
5310.0 0.0094743
5330.0 0.0097379
5350.0 0.0097368
5370.0 0.010636
5390.0 0.011799
5410.0 0.011275
5430.0 0.0095184
5450.0 0.0088031
5470.0 0.0098865
5490.0 0.012681
5510.0 0.016202
5530.0 0.018173
5550.0 0.017388
5570.0 0.015665
5590.0 0.013771
5610.0 0.012872
5630.0 0.012479
5650.0 0.012594
5670.0 0.012191
5690.0 0.011065
5710.0 0.010598
5730.0 0.0097625
5750.0 0.0066369
5770.0 0.0056468
5790.0 0.0064352
5810.0 0.007718
5830.0 0.0091143
5850.0 0.010274
5870.0 0.010639
5890.0 0.010257
5910.0 0.0098207
5930.0 0.0097909
5950.0 0.010229
5970.0 0.011206
5990.0 0.010414
6010.0 0.0086392
6030.0 0.0071533
6050.0 0.0062058
6070.0 0.006311
6090.0 0.0071477
6110.0 0.0078152
6130.0 0.0074782
6150.0 0.0067183
6170.0 0.0070653
6190.0 0.0085597
6210.0 0.01077
6230.0 0.012862
6250.0 0.013017
6270.0 0.011403
6290.0 0.0094734
6310.0 0.0074795
6330.0 0.0058673
6350.0 0.0053035
6370.0 0.0056921
6390.0 0.0067792
6410.0 0.0079538
6430.0 0.0092778
6450.0 0.010887
6470.0 0.013023
6490.0 0.016042
6510.0 0.017853
6530.0 0.016741
6550.0 0.015333
6570.0 0.014535
6590.0 0.013996
6610.0 0.012314
6630.0 0.011273
6650.0 0.010391
6670.0 0.010586
6690.0 0.010212
6710.0 0.0091552
6730.0 0.0078742
6750.0 0.0072323
6770.0 0.0073247
6790.0 0.0083501
6810.0 0.0081757
6830.0 0.0084038
6850.0 0.0081135
6870.0 0.0077522
6890.0 0.0074775
6910.0 0.007363
6930.0 0.0068893
6950.0 0.0071615
6970.0 0.007239
6990.0 0.0080903
7010.0 0.0085772
7030.0 0.0080353
7050.0 0.007479
7070.0 0.0072111
7090.0 0.0067497
7110.0 0.0064009
7130.0 0.006629
7150.0 0.0070738
7170.0 0.0075771
7190.0 0.0076825
7210.0 0.0074529
7230.0 0.0076869
7250.0 0.0087372
7270.0 0.010162
7290.0 0.011217
7310.0 0.011066
7330.0 0.0098732
7350.0 0.0088238
7370.0 0.0081797
7390.0 0.0082844
7410.0 0.0088649
7430.0 0.0097192
7450.0 0.010513
7470.0 0.011299
7490.0 0.012269
7510.0 0.012962
7530.0 0.012097
7550.0 0.010189
7570.0 0.0080116
7590.0 0.005902
7610.0 0.0052425
7630.0 0.0056743
7650.0 0.0065736
7670.0 0.0076288
7690.0 0.0086538
7710.0 0.0092444
7730.0 0.0095009
7750.0 0.0099308
7770.0 0.009899
7790.0 0.0095322
7810.0 0.009507
7830.0 0.0093295
7850.0 0.0085224
7870.0 0.0077471
7890.0 0.0069554
7910.0 0.0059369
7930.0 0.0051857
7950.0 0.0047018
7970.0 0.0045755
7990.0 0.0046985
8010.0 0.0049543
8030.0 0.0049657
8050.0 0.005003
8070.0 0.0049227
8090.0 0.005044
8110.0 0.004759
8130.0 0.0041661
8150.0 0.003915
8170.0 0.0036091
8190.0 0.003573
8210.0 0.0038314
8230.0 0.0040998
8250.0 0.0038003
8270.0 0.0033885
8290.0 0.0027847
8310.0 0.0019198
8330.0 0.0012463
8350.0 0.00090799
8370.0 0.00096532
8390.0 0.0011435
8410.0 0.0014529
8430.0 0.0017758
8450.0 0.0019612
8470.0 0.0021765
8490.0 0.0021401
8510.0 0.0021516
8530.0 0.0022477
8550.0 0.0027217
8570.0 0.0033536
8590.0 0.0038329
8610.0 0.004634
8630.0 0.0053729
8650.0 0.0056547
8670.0 0.0057499
8690.0 0.005717
8710.0 0.0053471
8730.0 0.0051337
8750.0 0.0047519
8770.0 0.004564
8790.0 0.0045291
8810.0 0.0043187
8830.0 0.0036337
8850.0 0.0029951
8870.0 0.0024983
8890.0 0.0024426
8910.0 0.0026388
8930.0 0.0028012
8950.0 0.0031446
8970.0 0.0031948
8990.0 0.003146
9010.0 0.0030256
9030.0 0.0029938
9050.0 0.0030232
9070.0 0.0030465
9090.0 0.003064
9110.0 0.0030797
9130.0 0.0030936
9150.0 0.0031068
9170.0 0.0031207
9190.0 0.0031354
9210.0 0.0031513
9230.0 0.0031677
9250.0 0.0031851
9270.0 0.0032033
9290.0 0.0032222
9310.0 0.003242
9330.0 0.0032627
9350.0 0.0032839
9370.0 0.003306
9390.0 0.0033289
9410.0 0.0033525
9430.0 0.0033767
9450.0 0.0034019
9470.0 0.0034277
9490.0 0.0034541
9510.0 0.0034813
9530.0 0.0035093
9550.0 0.0035378
9570.0 0.0035668
9590.0 0.0035968
9610.0 0.0036273
9630.0 0.0036582
9650.0 0.0036899
9670.0 0.0037223
9690.0 0.0037551
9710.0 0.0037884
9730.0 0.0038224
9750.0 0.0038568
9770.0 0.0038915
9790.0 0.0039269
9810.0 0.0039628
9830.0 0.0039989
9850.0 0.0040355
9870.0 0.0040726
9890.0 0.00411
9910.0 0.0041476
9930.0 0.0041856
9950.0 0.0042239
9970.0 0.0042623
9990.0 0.0043008
10010.0 0.0041417
10030.0 0.0041781
10050.0 0.0042144
10070.0 0.0042507
10090.0 0.0042877
10110.0 0.0043243
10130.0 0.0043609
10150.0 0.0043978
10170.0 0.0044344
10190.0 0.0044706
10210.0 0.004507
10230.0 0.0045433
10250.0 0.0045792
10270.0 0.0046148
10290.0 0.0046505
10310.0 0.0046856
10330.0 0.0047201
10350.0 0.0047547
10370.0 0.0047889
10390.0 0.0048224
10410.0 0.0048554
10430.0 0.0048884
10450.0 0.0049205
10470.0 0.0049519
10490.0 0.004983
10510.0 0.0050136
10530.0 0.0050429
10550.0 0.0050719
10570.0 0.0051005
10590.0 0.005128
10610.0 0.0051546
10630.0 0.0051809
10650.0 0.0052062
10670.0 0.0052303
10690.0 0.0052538
10710.0 0.0052766
10730.0 0.0052982
10750.0 0.0053185
10770.0 0.0053386
10790.0 0.0053575
10810.0 0.005375
10830.0 0.0053916
10850.0 0.005407
10870.0 0.0054197
10890.0 0.0054293
10910.0 0.0054346
10930.0 0.0054327
10950.0 0.005419
10970.0 0.0053915
10990.0 0.005349
11010.0 0.0051948
11030.0 0.0051113
11050.0 0.0050122
11070.0 0.0048948
11090.0 0.0047537
11110.0 0.0046082
11130.0 0.0044564
11150.0 0.0042931
11170.0 0.0041255
11190.0 0.0039647
11210.0 0.0038005
11230.0 0.0036349
11250.0 0.00348
11270.0 0.0033343
11290.0 0.0031917
11310.0 0.0030599
11330.0 0.0029464
11350.0 0.0028412
11370.0 0.0027455
11390.0 0.0026633
11410.0 0.0025913
11430.0 0.0025232
11450.0 0.0024625
11470.0 0.0024073
11490.0 0.0023528
11510.0 0.0022965
11530.0 0.002241
11550.0 0.0021834
11570.0 0.0021201
11590.0 0.0020536
11610.0 0.0019858
11630.0 0.0019127
11650.0 0.0018356
11670.0 0.0017609
11690.0 0.0016866
11710.0 0.0016115
11730.0 0.0015402
11750.0 0.0014753
11770.0 0.0014127
11790.0 0.0013549
11810.0 0.0013044
11830.0 0.0012595
11850.0 0.0012181
11870.0 0.001183
11890.0 0.001153
11910.0 0.0011255
11930.0 0.0011004
11950.0 0.0010778
11970.0 0.0010558
11990.0 0.0010332
12010.0 0.0010108
12030.0 0.000988
12050.0 0.00096371
12070.0 0.00093803
12090.0 0.00091305
12110.0 0.00088759
12130.0 0.00086188
12150.0 0.00083772
12170.0 0.00081581
12190.0 0.00079535
12210.0 0.00077841
12230.0 0.00076573
12250.0 0.00075714
12270.0 0.00075329
12290.0 0.0007544
12310.0 0.00075997
12330.0 0.0007707
12350.0 0.000786
12370.0 0.00080448
12390.0 0.00082657
12410.0 0.00085301
12430.0 0.00087977
12450.0 0.00090725
12470.0 0.00093613
12490.0 0.00096448
12510.0 0.00099016
12530.0 0.0010149
12550.0 0.0010377
12570.0 0.0010566
12590.0 0.0010718
12610.0 0.001084
12630.0 0.0010921
12650.0 0.0010955
12670.0 0.0010954
12690.0 0.0010915
12710.0 0.001084
12730.0 0.0010734
12750.0 0.0010595
12770.0 0.0010431
12790.0 0.0010248
12810.0 0.0010044
12830.0 0.00098188
12850.0 0.00095887
12870.0 0.00093496
12890.0 0.00090945
12910.0 0.00088349
12930.0 0.00085767
12950.0 0.00083055
12970.0 0.00080255
12990.0 0.00077541
13010.0 0.00074808
13030.0 0.00071993
13050.0 0.00069229
13070.0 0.00066584
13090.0 0.00063896
13110.0 0.00061261
13130.0 0.00058803
13150.0 0.00056463
13170.0 0.00054178
13190.0 0.00052146
13210.0 0.00050369
13230.0 0.00048769
13250.0 0.00047417
13270.0 0.00046371
13290.0 0.00045582
13310.0 0.00045067
13330.0 0.00044853
13350.0 0.00044907
13370.0 0.00045234
13390.0 0.0004583
13410.0 0.00046589
13430.0 0.00047541
13450.0 0.00048678
13470.0 0.00049893
13490.0 0.00051135
13510.0 0.000525
13530.0 0.00053838
13550.0 0.00055075
13570.0 0.00056261
13590.0 0.00057383
13610.0 0.00058343
13630.0 0.00059143
13650.0 0.00059842
13670.0 0.00060378
13690.0 0.00060742
13710.0 0.00060968
13730.0 0.0006106
13750.0 0.00060997
13770.0 0.00060813
13790.0 0.00060512
13810.0 0.00060103
13830.0 0.00059614
13850.0 0.00059031
13870.0 0.00058358
13890.0 0.00057634
13910.0 0.00056858
13930.0 0.00056
13950.0 0.00055098
13970.0 0.00054202
13990.0 0.00053257
14010.0 0.0005228
14030.0 0.00051328
14050.0 0.00050391
14070.0 0.00049428
14090.0 0.00048526
14110.0 0.00047696
14130.0 0.00046912
14150.0 0.00046196
14170.0 0.000456
14190.0 0.00045104
14210.0 0.00044705
14230.0 0.00044432
14250.0 0.00044283
14270.0 0.00044256
14290.0 0.0004436
14310.0 0.00044575
14330.0 0.00044899
14350.0 0.00045341
14370.0 0.00045866
14390.0 0.00046446
14410.0 0.00047119
14430.0 0.00047853
14450.0 0.00048601
14470.0 0.00049385
14490.0 0.00050236
14510.0 0.00051078
14530.0 0.00051916
14550.0 0.00052808
14570.0 0.00053737
14590.0 0.00054667
14610.0 0.00055664
14630.0 0.00056768
14650.0 0.00057916
14670.0 0.00059133
14690.0 0.00060494
14710.0 0.00061991
14730.0 0.00063512
14750.0 0.00065174
14770.0 0.00066989
14790.0 0.00068852
14810.0 0.00070744
14830.0 0.00072818
14850.0 0.0007489
14870.0 0.00076882
14890.0 0.00078868
14910.0 0.00080818
14930.0 0.00082563
14950.0 0.00084096
14970.0 0.00085462
14990.0 0.00086544
15010.0 0.00087328
15030.0 0.00087874
15050.0 0.00088199
15070.0 0.00088328
15090.0 0.00088336
15110.0 0.00088258
15130.0 0.0008813
15150.0 0.00087984
15170.0 0.00087819
15190.0 0.00087644
15210.0 0.00087475
15230.0 0.00087309
15250.0 0.00087134
15270.0 0.00086962
15290.0 0.00086803
15310.0 0.00086638
15330.0 0.00086469
15350.0 0.0008631
15370.0 0.00086153
15390.0 0.00085983
15410.0 0.00085821
15430.0 0.00085666
15450.0 0.00085505
15470.0 0.0008534
15490.0 0.00085186
15510.0 0.00085032
15530.0 0.0008487
15550.0 0.00084712
15570.0 0.00084561
15590.0 0.00084399
15610.0 0.00084235
15630.0 0.00084082
15650.0 0.00083927
15670.0 0.00083764
15690.0 0.00083606
15710.0 0.00083455
15730.0 0.00083292
15750.0 0.00083129
15770.0 0.00082974
15790.0 0.00082815
15810.0 0.00082645
15830.0 0.00082484
15850.0 0.00082327
15870.0 0.00082162
15890.0 0.00081995
15910.0 0.00081836
15930.0 0.00081671
15950.0 0.00081497
15970.0 0.0008133
15990.0 0.00081165
16010.0 0.00080991
16030.0 0.00080813
16050.0 0.00080648
16070.0 0.00080475
16090.0 0.00080295
16110.0 0.00080121
16130.0 0.0007995
16150.0 0.00079762
16170.0 0.00079578
16190.0 0.000794
16210.0 0.00079217
16230.0 0.00079025
16250.0 0.00078841
16270.0 0.00078659
16290.0 0.00078464
16310.0 0.0007827
16330.0 0.00078082
16350.0 0.00077887
16370.0 0.00077679
16390.0 0.00077485
16410.0 0.00077289
16430.0 0.00077082
16450.0 0.00076877
16470.0 0.00076679
16490.0 0.00076469
16510.0 0.00076254
16530.0 0.00076045
16550.0 0.00075836
16570.0 0.00075614
16590.0 0.00075394
16610.0 0.00075183
16630.0 0.00074961
16650.0 0.00074735
16670.0 0.00074515
16690.0 0.00074293
16710.0 0.00074056
16730.0 0.00073825
16750.0 0.00073598
16770.0 0.00073363
16790.0 0.00073121
16810.0 0.00072889
16830.0 0.00072653
16850.0 0.00072407
16870.0 0.00072164
16890.0 0.00071926
16910.0 0.00071674
16930.0 0.00071419
16950.0 0.00071173
16970.0 0.00070924
16990.0 0.00070664
17010.0 0.0007041
17030.0 0.00070159
17050.0 0.00069896
17070.0 0.00069632
17090.0 0.00069374
17110.0 0.00069111
17130.0 0.00068836
17150.0 0.00068569
17170.0 0.00068306
17190.0 0.00068033
17210.0 0.00067758
17230.0 0.00067491
17250.0 0.00067216
17270.0 0.00066931
17290.0 0.00066654
17310.0 0.00066379
17330.0 0.00066093
17350.0 0.00065805
17370.0 0.00065529
17390.0 0.00065244
17410.0 0.00064953
17430.0 0.00064667
17450.0 0.00064385
17470.0 0.00064085
17490.0 0.0006379
17510.0 0.00063503
17530.0 0.00063209
17550.0 0.00062908
17570.0 0.00062615
17590.0 0.00062323
17610.0 0.0006202
17630.0 0.00061719
17650.0 0.00061424
17670.0 0.00061122
17690.0 0.0006081
17710.0 0.00060512
17730.0 0.00060212
17750.0 0.00059903
17770.0 0.00059596
17790.0 0.00059298
17810.0 0.00058988
17830.0 0.00058675
17850.0 0.0005837
17870.0 0.00058064
17890.0 0.00057748
17910.0 0.00057435
17930.0 0.00057132
17950.0 0.0005682
17970.0 0.00056504
17990.0 0.00056197
18010.0 0.00055889
18030.0 0.00055567
18050.0 0.00055253
18070.0 0.00054945
18090.0 0.00054629
18110.0 0.0005431
18130.0 0.00054001
18150.0 0.0005369
18170.0 0.0005337
18190.0 0.00053057
18210.0 0.00052748
18230.0 0.00052428
18250.0 0.00052107
18270.0 0.00051797
18290.0 0.00051484
18310.0 0.00051165
18330.0 0.00050851
18350.0 0.00050543
18370.0 0.00050225
18390.0 0.00049907
18410.0 0.00049597
18430.0 0.00049284
18450.0 0.00048962
18470.0 0.00048651
18490.0 0.00048343
18510.0 0.00048027
18530.0 0.00047712
18550.0 0.00047407
18570.0 0.00047095
18590.0 0.00046776
18610.0 0.00046467
18630.0 0.0004616
18650.0 0.00045846
18670.0 0.00045532
18690.0 0.00045231
18710.0 0.00044922
18730.0 0.0004461
18750.0 0.00044306
18770.0 0.00044004
18790.0 0.0004369
18810.0 0.00043382
18830.0 0.00043082
18850.0 0.00042777
18870.0 0.00042469
18890.0 0.0004217
18910.0 0.00041872
18930.0 0.00041566
18950.0 0.00041264
18970.0 0.00040969
18990.0 0.00040669
19010.0 0.00040362
19030.0 0.00040069
19050.0 0.00039776
19070.0 0.00039476
19090.0 0.00039181
19110.0 0.00038894
19130.0 0.00038597
19150.0 0.000383
19170.0 0.00038012
19190.0 0.00037724
19210.0 0.00037428
19230.0 0.00037138
19250.0 0.00036857
19270.0 0.00036568
19290.0 0.00036279
19310.0 0.00035999
19330.0 0.00035718
19350.0 0.00035426
19370.0 0.00035145
19390.0 0.00034868
19410.0 0.00034586
19430.0 0.00034303
19450.0 0.0003403
19470.0 0.00033755
19490.0 0.00033475
19510.0 0.00033201
19530.0 0.00032932
19550.0 0.00032655
19570.0 0.00032378
19590.0 0.00032112
19610.0 0.00031844
19630.0 0.00031571
19650.0 0.00031305
19670.0 0.00031044
19690.0 0.00030774
19710.0 0.00030508
19730.0 0.00030248
19750.0 0.00029987
19770.0 0.00029718
19790.0 0.0002946
19810.0 0.00029205
19830.0 0.00028944
19850.0 0.00028684
19870.0 0.00028429
19890.0 0.00028164
19910.0 0.00027884
19930.0 0.00027598
19950.0 0.00027291
19970.0 0.00026942
19990.0 0.00026551
20010.0 0.00026655
20030.0 0.00026166
20050.0 0.00025622
20070.0 0.00025056
20090.0 0.00024467
20110.0 0.00023826
20130.0 0.00023196
20150.0 0.00022587
20170.0 0.00021972
20190.0 0.00021363
20210.0 0.00020797
20230.0 0.00020254
20250.0 0.00019719
20270.0 0.00019227
20290.0 0.00018781
20310.0 0.00018362
20330.0 0.00017974
20350.0 0.00017652
20370.0 0.00017368
20390.0 0.00017122
20410.0 0.00016926
20430.0 0.00016777
20450.0 0.00016666
20470.0 0.00016598
20490.0 0.00016571
20510.0 0.0001658
20530.0 0.00016626
20550.0 0.00016701
20570.0 0.00016799
20590.0 0.00016926
20610.0 0.00017075
20630.0 0.00017235
20650.0 0.00017411
20670.0 0.0001761
20690.0 0.00017808
20710.0 0.0001801
20730.0 0.00018224
20750.0 0.00018443
20770.0 0.00018654
20790.0 0.00018872
20810.0 0.00019099
20830.0 0.00019321
20850.0 0.0001954
20870.0 0.00019773
20890.0 0.00020009
20910.0 0.00020234
20930.0 0.00020467
20950.0 0.0002071
20970.0 0.00020946
20990.0 0.0002118
21010.0 0.00021428
21030.0 0.00021672
21050.0 0.00021906
21070.0 0.00022142
21090.0 0.00022381
21110.0 0.000226
21130.0 0.00022808
21150.0 0.00023013
21170.0 0.00023204
21190.0 0.00023372
21210.0 0.00023532
21230.0 0.00023676
21250.0 0.00023792
21270.0 0.00023886
21290.0 0.00023959
21310.0 0.00024004
21330.0 0.00024018
21350.0 0.00024004
21370.0 0.00023956
21390.0 0.00023874
21410.0 0.00023759
21430.0 0.00023598
21450.0 0.00023403
21470.0 0.00023177
21490.0 0.00022908
21510.0 0.000226
21530.0 0.00022272
21550.0 0.00021916
21570.0 0.00021521
21590.0 0.00021116
21610.0 0.00020709
21630.0 0.00020285
21650.0 0.0001985
21670.0 0.00019452
21690.0 0.00019063
21710.0 0.00018687
21730.0 0.00018348
21750.0 0.00018052
21770.0 0.0001778
21790.0 0.00017556
21810.0 0.00017385
21830.0 0.0001726
21850.0 0.00017184
21870.0 0.0001716
21890.0 0.00017183
21910.0 0.00017255
21930.0 0.00017374
21950.0 0.0001753
21970.0 0.00017728
21990.0 0.00017974
22010.0 0.00018242
22030.0 0.00018534
22050.0 0.0001886
22070.0 0.00019209
22090.0 0.00019556
22110.0 0.00019924
22130.0 0.0002031
22150.0 0.00020686
22170.0 0.00021054
22190.0 0.00021434
22210.0 0.000218
22230.0 0.00022131
22250.0 0.00022452
22270.0 0.00022754
22290.0 0.00023018
22310.0 0.00023247
22330.0 0.00023453
22350.0 0.00023615
22370.0 0.00023731
22390.0 0.00023807
22410.0 0.00023838
22430.0 0.0002382
22450.0 0.00023757
22470.0 0.00023644
22490.0 0.00023483
22510.0 0.00023283
22530.0 0.00023029
22550.0 0.00022721
22570.0 0.00022383
22590.0 0.00022004
22610.0 0.00021571
22630.0 0.00021105
22650.0 0.00020626
22670.0 0.00020098
22690.0 0.00019535
22710.0 0.00018967
22730.0 0.00018382
22750.0 0.00017748
22770.0 0.00017126
22790.0 0.00016519
22810.0 0.00015894
22830.0 0.00015271
22850.0 0.00014687
22870.0 0.00014115
22890.0 0.00013547
22910.0 0.00013027
22930.0 0.00012553
22950.0 0.00012107
22970.0 0.00011701
22990.0 0.00011373
23010.0 0.00011092
23030.0 0.00010863
23050.0 0.00010701
23070.0 0.00010602
23090.0 0.00010562
23110.0 0.00010588
23130.0 0.00010673
23150.0 0.00010816
23170.0 0.00011022
