#lamb flux
1010.0 1.0993e-05
1030.0 1.1761e-05
1050.0 1.2764e-05
1070.0 1.4344e-05
1090.0 1.6618e-05
1110.0 1.8981e-05
1130.0 2.1383e-05
1150.0 2.3913e-05
1170.0 2.6499e-05
1190.0 2.8859e-05
1210.0 3.1116e-05
1230.0 3.3254e-05
1250.0 3.5185e-05
1270.0 3.6724e-05
1290.0 3.8017e-05
1310.0 3.8896e-05
1330.0 3.9268e-05
1350.0 3.9267e-05
1370.0 3.8956e-05
1390.0 3.8271e-05
1410.0 3.7277e-05
1430.0 3.6157e-05
1450.0 3.4898e-05
1470.0 3.3525e-05
1490.0 3.216e-05
1510.0 3.0895e-05
1530.0 2.9656e-05
1550.0 2.8532e-05
1570.0 2.7596e-05
1590.0 2.684e-05
1610.0 2.6298e-05
1630.0 2.6199e-05
1650.0 2.639e-05
1670.0 2.6856e-05
1690.0 2.7634e-05
1710.0 2.879e-05
1730.0 3.0323e-05
1750.0 3.2209e-05
1770.0 3.4545e-05
1790.0 3.7358e-05
1810.0 4.0628e-05
1830.0 4.4391e-05
1850.0 4.8749e-05
1870.0 5.3633e-05
1890.0 5.9033e-05
1910.0 6.5011e-05
1930.0 7.1569e-05
1950.0 7.8578e-05
1970.0 8.6037e-05
1990.0 9.3979e-05
2010.0 0.00010225
2030.0 0.00011072
2050.0 0.00011943
2070.0 0.00012829
2090.0 0.000137
2110.0 0.00014558
2130.0 0.000154
2150.0 0.00016207
2170.0 0.00016961
2190.0 0.00017677
2210.0 0.00018343
2230.0 0.00018939
2250.0 0.00019475
2270.0 0.00019963
2290.0 0.00020384
2310.0 0.00020736
2330.0 0.00021046
2350.0 0.00021312
2370.0 0.00021529
2390.0 0.00021722
2410.0 0.00021917
2430.0 0.00022105
2450.0 0.00022306
2470.0 0.00022558
2490.0 0.0002288
2510.0 0.00023253
2530.0 0.00023745
2550.0 0.00024437
2570.0 0.00025373
2590.0 0.00026639
2610.0 0.00028517
2630.0 0.00031045
2650.0 0.00034112
2670.0 0.00037809
2690.0 0.00042091
2710.0 0.00046498
2730.0 0.00050851
2750.0 0.00055339
2770.0 0.00059703
2790.0 0.00063876
2810.0 0.00068148
2830.0 0.0007278
2850.0 0.000774
2870.0 0.00082225
2890.0 0.00087458
2910.0 0.00092928
2930.0 0.00098416
2950.0 0.0010429
2970.0 0.0011048
2990.0 0.0011673
3010.0 0.0012315
3030.0 0.0012997
3050.0 0.0013698
3070.0 0.0014381
3090.0 0.0015076
3110.0 0.0015754
3130.0 0.0016366
3150.0 0.0016897
3170.0 0.0017331
3190.0 0.0017648
3210.0 0.0017894
3230.0 0.0018098
3250.0 0.0018262
3270.0 0.0018435
3290.0 0.0018673
3310.0 0.0019023
3330.0 0.0019475
3350.0 0.0019997
3370.0 0.0020571
3390.0 0.0021067
3410.0 0.0021603
3430.0 0.0022939
3450.0 0.0023908
3470.0 0.0024558
3490.0 0.0025119
3510.0 0.0026566
3530.0 0.0031484
3550.0 0.0036464
3570.0 0.0039904
3590.0 0.0043975
3610.0 0.0044033
3630.0 0.0041066
3650.0 0.0043746
3670.0 0.0052119
3690.0 0.0058463
3710.0 0.0060704
3730.0 0.0061583
3750.0 0.0065497
3770.0 0.0065823
3790.0 0.0062868
3810.0 0.0059203
3830.0 0.0055729
3850.0 0.0055925
3870.0 0.005876
3890.0 0.006118
3910.0 0.0062869
3930.0 0.0063183
3950.0 0.0067441
3970.0 0.0072361
3990.0 0.0070033
4010.0 0.0062535
4030.0 0.005598
4050.0 0.0054699
4070.0 0.0057123
4090.0 0.005709
4110.0 0.0055144
4130.0 0.0054652
4150.0 0.0056738
4170.0 0.0062805
4190.0 0.0067012
4210.0 0.0063963
4230.0 0.0059267
4250.0 0.0056565
4270.0 0.0054883
4290.0 0.0055512
4310.0 0.0057089
4330.0 0.0054294
4350.0 0.0047896
4370.0 0.0042513
4390.0 0.003879
4410.0 0.003631
4430.0 0.003684
4450.0 0.0040338
4470.0 0.0044031
4490.0 0.0047513
4510.0 0.0053201
4530.0 0.0063834
4550.0 0.0075345
4570.0 0.0082292
4590.0 0.0087948
4610.0 0.0093601
4630.0 0.0095472
4650.0 0.0088683
4670.0 0.0075755
4690.0 0.0065728
4710.0 0.0062422
4730.0 0.0059971
4750.0 0.0053117
4770.0 0.004774
4790.0 0.0049379
4810.0 0.0053643
4830.0 0.0052869
4850.0 0.0047749
4870.0 0.004799
4890.0 0.0049588
4910.0 0.0051034
4930.0 0.0050575
4950.0 0.0049462
4970.0 0.0047281
4990.0 0.0043605
5010.0 0.0040534
5030.0 0.003912
5050.0 0.0038477
5070.0 0.0038083
5090.0 0.0037752
5110.0 0.0037685
5130.0 0.0038377
5150.0 0.0040448
5170.0 0.004438
5190.0 0.0049348
5210.0 0.0053917
5230.0 0.0056644
5250.0 0.0058093
5270.0 0.0060553
5290.0 0.0062741
5310.0 0.0062899
5330.0 0.0060605
5350.0 0.0058177
5370.0 0.0058206
5390.0 0.0060492
5410.0 0.006244
5430.0 0.0062551
5450.0 0.006182
5470.0 0.0060123
5490.0 0.0058231
5510.0 0.005739
5530.0 0.0057688
5550.0 0.005846
5570.0 0.0058878
5590.0 0.0057105
5610.0 0.0053869
5630.0 0.0050899
5650.0 0.0048549
5670.0 0.0047022
5690.0 0.0045005
5710.0 0.0043578
5730.0 0.004404
5750.0 0.0043798
5770.0 0.0042918
5790.0 0.0043285
5810.0 0.0044443
5830.0 0.0045397
5850.0 0.0045664
5870.0 0.0044579
5890.0 0.0042681
5910.0 0.0040749
5930.0 0.0038149
5950.0 0.0036192
5970.0 0.0036298
5990.0 0.0037283
6010.0 0.003744
6030.0 0.0036101
6050.0 0.0035767
6070.0 0.003712
6090.0 0.0038618
6110.0 0.0038846
6130.0 0.0037211
6150.0 0.0034874
6170.0 0.0033478
6190.0 0.0032357
6210.0 0.0031258
6230.0 0.0030417
6250.0 0.003026
6270.0 0.0031076
6290.0 0.003242
6310.0 0.0034024
6330.0 0.0035712
6350.0 0.0036913
6370.0 0.0037288
6390.0 0.0037218
6410.0 0.0037597
6430.0 0.0038098
6450.0 0.003814
6470.0 0.003843
6490.0 0.0038849
6510.0 0.0038897
6530.0 0.0038406
6550.0 0.0037305
6570.0 0.0036008
6590.0 0.003504
6610.0 0.0034296
6630.0 0.0033624
6650.0 0.0032478
6670.0 0.003118
6690.0 0.0030209
6710.0 0.0029619
6730.0 0.0029391
6750.0 0.0029072
6770.0 0.0028575
6790.0 0.00281
6810.0 0.0027711
6830.0 0.0027639
6850.0 0.0027538
6870.0 0.0027251
6890.0 0.002715
6910.0 0.0026669
6930.0 0.0026112
6950.0 0.0026048
6970.0 0.0025754
6990.0 0.002508
7010.0 0.0024687
7030.0 0.0024304
7050.0 0.0023809
7070.0 0.0023236
7090.0 0.0022753
7110.0 0.0023005
7130.0 0.0023744
7150.0 0.0024494
7170.0 0.0024969
7190.0 0.0024852
7210.0 0.0024502
7230.0 0.0024185
7250.0 0.0023871
7270.0 0.0023548
7290.0 0.0023211
7310.0 0.0023008
7330.0 0.002332
7350.0 0.0023562
7370.0 0.0023634
7390.0 0.0023395
7410.0 0.0022912
7430.0 0.0022711
7450.0 0.0022536
7470.0 0.0021601
7490.0 0.0020807
7510.0 0.0019899
7530.0 0.0019211
7550.0 0.0018981
7570.0 0.001924
7590.0 0.0019094
7610.0 0.001889
7630.0 0.0018767
7650.0 0.0018748
7670.0 0.0019108
7690.0 0.0019876
7710.0 0.0020592
7730.0 0.00213
7750.0 0.0021843
7770.0 0.0022168
7790.0 0.0022112
7810.0 0.0021687
7830.0 0.0021882
7850.0 0.0021817
7870.0 0.0021213
7890.0 0.0020501
7910.0 0.0019869
7930.0 0.0019276
7950.0 0.0018895
7970.0 0.0018878
7990.0 0.0019099
8010.0 0.0019033
8030.0 0.0018823
8050.0 0.0018488
8070.0 0.001814
8090.0 0.0017769
8110.0 0.0017816
8130.0 0.0017971
8150.0 0.0017973
8170.0 0.0017839
8190.0 0.0017534
8210.0 0.0016745
8230.0 0.0015638
8250.0 0.001495
8270.0 0.0014538
8290.0 0.0014322
8310.0 0.0014406
8330.0 0.0014703
8350.0 0.0014418
8370.0 0.0014081
8390.0 0.0014294
8410.0 0.0014848
8430.0 0.0015714
8450.0 0.001653
8470.0 0.0016802
8490.0 0.0017012
8510.0 0.0016995
8530.0 0.001699
8550.0 0.0017147
8570.0 0.0017196
8590.0 0.0017218
8610.0 0.0017698
8630.0 0.0017872
8650.0 0.0017492
8670.0 0.0017474
8690.0 0.0017569
8710.0 0.0017429
8730.0 0.0017269
8750.0 0.0016763
8770.0 0.0016541
8790.0 0.0016395
8810.0 0.0016222
8830.0 0.0015407
8850.0 0.0014242
8870.0 0.0013368
8890.0 0.0012871
8910.0 0.0012096
8930.0 0.0011267
8950.0 0.0010907
8970.0 0.0010849
8990.0 0.0010884
9010.0 0.0010813
9030.0 0.0010736
9050.0 0.0010666
9070.0 0.0010599
9090.0 0.0010532
9110.0 0.0010466
9130.0 0.0010399
9150.0 0.0010333
9170.0 0.0010268
9190.0 0.0010202
9210.0 0.0010136
9230.0 0.001007
9250.0 0.0010006
9270.0 0.00099407
9290.0 0.00098761
9310.0 0.00098117
9330.0 0.00097474
9350.0 0.00096836
9370.0 0.00096197
9390.0 0.00095564
9410.0 0.00094931
9430.0 0.000943
9450.0 0.00093657
9470.0 0.0009303
9490.0 0.00092429
9510.0 0.00091813
9530.0 0.00091203
9550.0 0.00090591
9570.0 0.00089984
9590.0 0.0008938
9610.0 0.00088778
9630.0 0.0008818
9650.0 0.00087584
9670.0 0.00086994
9690.0 0.00086405
9710.0 0.00085819
9730.0 0.00085238
9750.0 0.00084659
9770.0 0.00084082
9790.0 0.00083509
9810.0 0.00082941
9830.0 0.00082362
9850.0 0.00081709
9870.0 0.00081168
9890.0 0.00080644
9910.0 0.00080111
9930.0 0.00079555
9950.0 0.00079026
9970.0 0.00078487
9990.0 0.00077938
10010.0 0.00077325
10030.0 0.00076761
10050.0 0.00076268
10070.0 0.0007577
10090.0 0.00075269
10110.0 0.00074733
10130.0 0.00074115
10150.0 0.00073618
10170.0 0.00073138
10190.0 0.00072632
10210.0 0.00072139
10230.0 0.00071647
10250.0 0.00071135
10270.0 0.00070626
10290.0 0.00070134
10310.0 0.00069628
10330.0 0.00069109
10350.0 0.00068613
10370.0 0.00068121
10390.0 0.00067614
10410.0 0.00067112
10430.0 0.00066632
10450.0 0.00066137
10470.0 0.00065635
10490.0 0.0006515
10510.0 0.00064669
10530.0 0.00064162
10550.0 0.00063669
10570.0 0.00063194
10590.0 0.00062705
10610.0 0.0006221
10630.0 0.00061735
10650.0 0.00061258
10670.0 0.00060761
10690.0 0.00060276
10710.0 0.00059803
10730.0 0.00059316
10750.0 0.00058815
10770.0 0.00058346
10790.0 0.0005787
10810.0 0.0005738
10830.0 0.00056899
10850.0 0.00056434
10870.0 0.00055942
10890.0 0.00055454
10910.0 0.00054988
10930.0 0.00054522
10950.0 0.00054049
10970.0 0.00053597
10990.0 0.00053174
11010.0 0.00053969
11030.0 0.00053595
11050.0 0.00053239
11070.0 0.00052881
11090.0 0.000525
11110.0 0.00052133
11130.0 0.00051765
11150.0 0.00051379
11170.0 0.00050988
11190.0 0.00050613
11210.0 0.0005023
11230.0 0.00049842
11250.0 0.00049473
11270.0 0.00049118
11290.0 0.00048761
11310.0 0.00048417
11330.0 0.00048104
11350.0 0.00047796
11370.0 0.00047494
11390.0 0.00047212
11410.0 0.00046942
11430.0 0.00046664
11450.0 0.00046395
11470.0 0.00046133
11490.0 0.00045863
11510.0 0.00045579
11530.0 0.00045297
11550.0 0.00045007
11570.0 0.00044693
11590.0 0.00044367
11610.0 0.00044036
11630.0 0.00043679
11650.0 0.00043299
11670.0 0.00042921
11690.0 0.00042534
11710.0 0.00042126
11730.0 0.00041717
11750.0 0.00041321
11770.0 0.00040911
11790.0 0.00040499
11810.0 0.00040106
11830.0 0.0003972
11850.0 0.00039325
11870.0 0.00038951
11890.0 0.00038598
11910.0 0.00038247
11930.0 0.00037904
11950.0 0.00037586
11970.0 0.00037278
11990.0 0.00036971
12010.0 0.00036687
12030.0 0.00036422
12050.0 0.00036164
12070.0 0.00035919
12090.0 0.00035704
12110.0 0.00035504
12130.0 0.00035317
12150.0 0.00035154
12170.0 0.00035015
12190.0 0.00034891
12210.0 0.00034791
12230.0 0.00034717
12250.0 0.00034664
12270.0 0.00034633
12290.0 0.00034624
12310.0 0.00034632
12330.0 0.0003466
12350.0 0.00034704
12370.0 0.00034757
12390.0 0.0003482
12410.0 0.00034893
12430.0 0.00034962
12450.0 0.00035027
12470.0 0.00035087
12490.0 0.00035136
12510.0 0.00035166
12530.0 0.0003518
12550.0 0.00035171
12570.0 0.00035135
12590.0 0.00035072
12610.0 0.00034977
12630.0 0.00034849
12650.0 0.00034695
12670.0 0.00034508
12690.0 0.00034288
12710.0 0.00034047
12730.0 0.00033787
12750.0 0.00033491
12770.0 0.00033183
12790.0 0.00032871
12810.0 0.00032543
12830.0 0.00032199
12850.0 0.00031867
12870.0 0.00031535
12890.0 0.00031193
12910.0 0.00030858
12930.0 0.00030536
12950.0 0.00030206
12970.0 0.00029875
12990.0 0.00029564
13010.0 0.00029257
13030.0 0.00028945
13050.0 0.00028644
13070.0 0.0002836
13090.0 0.00028071
13110.0 0.00027788
13130.0 0.00027524
13150.0 0.00027268
13170.0 0.00027013
13190.0 0.00026778
13210.0 0.00026562
13230.0 0.00026351
13250.0 0.00026152
13270.0 0.00025971
13290.0 0.00025798
13310.0 0.00025629
13330.0 0.00025471
13350.0 0.00025321
13370.0 0.00025171
13390.0 0.0002502
13410.0 0.00024878
13430.0 0.00024733
13450.0 0.00024582
13470.0 0.00024432
13490.0 0.00024282
13510.0 0.00024121
13530.0 0.00023958
13550.0 0.00023798
13570.0 0.00023633
13590.0 0.00023461
13610.0 0.00023291
13630.0 0.00023124
13650.0 0.00022949
13670.0 0.00022774
13690.0 0.00022603
13710.0 0.0002243
13730.0 0.00022247
13750.0 0.00022074
13770.0 0.00021901
13790.0 0.00021721
13810.0 0.00021541
13830.0 0.00021367
13850.0 0.00021185
13870.0 0.00020997
13890.0 0.00020812
13910.0 0.00020626
13930.0 0.00020429
13950.0 0.0002023
13970.0 0.00020037
13990.0 0.00019836
14010.0 0.00019627
14030.0 0.00019423
14050.0 0.00019218
14070.0 0.00019
14090.0 0.00018787
14110.0 0.00018579
14130.0 0.00018369
14150.0 0.00018156
14170.0 0.00017957
14190.0 0.00017764
14210.0 0.0001757
14230.0 0.00017387
14250.0 0.00017217
14270.0 0.00017048
14290.0 0.00016886
14310.0 0.00016739
14330.0 0.000166
14350.0 0.00016463
14370.0 0.00016336
14390.0 0.00016219
14410.0 0.00016102
14430.0 0.00015989
14450.0 0.00015885
14470.0 0.00015784
14490.0 0.00015683
14510.0 0.00015588
14530.0 0.000155
14550.0 0.00015412
14570.0 0.00015327
14590.0 0.00015248
14610.0 0.00015171
14630.0 0.00015094
14650.0 0.00015022
14670.0 0.00014956
14690.0 0.0001489
14710.0 0.00014828
14730.0 0.00014774
14750.0 0.00014723
14770.0 0.00014677
14790.0 0.0001464
14810.0 0.00014611
14830.0 0.0001459
14850.0 0.00014579
14870.0 0.00014579
14890.0 0.00014589
14910.0 0.00014609
14930.0 0.00014636
14950.0 0.00014668
14970.0 0.00014702
14990.0 0.00014733
15010.0 0.00014759
15030.0 0.00014779
15050.0 0.00014791
15070.0 0.00014796
15090.0 0.00014797
15110.0 0.00014794
15130.0 0.00014789
15150.0 0.00014783
15170.0 0.00014776
15190.0 0.00014769
15210.0 0.00014762
15230.0 0.00014756
15250.0 0.00014749
15270.0 0.00014743
15290.0 0.00014737
15310.0 0.00014732
15330.0 0.00014726
15350.0 0.00014722
15370.0 0.00014717
15390.0 0.00014712
15410.0 0.00014708
15430.0 0.00014704
15450.0 0.000147
15470.0 0.00014696
15490.0 0.00014693
15510.0 0.00014691
15530.0 0.00014688
15550.0 0.00014685
15570.0 0.00014683
15590.0 0.00014681
15610.0 0.00014679
15630.0 0.00014678
15650.0 0.00014677
15670.0 0.00014675
15690.0 0.00014674
15710.0 0.00014674
15730.0 0.00014674
15750.0 0.00014673
15770.0 0.00014674
15790.0 0.00014674
15810.0 0.00014674
15830.0 0.00014675
15850.0 0.00014676
15870.0 0.00014677
15890.0 0.00014678
15910.0 0.0001468
15930.0 0.00014682
15950.0 0.00014683
15970.0 0.00014686
15990.0 0.00014688
16010.0 0.0001469
16030.0 0.00014693
16050.0 0.00014696
16070.0 0.00014699
16090.0 0.00014702
16110.0 0.00014706
16130.0 0.0001471
16150.0 0.00014713
16170.0 0.00014716
16190.0 0.00014721
16210.0 0.00014725
16230.0 0.00014728
16250.0 0.00014733
16270.0 0.00014738
16290.0 0.00014742
16310.0 0.00014747
16330.0 0.00014752
16350.0 0.00014757
16370.0 0.00014761
16390.0 0.00014766
16410.0 0.00014772
16430.0 0.00014777
16450.0 0.00014782
16470.0 0.00014788
16490.0 0.00014793
16510.0 0.00014798
16530.0 0.00014804
16550.0 0.00014809
16570.0 0.00014814
16590.0 0.00014819
16610.0 0.00014826
16630.0 0.00014831
16650.0 0.00014836
16670.0 0.00014842
16690.0 0.00014848
16710.0 0.00014853
16730.0 0.00014858
16750.0 0.00014864
16770.0 0.00014869
16790.0 0.00014874
16810.0 0.0001488
16830.0 0.00014885
16850.0 0.0001489
16870.0 0.00014895
16890.0 0.000149
16910.0 0.00014904
16930.0 0.00014908
16950.0 0.00014913
16970.0 0.00014918
16990.0 0.00014922
17010.0 0.00014926
17030.0 0.0001493
17050.0 0.00014934
17070.0 0.00014937
17090.0 0.00014941
17110.0 0.00014944
17130.0 0.00014946
17150.0 0.00014949
17170.0 0.00014952
17190.0 0.00014955
17210.0 0.00014956
17230.0 0.00014959
17250.0 0.0001496
17270.0 0.00014961
17290.0 0.00014962
17310.0 0.00014964
17330.0 0.00014964
17350.0 0.00014963
17370.0 0.00014964
17390.0 0.00014964
17410.0 0.00014963
17430.0 0.00014962
17450.0 0.00014961
17470.0 0.00014958
17490.0 0.00014956
17510.0 0.00014954
17530.0 0.00014951
17550.0 0.00014948
17570.0 0.00014945
17590.0 0.00014941
17610.0 0.00014936
17630.0 0.00014931
17650.0 0.00014927
17670.0 0.00014921
17690.0 0.00014914
17710.0 0.00014908
17730.0 0.00014902
17750.0 0.00014894
17770.0 0.00014886
17790.0 0.00014879
17810.0 0.0001487
17830.0 0.0001486
17850.0 0.00014851
17870.0 0.00014841
17890.0 0.0001483
17910.0 0.00014819
17930.0 0.00014808
17950.0 0.00014796
17970.0 0.00014783
17990.0 0.00014771
18010.0 0.00014757
18030.0 0.00014742
18050.0 0.00014728
18070.0 0.00014713
18090.0 0.00014697
18110.0 0.00014681
18130.0 0.00014664
18150.0 0.00014647
18170.0 0.00014629
18190.0 0.00014611
18210.0 0.00014593
18230.0 0.00014573
18250.0 0.00014552
18270.0 0.00014532
18290.0 0.00014511
18310.0 0.00014489
18330.0 0.00014467
18350.0 0.00014445
18370.0 0.00014421
18390.0 0.00014397
18410.0 0.00014373
18430.0 0.00014348
18450.0 0.00014321
18470.0 0.00014295
18490.0 0.00014269
18510.0 0.00014241
18530.0 0.00014213
18550.0 0.00014185
18570.0 0.00014156
18590.0 0.00014126
18610.0 0.00014096
18630.0 0.00014066
18650.0 0.00014034
18670.0 0.00014002
18690.0 0.0001397
18710.0 0.00013937
18730.0 0.00013903
18750.0 0.00013869
18770.0 0.00013835
18790.0 0.00013799
18810.0 0.00013763
18830.0 0.00013728
18850.0 0.00013691
18870.0 0.00013653
18890.0 0.00013616
18910.0 0.00013578
18930.0 0.00013538
18950.0 0.00013499
18970.0 0.0001346
18990.0 0.00013419
19010.0 0.00013377
19030.0 0.00013336
19050.0 0.00013295
19070.0 0.00013252
19090.0 0.00013209
19110.0 0.00013167
19130.0 0.00013122
19150.0 0.00013078
19170.0 0.00013033
19190.0 0.00012988
19210.0 0.00012942
19230.0 0.00012896
19250.0 0.0001285
19270.0 0.00012803
19290.0 0.00012755
19310.0 0.00012708
19330.0 0.0001266
19350.0 0.00012611
19370.0 0.00012562
19390.0 0.00012513
19410.0 0.00012463
19430.0 0.00012413
19450.0 0.00012363
19470.0 0.00012312
19490.0 0.0001226
19510.0 0.00012209
19530.0 0.00012158
19550.0 0.00012105
19570.0 0.00012052
19590.0 0.00012
19610.0 0.00011947
19630.0 0.00011893
19650.0 0.0001184
19670.0 0.00011786
19690.0 0.00011732
19710.0 0.00011677
19730.0 0.00011623
19750.0 0.00011568
19770.0 0.00011512
19790.0 0.00011457
19810.0 0.00011402
19830.0 0.00011345
19850.0 0.00011289
19870.0 0.00011232
19890.0 0.00011173
19910.0 0.00011111
19930.0 0.00011046
19950.0 0.00010974
19970.0 0.00010893
19990.0 0.000108
20010.0 0.00010699
20030.0 0.00010582
20050.0 0.00010452
20070.0 0.00010314
20090.0 0.00010169
20110.0 0.00010012
20130.0 9.8551e-05
20150.0 9.7008e-05
20170.0 9.5436e-05
20190.0 9.3861e-05
20210.0 9.2362e-05
20230.0 9.0896e-05
20250.0 8.9424e-05
20270.0 8.8024e-05
20290.0 8.6702e-05
20310.0 8.5407e-05
20330.0 8.4142e-05
20350.0 8.2999e-05
20370.0 8.1904e-05
20390.0 8.0847e-05
20410.0 7.9867e-05
20430.0 7.8966e-05
20450.0 7.8091e-05
20470.0 7.7278e-05
20490.0 7.6536e-05
20510.0 7.5841e-05
20530.0 7.5184e-05
20550.0 7.4582e-05
20570.0 7.4031e-05
20590.0 7.3509e-05
20610.0 7.3023e-05
20630.0 7.2575e-05
20650.0 7.2151e-05
20670.0 7.1747e-05
20690.0 7.1367e-05
20710.0 7.1001e-05
20730.0 7.0643e-05
20750.0 7.0289e-05
20770.0 6.9937e-05
20790.0 6.9578e-05
20810.0 6.9208e-05
20830.0 6.8824e-05
20850.0 6.8424e-05
20870.0 6.7996e-05
20890.0 6.7541e-05
20910.0 6.7067e-05
20930.0 6.656e-05
20950.0 6.6017e-05
20970.0 6.5452e-05
20990.0 6.4864e-05
21010.0 6.4232e-05
21030.0 6.3578e-05
21050.0 6.2913e-05
21070.0 6.2221e-05
21090.0 6.1497e-05
21110.0 6.078e-05
21130.0 6.0058e-05
21150.0 5.9314e-05
21170.0 5.8571e-05
21190.0 5.7846e-05
21210.0 5.7106e-05
21230.0 5.6364e-05
21250.0 5.5651e-05
21270.0 5.4952e-05
21290.0 5.4251e-05
21310.0 5.357e-05
21330.0 5.2925e-05
21350.0 5.2283e-05
21370.0 5.1654e-05
21390.0 5.1055e-05
21410.0 5.0476e-05
21430.0 4.9895e-05
21450.0 4.9342e-05
21470.0 4.8813e-05
21490.0 4.8289e-05
21510.0 4.7774e-05
21530.0 4.7283e-05
21550.0 4.6799e-05
21570.0 4.6313e-05
21590.0 4.5842e-05
21610.0 4.5383e-05
21630.0 4.4923e-05
21650.0 4.446e-05
21670.0 4.4018e-05
21690.0 4.3577e-05
21710.0 4.3132e-05
21730.0 4.2695e-05
21750.0 4.2269e-05
21770.0 4.1831e-05
21790.0 4.1397e-05
21810.0 4.0973e-05
21830.0 4.0547e-05
21850.0 4.0114e-05
21870.0 3.9688e-05
21890.0 3.927e-05
21910.0 3.8841e-05
21930.0 3.8412e-05
21950.0 3.7992e-05
21970.0 3.7567e-05
21990.0 3.7129e-05
22010.0 3.6705e-05
22030.0 3.6286e-05
22050.0 3.5859e-05
22070.0 3.5434e-05
22090.0 3.5025e-05
22110.0 3.4614e-05
22130.0 3.4201e-05
22150.0 3.3803e-05
22170.0 3.3416e-05
22190.0 3.3026e-05
22210.0 3.2646e-05
22230.0 3.2289e-05
22250.0 3.1936e-05
22270.0 3.1589e-05
22290.0 3.126e-05
22310.0 3.0943e-05
22330.0 3.0626e-05
22350.0 3.0323e-05
22370.0 3.0034e-05
22390.0 2.975e-05
22410.0 2.9467e-05
22430.0 2.9199e-05
22450.0 2.8938e-05
22470.0 2.8675e-05
22490.0 2.8417e-05
22510.0 2.8169e-05
22530.0 2.7916e-05
22550.0 2.7662e-05
22570.0 2.7417e-05
22590.0 2.7175e-05
22610.0 2.6928e-05
22630.0 2.6686e-05
22650.0 2.6454e-05
22670.0 2.6218e-05
22690.0 2.5985e-05
22710.0 2.5763e-05
22730.0 2.5545e-05
22750.0 2.5326e-05
22770.0 2.512e-05
22790.0 2.4927e-05
22810.0 2.4738e-05
22830.0 2.4559e-05
22850.0 2.4396e-05
22870.0 2.4244e-05
22890.0 2.4103e-05
22910.0 2.3979e-05
22930.0 2.3872e-05
22950.0 2.3781e-05
