#lamb flux
1010.0 1.0091e-06
1030.0 1.0518e-06
1050.0 1.1013e-06
1070.0 1.1571e-06
1090.0 1.2206e-06
1110.0 1.2861e-06
1130.0 1.3523e-06
1150.0 1.4221e-06
1170.0 1.4944e-06
1190.0 1.5636e-06
1210.0 1.6343e-06
1230.0 1.7078e-06
1250.0 1.7805e-06
1270.0 1.8519e-06
1290.0 1.9278e-06
1310.0 2.0044e-06
1330.0 2.0788e-06
1350.0 2.1549e-06
1370.0 2.234e-06
1390.0 2.3123e-06
1410.0 2.3894e-06
1430.0 2.4706e-06
1450.0 2.5527e-06
1470.0 2.6334e-06
1490.0 2.7157e-06
1510.0 2.8029e-06
1530.0 2.8871e-06
1550.0 2.9709e-06
1570.0 3.058e-06
1590.0 3.1457e-06
1610.0 3.2304e-06
1630.0 3.3178e-06
1650.0 3.4072e-06
1670.0 3.4941e-06
1690.0 3.5798e-06
1710.0 3.668e-06
1730.0 3.756e-06
1750.0 3.8385e-06
1770.0 3.9221e-06
1790.0 4.0059e-06
1810.0 4.0858e-06
1830.0 4.1626e-06
1850.0 4.2421e-06
1870.0 4.3175e-06
1890.0 4.3882e-06
1910.0 4.458e-06
1930.0 4.5272e-06
1950.0 4.5905e-06
1970.0 4.6504e-06
1990.0 4.7107e-06
2010.0 4.7675e-06
2030.0 4.8194e-06
2050.0 4.8717e-06
2070.0 4.924e-06
2090.0 4.9707e-06
2110.0 5.0162e-06
2130.0 5.0632e-06
2150.0 5.1086e-06
2170.0 5.1513e-06
2190.0 5.1974e-06
2210.0 5.2452e-06
2230.0 5.2923e-06
2250.0 5.3416e-06
2270.0 5.3971e-06
2290.0 5.4541e-06
2310.0 5.5128e-06
2330.0 5.5786e-06
2350.0 5.6506e-06
2370.0 5.7261e-06
2390.0 5.8093e-06
2410.0 5.9031e-06
2430.0 6.0029e-06
2450.0 6.1093e-06
2470.0 6.2257e-06
2490.0 6.351e-06
2510.0 6.4825e-06
2530.0 6.633e-06
2550.0 6.8239e-06
2570.0 7.0837e-06
2590.0 7.4521e-06
2610.0 8.0198e-06
2630.0 8.8368e-06
2650.0 9.8958e-06
2670.0 1.1233e-05
2690.0 1.2843e-05
2710.0 1.4565e-05
2730.0 1.6313e-05
2750.0 1.8118e-05
2770.0 1.9857e-05
2790.0 2.1489e-05
2810.0 2.3093e-05
2830.0 2.474e-05
2850.0 2.6352e-05
2870.0 2.8009e-05
2890.0 2.9778e-05
2910.0 3.1631e-05
2930.0 3.3521e-05
2950.0 3.554e-05
2970.0 3.7675e-05
2990.0 3.9852e-05
3010.0 7.2982e-05
3030.0 7.7054e-05
3050.0 8.1146e-05
3070.0 8.4954e-05
3090.0 8.8331e-05
3110.0 9.0561e-05
3130.0 9.0767e-05
3150.0 8.7966e-05
3170.0 8.019e-05
3190.0 6.7126e-05
3210.0 4.8885e-05
3230.0 2.8149e-05
3250.0 4.9348e-05
3270.0 2.133e-05
3290.0 7.1447e-05
3310.0 1.4219e-05
3330.0 1.4506e-05
3350.0 2.2241e-05
3370.0 3.105e-05
3390.0 4.0391e-05
3410.0 4.9693e-05
3430.0 5.9411e-05
3450.0 6.9095e-05
3470.0 7.7971e-05
3490.0 8.3789e-05
3510.0 0.0001043
3530.0 0.00014286
3550.0 0.00014321
3570.0 0.0001216
3590.0 0.00017426
3610.0 0.00011233
3630.0 0.0001811
3650.0 0.00020557
3670.0 0.00026426
3690.0 0.00025268
3710.0 0.00018032
3730.0 0.00024087
3750.0 0.00025047
3770.0 0.00025804
3790.0 0.00023344
3810.0 0.00020516
3830.0 0.00028367
3850.0 0.00030516
3870.0 0.00037898
3890.0 0.00035768
3910.0 0.00032474
3930.0 0.00035151
3950.0 0.00039562
3970.0 0.00051596
3990.0 0.00041548
4010.0 0.00027454
4030.0 0.00036975
4050.0 0.00040442
4070.0 0.00045956
4090.0 0.00040332
4110.0 0.00027582
4130.0 0.00036362
4150.0 0.00033424
4170.0 0.0003542
4190.0 0.00035246
4210.0 0.00043775
4230.0 0.00030617
4250.0 0.00036584
4270.0 0.00036544
4290.0 0.00036948
4310.0 0.00045004
4330.0 0.00046152
4350.0 0.0003579
4370.0 0.00030992
4390.0 0.00037602
4410.0 0.00038304
4430.0 0.000296
4450.0 0.00029781
4470.0 0.00034513
4490.0 0.00025756
4510.0 0.0003135
4530.0 0.00033855
4550.0 0.00045263
4570.0 0.00066278
4590.0 0.00064367
4610.0 0.0004307
4630.0 0.00068474
4650.0 0.00097982
4670.0 0.00090637
4690.0 0.00053858
4710.0 0.00058193
4730.0 0.00075184
4750.0 0.00067205
4770.0 0.00050897
4790.0 0.00035194
4810.0 0.00050798
4830.0 0.00058593
4850.0 0.00052371
4870.0 0.0001899
4890.0 0.00056218
4910.0 0.00077945
4930.0 0.00083586
4950.0 0.00082447
4970.0 0.00052056
4990.0 0.00059722
5010.0 0.00069397
5030.0 0.00075398
5050.0 0.00074314
5070.0 0.00053763
5090.0 0.00044131
5110.0 0.00041277
5130.0 0.00036816
5150.0 0.00042081
5170.0 0.00036685
5190.0 0.0004543
5210.0 0.00045327
5230.0 0.00049482
5250.0 0.00062602
5270.0 0.00053059
5290.0 0.00051987
5310.0 0.00075681
5330.0 0.00087441
5350.0 0.00073819
5370.0 0.00064343
5390.0 0.00072665
5410.0 0.00090585
5430.0 0.00099456
5450.0 0.0010638
5470.0 0.0010696
5490.0 0.0010467
5510.0 0.0012184
5530.0 0.0012599
5550.0 0.0013438
5570.0 0.0014201
5590.0 0.001404
5610.0 0.0013274
5630.0 0.001278
5650.0 0.0012984
5670.0 0.0012815
5690.0 0.0010933
5710.0 0.0010454
5730.0 0.0010534
5750.0 0.001144
5770.0 0.0009914
5790.0 0.0009065
5810.0 0.00091642
5830.0 0.00095928
5850.0 0.00087531
5870.0 0.00087758
5890.0 0.0010375
5910.0 0.00098692
5930.0 0.00080963
5950.0 0.00070216
5970.0 0.00074737
5990.0 0.0006872
6010.0 0.00064687
6030.0 0.00066216
6050.0 0.0006212
6070.0 0.00047017
6090.0 0.00042292
6110.0 0.00054415
6130.0 0.00062687
6150.0 0.00065972
6170.0 0.00064359
6190.0 0.00060625
6210.0 0.00059406
6230.0 0.00068648
6250.0 0.00063455
6270.0 0.00058033
6290.0 0.00053324
6310.0 0.00050439
6330.0 0.00047996
6350.0 0.00042071
6370.0 0.00041801
6390.0 0.00049538
6410.0 0.00061525
6430.0 0.0007065
6450.0 0.00066626
6470.0 0.00065375
6490.0 0.00081398
6510.0 0.00093124
6530.0 0.00088225
6550.0 0.00084924
6570.0 0.00086231
6590.0 0.00083545
6610.0 0.00090751
6630.0 0.00085453
6650.0 0.00075733
6670.0 0.00068264
6690.0 0.00066103
6710.0 0.00080722
6730.0 0.00074235
6750.0 0.00063914
6770.0 0.00057641
6790.0 0.00060409
6810.0 0.0006681
6830.0 0.00065213
6850.0 0.0005936
6870.0 0.00061304
6890.0 0.00060192
6910.0 0.00056826
6930.0 0.00065101
6950.0 0.00060404
6970.0 0.00056655
6990.0 0.00056593
7010.0 0.0005417
7030.0 0.00051017
7050.0 0.0004921
7070.0 0.00053163
7090.0 0.00050375
7110.0 0.00043714
7130.0 0.00035404
7150.0 0.00032138
7170.0 0.00042556
7190.0 0.00046374
7210.0 0.00044859
7230.0 0.00046686
7250.0 0.00043518
7270.0 0.00041456
7290.0 0.00045819
7310.0 0.00051041
7330.0 0.00050093
7350.0 0.00047029
7370.0 0.00044965
7390.0 0.00047108
7410.0 0.00054907
7430.0 0.00060047
7450.0 0.00063943
7470.0 0.00062875
7490.0 0.00064564
7510.0 0.00062031
7530.0 0.00062189
7550.0 0.00061498
7570.0 0.00054308
7590.0 0.00053895
7610.0 0.0005248
7630.0 0.00048997
7650.0 0.00053887
7670.0 0.00058949
7690.0 0.00064139
7710.0 0.0007164
7730.0 0.0007649
7750.0 0.00080104
7770.0 0.00080282
7790.0 0.00087769
7810.0 0.00090777
7830.0 0.00084164
7850.0 0.00084934
7870.0 0.00081064
7890.0 0.00084793
7910.0 0.00080564
7930.0 0.00081307
7950.0 0.00072359
7970.0 0.00074359
7990.0 0.00071465
8010.0 0.00071586
8030.0 0.0007144
8050.0 0.00075025
8070.0 0.00072525
8090.0 0.0007286
8110.0 0.00071164
8130.0 0.00071271
8150.0 0.00068382
8170.0 0.0006663
8190.0 0.0006594
8210.0 0.00066563
8230.0 0.00059408
8250.0 0.00054517
8270.0 0.00047926
8290.0 0.00039913
8310.0 0.00034116
8330.0 0.00027264
8350.0 0.00023001
8370.0 0.00023774
8390.0 0.0002441
8410.0 0.00025963
8430.0 0.00031677
8450.0 0.00033941
8470.0 0.00035922
8490.0 0.00041204
8510.0 0.0004501
8530.0 0.00051952
8550.0 0.00061523
8570.0 0.00068709
8590.0 0.0007387
8610.0 0.0008074
8630.0 0.00088846
8650.0 0.00090439
8670.0 0.00091533
8690.0 0.00095216
8710.0 0.00094413
8730.0 0.00093667
8750.0 0.00088845
8770.0 0.00089049
8790.0 0.00087968
8810.0 0.00081348
8830.0 0.00081326
8850.0 0.00076499
8870.0 0.00073623
8890.0 0.00067562
8910.0 0.00072384
8930.0 0.00066422
8950.0 0.00065364
8970.0 0.00065596
8990.0 0.00063545
9010.0 0.00064611
9030.0 0.00062037
9050.0 0.00061696
9070.0 0.00061619
9090.0 0.0006153
9110.0 0.00061462
9130.0 0.00061353
9150.0 0.00061225
9170.0 0.00060951
9190.0 0.00060449
9210.0 0.00061133
9230.0 0.00060808
9250.0 0.00060573
9270.0 0.00060352
9290.0 0.00060138
9310.0 0.00059931
9330.0 0.00059723
9350.0 0.00059511
9370.0 0.00059296
9390.0 0.00059077
9410.0 0.00058851
9430.0 0.00058618
9450.0 0.00058378
9470.0 0.00058135
9490.0 0.00057893
9510.0 0.00057645
9530.0 0.00057394
9550.0 0.00057137
9570.0 0.00056877
9590.0 0.00056616
9610.0 0.00056352
9630.0 0.00056085
9650.0 0.00055817
9670.0 0.00055547
9690.0 0.00055277
9710.0 0.00055005
9730.0 0.00054733
9750.0 0.00054461
9770.0 0.00054189
9790.0 0.00053917
9810.0 0.00053646
9830.0 0.00053375
9850.0 0.00053106
9870.0 0.00052837
9890.0 0.0005257
9910.0 0.00052305
9930.0 0.00052039
9950.0 0.00051621
9970.0 0.00051408
9990.0 0.00051189
10010.0 0.00050968
10030.0 0.00050736
10050.0 0.00050486
10070.0 0.00050188
10090.0 0.00049973
10110.0 0.00049749
10130.0 0.00049526
10150.0 0.00049304
10170.0 0.00049079
10190.0 0.00048848
10210.0 0.00048628
10230.0 0.00048415
10250.0 0.00048196
10270.0 0.00047983
10290.0 0.00047781
10310.0 0.00047576
10330.0 0.0004737
10350.0 0.00047176
10370.0 0.00046987
10390.0 0.00046795
10410.0 0.00046608
10430.0 0.00046434
10450.0 0.00046257
10470.0 0.00046081
10490.0 0.00045915
10510.0 0.00045754
10530.0 0.00045587
10550.0 0.00045429
10570.0 0.00045281
10590.0 0.00045132
10610.0 0.00044983
10630.0 0.00044846
10650.0 0.00044712
10670.0 0.00044574
10690.0 0.00044443
10710.0 0.00044321
10730.0 0.00044197
10750.0 0.00044072
10770.0 0.00043961
10790.0 0.00043852
10810.0 0.0004374
10830.0 0.00043634
10850.0 0.00043534
10870.0 0.0004342
10890.0 0.00043298
10910.0 0.00043163
10930.0 0.00042992
10950.0 0.00042755
10970.0 0.00042448
10990.0 0.00042065
11010.0 0.00041306
11030.0 0.00040724
11050.0 0.00040052
11070.0 0.00039282
11090.0 0.00038391
11110.0 0.00037503
11130.0 0.00036612
11150.0 0.00035689
11170.0 0.00034778
11190.0 0.00033932
11210.0 0.00033095
11230.0 0.0003227
11250.0 0.00031512
11270.0 0.00030809
11290.0 0.00030121
11310.0 0.00029481
11330.0 0.00028925
11350.0 0.00028396
11370.0 0.00027896
11390.0 0.00027451
11410.0 0.00027042
11430.0 0.00026632
11450.0 0.00026248
11470.0 0.00025886
11490.0 0.00025518
11510.0 0.0002513
11530.0 0.00024752
11550.0 0.00024362
11570.0 0.00023935
11590.0 0.00023491
11610.0 0.00023043
11630.0 0.00022553
11650.0 0.00022027
11670.0 0.00021512
11690.0 0.00020986
11710.0 0.00020432
11730.0 0.00019883
11750.0 0.00019364
11770.0 0.00018832
11790.0 0.00018308
11810.0 0.00017823
11830.0 0.00017363
11850.0 0.000169
11870.0 0.00016482
11890.0 0.00016106
11910.0 0.00015742
11930.0 0.00015398
11950.0 0.00015093
11970.0 0.00014803
11990.0 0.00014517
12010.0 0.00014255
12030.0 0.00014014
12050.0 0.00013775
12070.0 0.0001354
12090.0 0.00013334
12110.0 0.00013135
12130.0 0.0001294
12150.0 0.00012766
12170.0 0.00012615
12190.0 0.00012471
12210.0 0.00012354
12230.0 0.00012272
12250.0 0.0001222
12270.0 0.00012203
12290.0 0.00012229
12310.0 0.00012298
12330.0 0.00012411
12350.0 0.00012571
12370.0 0.00012771
12390.0 0.00013011
12410.0 0.000133
12430.0 0.00013607
12450.0 0.00013934
12470.0 0.00014285
12490.0 0.00014643
12510.0 0.00014989
12530.0 0.00015336
12550.0 0.00015676
12570.0 0.0001599
12590.0 0.00016281
12610.0 0.00016555
12630.0 0.000168
12650.0 0.0001701
12670.0 0.00017197
12690.0 0.00017357
12710.0 0.0001749
12730.0 0.00017598
12750.0 0.00017681
12770.0 0.00017741
12790.0 0.00017781
12810.0 0.00017798
12830.0 0.00017793
12850.0 0.00017771
12870.0 0.00017732
12890.0 0.00017669
12910.0 0.00017589
12930.0 0.00017496
12950.0 0.00017379
12970.0 0.00017237
12990.0 0.00017089
13010.0 0.00016924
13030.0 0.00016733
13050.0 0.00016531
13070.0 0.00016326
13090.0 0.00016099
13110.0 0.0001586
13130.0 0.00015626
13150.0 0.00015391
13170.0 0.00015145
13190.0 0.00014919
13210.0 0.00014715
13230.0 0.00014523
13250.0 0.00014353
13270.0 0.00014219
13290.0 0.00014113
13310.0 0.00014033
13330.0 0.00013989
13350.0 0.00013975
13370.0 0.00013984
13390.0 0.00014013
13410.0 0.00014055
13430.0 0.00014101
13450.0 0.00014145
13470.0 0.00014179
13490.0 0.00014196
13510.0 0.00014189
13530.0 0.00014156
13550.0 0.00014096
13570.0 0.00014008
13590.0 0.00013889
13610.0 0.00013751
13630.0 0.00013599
13650.0 0.00013425
13670.0 0.00013243
13690.0 0.00013063
13710.0 0.00012881
13730.0 0.00012694
13750.0 0.00012525
13770.0 0.00012366
13790.0 0.00012212
13810.0 0.00012067
13830.0 0.00011938
13850.0 0.00011811
13870.0 0.00011688
13890.0 0.00011575
13910.0 0.00011465
13930.0 0.00011354
13950.0 0.00011246
13970.0 0.00011145
13990.0 0.00011042
14010.0 0.00010941
14030.0 0.00010846
14050.0 0.00010756
14070.0 0.00010667
14090.0 0.00010587
14110.0 0.00010517
14130.0 0.00010453
14150.0 0.00010397
14170.0 0.00010352
14190.0 0.00010316
14210.0 0.00010289
14230.0 0.00010272
14250.0 0.00010263
14270.0 0.00010264
14290.0 0.00010275
14310.0 0.00010293
14330.0 0.00010318
14350.0 0.00010353
14370.0 0.00010391
14390.0 0.00010432
14410.0 0.00010478
14430.0 0.00010526
14450.0 0.0001057
14470.0 0.00010612
14490.0 0.00010653
14510.0 0.00010688
14530.0 0.00010715
14550.0 0.00010741
14570.0 0.00010762
14590.0 0.0001078
14610.0 0.00010797
14630.0 0.00010819
14650.0 0.00010843
14670.0 0.00010873
14690.0 0.00010915
14710.0 0.00010971
14730.0 0.00011035
14750.0 0.00011116
14770.0 0.00011217
14790.0 0.00011332
14810.0 0.00011459
14830.0 0.00011614
14850.0 0.00011781
14870.0 0.00011951
14890.0 0.00012131
14910.0 0.00012318
14930.0 0.00012489
14950.0 0.0001264
14970.0 0.00012776
14990.0 0.00012877
15010.0 0.00012938
15030.0 0.00012966
15050.0 0.00012964
15070.0 0.0001293
15090.0 0.00012879
15110.0 0.00012814
15130.0 0.00012741
15150.0 0.00012665
15170.0 0.00012585
15190.0 0.00012504
15210.0 0.00012424
15230.0 0.00012343
15250.0 0.00012261
15270.0 0.0001218
15290.0 0.000121
15310.0 0.00012019
15330.0 0.00011938
15350.0 0.00011858
15370.0 0.00011778
15390.0 0.00011697
15410.0 0.00011617
15430.0 0.00011537
15450.0 0.00011458
15470.0 0.00011378
15490.0 0.00011299
15510.0 0.0001122
15530.0 0.00011141
15550.0 0.00011063
15570.0 0.00010986
15590.0 0.00010908
15610.0 0.0001083
15630.0 0.00010753
15650.0 0.00010676
15670.0 0.000106
15690.0 0.00010524
15710.0 0.00010449
15730.0 0.00010374
15750.0 0.00010299
15770.0 0.00010225
15790.0 0.00010151
15810.0 0.00010077
15830.0 0.00010004
15850.0 9.9318e-05
15870.0 9.8596e-05
15890.0 9.7878e-05
15910.0 9.7171e-05
15930.0 9.6466e-05
15950.0 9.5759e-05
15970.0 9.5063e-05
15990.0 9.4375e-05
16010.0 9.3685e-05
16030.0 9.3e-05
16050.0 9.2328e-05
16070.0 9.1658e-05
16090.0 9.0989e-05
16110.0 9.0329e-05
16130.0 8.9679e-05
16150.0 8.9023e-05
16170.0 8.8375e-05
16190.0 8.7739e-05
16210.0 8.7105e-05
16230.0 8.6473e-05
16250.0 8.5851e-05
16270.0 8.5237e-05
16290.0 8.4621e-05
16310.0 8.4013e-05
16330.0 8.3415e-05
16350.0 8.2818e-05
16370.0 8.222e-05
16390.0 8.1638e-05
16410.0 8.1061e-05
16430.0 8.0483e-05
16450.0 7.9913e-05
16470.0 7.9355e-05
16490.0 7.8795e-05
16510.0 7.8238e-05
16530.0 7.7693e-05
16550.0 7.7153e-05
16570.0 7.6612e-05
16590.0 7.6078e-05
16610.0 7.5557e-05
16630.0 7.5035e-05
16650.0 7.4517e-05
16670.0 7.401e-05
16690.0 7.3507e-05
16710.0 7.3002e-05
16730.0 7.2507e-05
16750.0 7.202e-05
16770.0 7.1535e-05
16790.0 7.1052e-05
16810.0 7.0581e-05
16830.0 7.0114e-05
16850.0 6.9646e-05
16870.0 6.9187e-05
16890.0 6.8737e-05
16910.0 6.8285e-05
16930.0 6.7836e-05
16950.0 6.7399e-05
16970.0 6.6966e-05
16990.0 6.6532e-05
17010.0 6.6108e-05
17030.0 6.5691e-05
17050.0 6.5273e-05
17070.0 6.4859e-05
17090.0 6.4455e-05
17110.0 6.4053e-05
17130.0 6.365e-05
17150.0 6.3258e-05
17170.0 6.2872e-05
17190.0 6.2486e-05
17210.0 6.2104e-05
17230.0 6.1732e-05
17250.0 6.1361e-05
17270.0 6.0989e-05
17290.0 6.0627e-05
17310.0 6.027e-05
17330.0 5.9913e-05
17350.0 5.9559e-05
17370.0 5.9216e-05
17390.0 5.8874e-05
17410.0 5.8532e-05
17430.0 5.8199e-05
17450.0 5.7871e-05
17470.0 5.7539e-05
17490.0 5.7214e-05
17510.0 5.6897e-05
17530.0 5.6581e-05
17550.0 5.6265e-05
17570.0 5.5958e-05
17590.0 5.5656e-05
17610.0 5.5351e-05
17630.0 5.5052e-05
17650.0 5.4761e-05
17670.0 5.4469e-05
17690.0 5.4175e-05
17710.0 5.3893e-05
17730.0 5.3614e-05
17750.0 5.3334e-05
17770.0 5.3059e-05
17790.0 5.2792e-05
17810.0 5.2521e-05
17830.0 5.2253e-05
17850.0 5.1993e-05
17870.0 5.1735e-05
17890.0 5.1476e-05
17910.0 5.1221e-05
17930.0 5.0975e-05
17950.0 5.0727e-05
17970.0 5.048e-05
17990.0 5.0241e-05
18010.0 5.0005e-05
18030.0 4.9764e-05
18050.0 4.953e-05
18070.0 4.9302e-05
18090.0 4.9073e-05
18110.0 4.8845e-05
18130.0 4.8625e-05
18150.0 4.8406e-05
18170.0 4.8186e-05
18190.0 4.7971e-05
18210.0 4.7762e-05
18230.0 4.7549e-05
18250.0 4.7338e-05
18270.0 4.7135e-05
18290.0 4.6933e-05
18310.0 4.6729e-05
18330.0 4.6531e-05
18350.0 4.6338e-05
18370.0 4.6142e-05
18390.0 4.5948e-05
18410.0 4.5761e-05
18430.0 4.5574e-05
18450.0 4.5383e-05
18470.0 4.5201e-05
18490.0 4.5022e-05
18510.0 4.4841e-05
18530.0 4.4663e-05
18550.0 4.449e-05
18570.0 4.4317e-05
18590.0 4.4141e-05
18610.0 4.3972e-05
18630.0 4.3806e-05
18650.0 4.3638e-05
18670.0 4.3471e-05
18690.0 4.3312e-05
18710.0 4.3152e-05
18730.0 4.299e-05
18750.0 4.2834e-05
18770.0 4.2681e-05
18790.0 4.2523e-05
18810.0 4.2369e-05
18830.0 4.2221e-05
18850.0 4.2071e-05
18870.0 4.1921e-05
18890.0 4.1776e-05
18910.0 4.1634e-05
18930.0 4.1488e-05
18950.0 4.1345e-05
18970.0 4.1208e-05
18990.0 4.1068e-05
19010.0 4.0925e-05
19030.0 4.0792e-05
19050.0 4.0659e-05
19070.0 4.0523e-05
19090.0 4.039e-05
19110.0 4.0263e-05
19130.0 4.0131e-05
19150.0 4e-05
19170.0 3.9875e-05
19190.0 3.975e-05
19210.0 3.9622e-05
19230.0 3.9497e-05
19250.0 3.9378e-05
19270.0 3.9256e-05
19290.0 3.9134e-05
19310.0 3.9017e-05
19330.0 3.89e-05
19350.0 3.8778e-05
19370.0 3.8662e-05
19390.0 3.8549e-05
19410.0 3.8434e-05
19430.0 3.8318e-05
19450.0 3.8209e-05
19470.0 3.8099e-05
19490.0 3.7986e-05
19510.0 3.7877e-05
19530.0 3.7771e-05
19550.0 3.7661e-05
19570.0 3.7551e-05
19590.0 3.7447e-05
19610.0 3.7343e-05
19630.0 3.7236e-05
19650.0 3.7133e-05
19670.0 3.7034e-05
19690.0 3.6929e-05
19710.0 3.6826e-05
19730.0 3.6728e-05
19750.0 3.6628e-05
19770.0 3.6525e-05
19790.0 3.6427e-05
19810.0 3.6332e-05
19830.0 3.6232e-05
19850.0 3.6132e-05
19870.0 3.6034e-05
19890.0 3.5926e-05
19910.0 3.5803e-05
19930.0 3.5666e-05
19950.0 3.5501e-05
19970.0 3.5285e-05
19990.0 3.5015e-05
20010.0 3.4698e-05
20030.0 3.4307e-05
20050.0 3.3843e-05
20070.0 3.3339e-05
20090.0 3.2798e-05
20110.0 3.2187e-05
20130.0 3.1574e-05
20150.0 3.0972e-05
20170.0 3.0353e-05
20190.0 2.9728e-05
20210.0 2.9143e-05
20230.0 2.8576e-05
20250.0 2.8009e-05
20270.0 2.7486e-05
20290.0 2.7013e-05
20310.0 2.6566e-05
20330.0 2.6152e-05
20350.0 2.5817e-05
20370.0 2.5529e-05
20390.0 2.5288e-05
20410.0 2.5111e-05
20430.0 2.4995e-05
20450.0 2.4932e-05
20470.0 2.493e-05
20490.0 2.4985e-05
20510.0 2.5093e-05
20530.0 2.5256e-05
20550.0 2.5464e-05
20570.0 2.5703e-05
20590.0 2.5985e-05
20610.0 2.6299e-05
20630.0 2.6622e-05
20650.0 2.6963e-05
20670.0 2.7329e-05
20690.0 2.7679e-05
20710.0 2.8016e-05
20730.0 2.835e-05
20750.0 2.8664e-05
20770.0 2.8941e-05
20790.0 2.9195e-05
20810.0 2.9422e-05
20830.0 2.9608e-05
20850.0 2.9757e-05
20870.0 2.9874e-05
20890.0 2.9954e-05
20910.0 2.9998e-05
20930.0 3.0011e-05
20950.0 2.9992e-05
20970.0 2.9948e-05
20990.0 2.9881e-05
21010.0 2.9786e-05
21030.0 2.9673e-05
21050.0 2.9546e-05
21070.0 2.9401e-05
21090.0 2.9237e-05
21110.0 2.907e-05
21130.0 2.8898e-05
21150.0 2.8714e-05
21170.0 2.8529e-05
21190.0 2.8352e-05
21210.0 2.8171e-05
21230.0 2.7992e-05
21250.0 2.7831e-05
21270.0 2.7683e-05
21290.0 2.7545e-05
21310.0 2.7427e-05
21330.0 2.7335e-05
21350.0 2.726e-05
21370.0 2.7209e-05
21390.0 2.7184e-05
21410.0 2.7184e-05
21430.0 2.7209e-05
21450.0 2.7261e-05
21470.0 2.7335e-05
21490.0 2.7433e-05
21510.0 2.7554e-05
21530.0 2.7691e-05
21550.0 2.7846e-05
21570.0 2.8023e-05
21590.0 2.8211e-05
21610.0 2.8407e-05
21630.0 2.8619e-05
21650.0 2.8848e-05
21670.0 2.9071e-05
21690.0 2.9305e-05
21710.0 2.9553e-05
21730.0 2.9802e-05
21750.0 3.0049e-05
21770.0 3.0315e-05
21790.0 3.0586e-05
21810.0 3.0854e-05
21830.0 3.1128e-05
21850.0 3.1418e-05
21870.0 3.1704e-05
21890.0 3.1985e-05
21910.0 3.228e-05
21930.0 3.2577e-05
21950.0 3.2865e-05
21970.0 3.3155e-05
21990.0 3.3454e-05
22010.0 3.3734e-05
22030.0 3.4001e-05
22050.0 3.4265e-05
22070.0 3.4513e-05
22090.0 3.4732e-05
22110.0 3.4935e-05
22130.0 3.5117e-05
22150.0 3.5264e-05
22170.0 3.5379e-05
22190.0 3.5462e-05
22210.0 3.5504e-05
22230.0 3.5506e-05
22250.0 3.5467e-05
22270.0 3.5383e-05
22290.0 3.5258e-05
22310.0 3.5094e-05
22330.0 3.4876e-05
22350.0 3.4619e-05
22370.0 3.433e-05
22390.0 3.3998e-05
22410.0 3.3617e-05
22430.0 3.3224e-05
22450.0 3.2806e-05
22470.0 3.2348e-05
22490.0 3.1876e-05
22510.0 3.1406e-05
22530.0 3.0905e-05
22550.0 3.0388e-05
22570.0 2.9891e-05
22590.0 2.9398e-05
22610.0 2.8893e-05
22630.0 2.8405e-05
