#lamb flux
1010.0 4.747e-05
1030.0 5.3178e-05
1050.0 5.8843e-05
1070.0 6.5244e-05
1090.0 7.2805e-05
1110.0 8.0555e-05
1130.0 8.8377e-05
1150.0 9.6615e-05
1170.0 0.0001052
1190.0 0.0001135
1210.0 0.00012209
1230.0 0.0001312
1250.0 0.00014037
1270.0 0.00014962
1290.0 0.00015969
1310.0 0.00017015
1330.0 0.00018062
1350.0 0.00019156
1370.0 0.00020312
1390.0 0.00021475
1410.0 0.00022637
1430.0 0.00023857
1450.0 0.00025092
1470.0 0.00026301
1490.0 0.00027521
1510.0 0.0002879
1530.0 0.00029995
1550.0 0.00031169
1570.0 0.00032354
1590.0 0.00033512
1610.0 0.00034591
1630.0 0.00035652
1650.0 0.00036696
1670.0 0.0003766
1690.0 0.00038561
1710.0 0.00039448
1730.0 0.00040287
1750.0 0.00041013
1770.0 0.00041714
1790.0 0.00042383
1810.0 0.00042973
1830.0 0.00043505
1850.0 0.00044054
1870.0 0.00044545
1890.0 0.0004498
1910.0 0.00045412
1930.0 0.00045853
1950.0 0.00046244
1970.0 0.00046622
1990.0 0.00047032
2010.0 0.00047429
2030.0 0.00047796
2050.0 0.00048189
2070.0 0.000486
2090.0 0.00048953
2110.0 0.00049291
2130.0 0.0004963
2150.0 0.00049926
2170.0 0.00050151
2190.0 0.0005036
2210.0 0.00050523
2230.0 0.00050597
2250.0 0.00050604
2270.0 0.00050576
2290.0 0.00050452
2310.0 0.00050227
2330.0 0.00049949
2350.0 0.00049602
2370.0 0.00049152
2390.0 0.00048633
2410.0 0.00048064
2430.0 0.00047392
2450.0 0.00046618
2470.0 0.00045765
2490.0 0.00044823
2510.0 0.00043799
2530.0 0.00042798
2550.0 0.00041972
2570.0 0.00041511
2590.0 0.00041618
2610.0 0.00042734
2630.0 0.00044986
2650.0 0.00048162
2670.0 0.00052268
2690.0 0.00057044
2710.0 0.00061534
2730.0 0.0006519
2750.0 0.00067854
2770.0 0.00068781
2790.0 0.0006777
2810.0 0.00064931
2830.0 0.00060191
2850.0 0.00054083
2870.0 0.00046936
2890.0 0.00038799
2910.0 0.00030087
2930.0 0.00021282
2950.0 0.00011993
2970.0 3.2593e-05
2990.0 3.2593e-05
3010.0 6.6183e-05
3030.0 6.6183e-05
3050.0 6.6183e-05
3070.0 6.6183e-05
3090.0 6.6183e-05
3110.0 6.6183e-05
3130.0 6.6183e-05
3150.0 6.6183e-05
3170.0 6.6183e-05
3190.0 6.6183e-05
3210.0 6.6183e-05
3230.0 0.0026904
3250.0 0.0047927
3270.0 0.0044957
3290.0 0.0041966
3310.0 0.0031899
3330.0 0.0030959
3350.0 0.0034191
3370.0 0.0039011
3390.0 0.0044317
3410.0 0.0050008
3430.0 0.0057508
3450.0 0.006485
3470.0 0.0072455
3490.0 0.0075244
3510.0 0.0068343
3530.0 0.0065732
3550.0 0.0072731
3570.0 0.0078102
3590.0 0.0084646
3610.0 0.0082646
3630.0 0.010012
3650.0 0.010931
3670.0 0.011544
3690.0 0.01147
3710.0 0.010384
3730.0 0.010254
3750.0 0.0097406
3770.0 0.009408
3790.0 0.0088602
3810.0 0.008427
3830.0 0.0086961
3850.0 0.004608
3870.0 0.0061817
3890.0 0.0071667
3910.0 0.0088102
3930.0 0.011308
3950.0 0.012258
3970.0 0.013694
3990.0 0.016404
4010.0 0.013909
4030.0 0.011967
4050.0 0.008642
4070.0 0.0081445
4090.0 0.012004
4110.0 0.012005
4130.0 0.013067
4150.0 0.012523
4170.0 0.011858
4190.0 0.010763
4210.0 0.0145
4230.0 0.015313
4250.0 0.016689
4270.0 0.015889
4290.0 0.015663
4310.0 0.017015
4330.0 0.019984
4350.0 0.020859
4370.0 0.020734
4390.0 0.018918
4410.0 0.017454
4430.0 0.013606
4450.0 0.011079
4470.0 0.011963
4490.0 0.014027
4510.0 0.014602
4530.0 0.014718
4550.0 0.014889
4570.0 0.021214
4590.0 0.031754
4610.0 0.03731
4630.0 0.037793
4650.0 0.040754
4670.0 0.047516
4690.0 0.051506
4710.0 0.042937
4730.0 0.032751
4750.0 0.025655
4770.0 0.02212
4790.0 0.020234
4810.0 0.019182
4830.0 0.021261
4850.0 0.025123
4870.0 0.027549
4890.0 0.028772
4910.0 0.027099
4930.0 0.029299
4950.0 0.035759
4970.0 0.041659
4990.0 0.043203
5010.0 0.039784
5030.0 0.03304
5050.0 0.025448
5070.0 0.020297
5090.0 0.01833
5110.0 0.018043
5130.0 0.018376
5150.0 0.018246
5170.0 0.017158
5190.0 0.016097
5210.0 0.015854
5230.0 0.018061
5250.0 0.021645
5270.0 0.026029
5290.0 0.029849
5310.0 0.032121
5330.0 0.035641
5350.0 0.039807
5370.0 0.041518
5390.0 0.037875
5410.0 0.03389
5430.0 0.033416
5450.0 0.039235
5470.0 0.048759
5490.0 0.057109
5510.0 0.061152
5530.0 0.060774
5550.0 0.058577
5570.0 0.057152
5590.0 0.055575
5610.0 0.0551
5630.0 0.055411
5650.0 0.056132
5670.0 0.055653
5690.0 0.050994
5710.0 0.043531
5730.0 0.039403
5750.0 0.038234
5770.0 0.039581
5790.0 0.041319
5810.0 0.043318
5830.0 0.044495
5850.0 0.042988
5870.0 0.041102
5890.0 0.040562
5910.0 0.042525
5930.0 0.044793
5950.0 0.042708
5970.0 0.038177
5990.0 0.031976
6010.0 0.026094
6030.0 0.024093
6050.0 0.026093
6070.0 0.027737
6090.0 0.026443
6110.0 0.023339
6130.0 0.023883
6150.0 0.027787
6170.0 0.031946
6190.0 0.035066
6210.0 0.035572
6230.0 0.035012
6250.0 0.031973
6270.0 0.026725
6290.0 0.022064
6310.0 0.019582
6330.0 0.019132
6350.0 0.019475
6370.0 0.01974
6390.0 0.022201
6410.0 0.027692
6430.0 0.034175
6450.0 0.038342
6470.0 0.039529
6490.0 0.039258
6510.0 0.040071
6530.0 0.041297
6550.0 0.041096
6570.0 0.042644
6590.0 0.043723
6610.0 0.044468
6630.0 0.043724
6650.0 0.040833
6670.0 0.037256
6690.0 0.033878
6710.0 0.032063
6730.0 0.031669
6750.0 0.032243
6770.0 0.033127
6790.0 0.034203
6810.0 0.034929
6830.0 0.034262
6850.0 0.032607
6870.0 0.030548
6890.0 0.029861
6910.0 0.028961
6930.0 0.029973
6950.0 0.031758
6970.0 0.032599
6990.0 0.033203
7010.0 0.032254
7030.0 0.029658
7050.0 0.026241
7070.0 0.023415
7090.0 0.021912
7110.0 0.021722
7130.0 0.0212
7150.0 0.018949
7170.0 0.017978
7190.0 0.019669
7210.0 0.022745
7230.0 0.026227
7250.0 0.027764
7270.0 0.027443
7290.0 0.025311
7310.0 0.023364
7330.0 0.02242
7350.0 0.022483
7370.0 0.022907
7390.0 0.023996
7410.0 0.026588
7430.0 0.030727
7450.0 0.034692
7470.0 0.036592
7490.0 0.03574
7510.0 0.033201
7530.0 0.028718
7550.0 0.025961
7570.0 0.023058
7590.0 0.021589
7610.0 0.022035
7630.0 0.023691
7650.0 0.026056
7670.0 0.028426
7690.0 0.030031
7710.0 0.031699
7730.0 0.033401
7750.0 0.034794
7770.0 0.034299
7790.0 0.03432
7810.0 0.034721
7830.0 0.034383
7850.0 0.033079
7870.0 0.031857
7890.0 0.031869
7910.0 0.030836
7930.0 0.030215
7950.0 0.028493
7970.0 0.027551
7990.0 0.026422
8010.0 0.026671
8030.0 0.02675
8050.0 0.026802
8070.0 0.026371
8090.0 0.026076
8110.0 0.025032
8130.0 0.024879
8150.0 0.024449
8170.0 0.023719
8190.0 0.023114
8210.0 0.022919
8230.0 0.022259
8250.0 0.02171
8270.0 0.019593
8290.0 0.015948
8310.0 0.011949
8330.0 0.0092048
8350.0 0.0085804
8370.0 0.010199
8390.0 0.012325
8410.0 0.013273
8430.0 0.013574
8450.0 0.014227
8470.0 0.015193
8490.0 0.016964
8510.0 0.019298
8530.0 0.02209
8550.0 0.024682
8570.0 0.026792
8590.0 0.028381
8610.0 0.029242
8630.0 0.029202
8650.0 0.028827
8670.0 0.028739
8690.0 0.030088
8710.0 0.03191
8730.0 0.033091
8750.0 0.032868
8770.0 0.033221
8790.0 0.032994
8810.0 0.030898
8830.0 0.029025
8850.0 0.026578
8870.0 0.024599
8890.0 0.023907
8910.0 0.023877
8930.0 0.022498
8950.0 0.020945
8970.0 0.020271
8990.0 0.020047
9010.0 0.019256
9030.0 0.018824
9050.0 0.018665
9070.0 0.018592
9090.0 0.018528
9110.0 0.018467
9130.0 0.018406
9150.0 0.018346
9170.0 0.018278
9190.0 0.018228
9210.0 0.018251
9230.0 0.018158
9250.0 0.018082
9270.0 0.018014
9290.0 0.017952
9310.0 0.017893
9330.0 0.017835
9350.0 0.017782
9370.0 0.017729
9390.0 0.017675
9410.0 0.017623
9430.0 0.01757
9450.0 0.017494
9470.0 0.017426
9490.0 0.017398
9510.0 0.017359
9530.0 0.017316
9550.0 0.017272
9570.0 0.017226
9590.0 0.017179
9610.0 0.017132
9630.0 0.017086
9650.0 0.017039
9670.0 0.016993
9690.0 0.016946
9710.0 0.016901
9730.0 0.016855
9750.0 0.016809
9770.0 0.016763
9790.0 0.016718
9810.0 0.016672
9830.0 0.016626
9850.0 0.016581
9870.0 0.016535
9890.0 0.016488
9910.0 0.016442
9930.0 0.016394
9950.0 0.01622
9970.0 0.016211
9990.0 0.016194
10010.0 0.016172
10030.0 0.01614
10050.0 0.016098
10070.0 0.016055
10090.0 0.016012
10110.0 0.01596
10130.0 0.015909
10150.0 0.01586
10170.0 0.015807
10190.0 0.015749
10210.0 0.015695
10230.0 0.015643
10250.0 0.015585
10270.0 0.015526
10290.0 0.015472
10310.0 0.015412
10330.0 0.015346
10350.0 0.015286
10370.0 0.015226
10390.0 0.015159
10410.0 0.015091
10430.0 0.015029
10450.0 0.01496
10470.0 0.014887
10490.0 0.014818
10510.0 0.014748
10530.0 0.014668
10550.0 0.01459
10570.0 0.014516
10590.0 0.014436
10610.0 0.014352
10630.0 0.014273
10650.0 0.01419
10670.0 0.0141
10690.0 0.014011
10710.0 0.013924
10730.0 0.013831
10750.0 0.013731
10770.0 0.013639
10790.0 0.013543
10810.0 0.013441
10830.0 0.013339
10850.0 0.01324
10870.0 0.01313
10890.0 0.013017
10910.0 0.012908
10930.0 0.012794
10950.0 0.012669
10970.0 0.012543
10990.0 0.012418
11010.0 0.013103
11030.0 0.012952
11050.0 0.012805
11070.0 0.012655
11090.0 0.012496
11110.0 0.012349
11130.0 0.012207
11150.0 0.012063
11170.0 0.011922
11190.0 0.011791
11210.0 0.011657
11230.0 0.011521
11250.0 0.011392
11270.0 0.011266
11290.0 0.011134
11310.0 0.011002
11330.0 0.01088
11350.0 0.010753
11370.0 0.010621
11390.0 0.010493
11410.0 0.010363
11430.0 0.010221
11450.0 0.010077
11470.0 0.0099309
11490.0 0.0097742
11510.0 0.0096041
11530.0 0.0094338
11550.0 0.0092574
11570.0 0.0090664
11590.0 0.0088708
11610.0 0.0086769
11630.0 0.0084717
11650.0 0.008259
11670.0 0.0080555
11690.0 0.0078529
11710.0 0.0076457
11730.0 0.0074446
11750.0 0.0072559
11770.0 0.0070654
11790.0 0.0068786
11810.0 0.0067042
11830.0 0.0065364
11850.0 0.0063667
11870.0 0.0062084
11890.0 0.0060608
11910.0 0.0059145
11930.0 0.0057721
11950.0 0.0056401
11970.0 0.0055118
11990.0 0.0053836
12010.0 0.0052637
12030.0 0.0051512
12050.0 0.0050411
12070.0 0.0049351
12090.0 0.0048412
12110.0 0.0047527
12130.0 0.0046697
12150.0 0.0045964
12170.0 0.0045332
12190.0 0.0044762
12210.0 0.0044298
12230.0 0.0043943
12250.0 0.0043682
12270.0 0.0043523
12290.0 0.0043465
12310.0 0.0043496
12330.0 0.0043629
12350.0 0.0043853
12370.0 0.0044146
12390.0 0.0044521
12410.0 0.0045
12430.0 0.0045511
12450.0 0.0046065
12470.0 0.004669
12490.0 0.0047349
12510.0 0.0047992
12530.0 0.0048667
12550.0 0.0049356
12570.0 0.0049993
12590.0 0.0050582
12610.0 0.0051143
12630.0 0.0051624
12650.0 0.005198
12670.0 0.0052251
12690.0 0.0052413
12710.0 0.0052444
12730.0 0.0052354
12750.0 0.0052141
12770.0 0.0051804
12790.0 0.0051363
12810.0 0.0050819
12830.0 0.0050175
12850.0 0.0049483
12870.0 0.0048745
12890.0 0.0047951
12910.0 0.0047145
12930.0 0.0046354
12950.0 0.0045546
12970.0 0.0044742
12990.0 0.0043991
13010.0 0.0043266
13030.0 0.004255
13050.0 0.0041872
13070.0 0.0041237
13090.0 0.0040605
13110.0 0.0039988
13130.0 0.0039402
13150.0 0.0038828
13170.0 0.0038241
13190.0 0.0037678
13210.0 0.0037136
13230.0 0.0036591
13250.0 0.0036057
13270.0 0.0035556
13290.0 0.0035072
13310.0 0.0034605
13330.0 0.0034184
13350.0 0.0033811
13370.0 0.0033476
13390.0 0.0033189
13410.0 0.0032962
13430.0 0.0032778
13450.0 0.0032633
13470.0 0.0032523
13490.0 0.0032434
13510.0 0.0032356
13530.0 0.0032276
13550.0 0.0032179
13570.0 0.0032057
13590.0 0.0031896
13610.0 0.0031696
13630.0 0.0031457
13650.0 0.0031165
13670.0 0.0030833
13690.0 0.0030474
13710.0 0.0030084
13730.0 0.0029658
13750.0 0.0029245
13770.0 0.0028836
13790.0 0.0028426
13810.0 0.0028038
13830.0 0.0027688
13850.0 0.0027357
13870.0 0.0027053
13890.0 0.0026791
13910.0 0.0026559
13930.0 0.002635
13950.0 0.0026168
13970.0 0.0026013
13990.0 0.002587
14010.0 0.0025735
14030.0 0.002561
14050.0 0.0025486
14070.0 0.0025354
14090.0 0.0025216
14110.0 0.0025071
14130.0 0.002491
14150.0 0.0024729
14170.0 0.0024541
14190.0 0.0024339
14210.0 0.0024117
14230.0 0.0023888
14250.0 0.002366
14270.0 0.0023421
14290.0 0.0023182
14310.0 0.0022962
14330.0 0.0022754
14350.0 0.0022559
14370.0 0.0022389
14390.0 0.0022247
14410.0 0.0022124
14430.0 0.0022028
14450.0 0.0021958
14470.0 0.0021911
14490.0 0.0021883
14510.0 0.0021875
14530.0 0.0021882
14550.0 0.0021903
14570.0 0.0021938
14590.0 0.0021985
14610.0 0.0022046
14630.0 0.0022127
14650.0 0.0022224
14670.0 0.002234
14690.0 0.0022483
14710.0 0.0022655
14730.0 0.0022844
14750.0 0.0023065
14770.0 0.0023321
14790.0 0.0023602
14810.0 0.0023906
14830.0 0.0024265
14850.0 0.0024655
14870.0 0.0025066
14890.0 0.0025515
14910.0 0.0026002
14930.0 0.0026486
14950.0 0.0026954
14970.0 0.0027415
14990.0 0.0027824
15010.0 0.002816
15030.0 0.0028436
15050.0 0.002865
15070.0 0.0028796
15090.0 0.0028901
15110.0 0.0028979
15130.0 0.0029037
15150.0 0.0029086
15170.0 0.002913
15190.0 0.0029173
15210.0 0.0029215
15230.0 0.0029259
15250.0 0.0029302
15270.0 0.0029347
15290.0 0.0029393
15310.0 0.002944
15330.0 0.0029488
15350.0 0.0029536
15370.0 0.0029586
15390.0 0.0029636
15410.0 0.0029687
15430.0 0.0029739
15450.0 0.0029792
15470.0 0.0029845
15490.0 0.00299
15510.0 0.0029955
15530.0 0.003001
15550.0 0.0030067
15570.0 0.0030124
15590.0 0.0030181
15610.0 0.0030239
15630.0 0.0030298
15650.0 0.0030358
15670.0 0.0030417
15690.0 0.0030478
15710.0 0.0030539
15730.0 0.00306
15750.0 0.0030662
15770.0 0.0030724
15790.0 0.0030787
15810.0 0.0030849
15830.0 0.0030912
15850.0 0.0030976
15870.0 0.003104
15890.0 0.0031104
15910.0 0.0031168
15930.0 0.0031233
15950.0 0.0031297
15970.0 0.0031362
15990.0 0.0031427
16010.0 0.0031491
16030.0 0.0031556
16050.0 0.0031621
16070.0 0.0031686
16090.0 0.0031751
16110.0 0.0031816
16130.0 0.0031881
16150.0 0.0031945
16170.0 0.003201
16190.0 0.0032074
16210.0 0.0032138
16230.0 0.0032202
16250.0 0.0032265
16270.0 0.0032328
16290.0 0.0032391
16310.0 0.0032453
16330.0 0.0032516
16350.0 0.0032577
16370.0 0.0032638
16390.0 0.0032699
16410.0 0.0032759
16430.0 0.0032818
16450.0 0.0032877
16470.0 0.0032935
16490.0 0.0032993
16510.0 0.0033049
16530.0 0.0033106
16550.0 0.0033161
16570.0 0.0033215
16590.0 0.0033269
16610.0 0.0033322
16630.0 0.0033374
16650.0 0.0033424
16670.0 0.0033475
16690.0 0.0033524
16710.0 0.0033571
16730.0 0.0033618
16750.0 0.0033664
16770.0 0.0033709
16790.0 0.0033752
16810.0 0.0033795
16830.0 0.0033836
16850.0 0.0033875
16870.0 0.0033914
16890.0 0.0033952
16910.0 0.0033987
16930.0 0.0034022
16950.0 0.0034055
16970.0 0.0034087
16990.0 0.0034117
17010.0 0.0034146
17030.0 0.0034174
17050.0 0.00342
17070.0 0.0034224
17090.0 0.0034247
17110.0 0.0034268
17130.0 0.0034287
17150.0 0.0034305
17170.0 0.0034322
17190.0 0.0034336
17210.0 0.0034349
17230.0 0.003436
17250.0 0.003437
17270.0 0.0034377
17290.0 0.0034383
17310.0 0.0034387
17330.0 0.003439
17350.0 0.003439
17370.0 0.0034389
17390.0 0.0034386
17410.0 0.003438
17430.0 0.0034374
17450.0 0.0034365
17470.0 0.0034354
17490.0 0.0034341
17510.0 0.0034327
17530.0 0.0034311
17550.0 0.0034292
17570.0 0.0034272
17590.0 0.003425
17610.0 0.0034226
17630.0 0.00342
17650.0 0.0034172
17670.0 0.0034142
17690.0 0.0034109
17710.0 0.0034076
17730.0 0.003404
17750.0 0.0034002
17770.0 0.0033963
17790.0 0.0033921
17810.0 0.0033878
17830.0 0.0033832
17850.0 0.0033785
17870.0 0.0033736
17890.0 0.0033684
17910.0 0.0033631
17930.0 0.0033577
17950.0 0.003352
17970.0 0.0033461
17990.0 0.0033401
18010.0 0.0033339
18030.0 0.0033274
18050.0 0.0033208
18070.0 0.0033141
18090.0 0.0033071
18110.0 0.0033
18130.0 0.0032927
18150.0 0.0032853
18170.0 0.0032776
18190.0 0.0032698
18210.0 0.0032619
18230.0 0.0032537
18250.0 0.0032454
18270.0 0.003237
18290.0 0.0032284
18310.0 0.0032196
18330.0 0.0032107
18350.0 0.0032017
18370.0 0.0031924
18390.0 0.0031831
18410.0 0.0031736
18430.0 0.003164
18450.0 0.0031542
18470.0 0.0031443
18490.0 0.0031343
18510.0 0.0031241
18530.0 0.0031138
18550.0 0.0031034
18570.0 0.0030929
18590.0 0.0030822
18610.0 0.0030715
18630.0 0.0030607
18650.0 0.0030497
18670.0 0.0030386
18690.0 0.0030274
18710.0 0.0030161
18730.0 0.0030048
18750.0 0.0029933
18770.0 0.0029818
18790.0 0.0029701
18810.0 0.0029584
18830.0 0.0029466
18850.0 0.0029347
18870.0 0.0029227
18890.0 0.0029107
18910.0 0.0028986
18930.0 0.0028864
18950.0 0.0028742
18970.0 0.0028619
18990.0 0.0028496
19010.0 0.0028372
19030.0 0.0028247
19050.0 0.0028123
19070.0 0.0027997
19090.0 0.0027871
19110.0 0.0027746
19130.0 0.0027619
19150.0 0.0027492
19170.0 0.0027365
19190.0 0.0027237
19210.0 0.002711
19230.0 0.0026982
19250.0 0.0026854
19270.0 0.0026725
19290.0 0.0026597
19310.0 0.0026469
19330.0 0.002634
19350.0 0.0026211
19370.0 0.0026082
19390.0 0.0025954
19410.0 0.0025825
19430.0 0.0025696
19450.0 0.0025568
19470.0 0.0025439
19490.0 0.0025311
19510.0 0.0025183
19530.0 0.0025055
19550.0 0.0024926
19570.0 0.0024798
19590.0 0.0024671
19610.0 0.0024544
19630.0 0.0024416
19650.0 0.002429
19670.0 0.0024163
19690.0 0.0024037
19710.0 0.0023911
19730.0 0.0023785
19750.0 0.002366
19770.0 0.0023535
19790.0 0.002341
19810.0 0.0023286
19830.0 0.0023162
19850.0 0.0023037
19870.0 0.0022911
19890.0 0.002278
19910.0 0.002264
19930.0 0.0022488
19950.0 0.0022317
19970.0 0.0022114
19990.0 0.0021874
20010.0 0.0021603
20030.0 0.0021287
20050.0 0.0020928
20070.0 0.0020546
20090.0 0.0020146
20110.0 0.0019714
20130.0 0.0019286
20150.0 0.001887
20170.0 0.0018452
20190.0 0.001804
20210.0 0.0017652
20230.0 0.0017277
20250.0 0.0016905
20270.0 0.0016555
20290.0 0.0016227
20310.0 0.0015907
20330.0 0.0015595
20350.0 0.0015314
20370.0 0.0015044
20390.0 0.0014782
20410.0 0.0014537
20430.0 0.0014311
20450.0 0.001409
20470.0 0.0013882
20490.0 0.0013691
20510.0 0.0013512
20530.0 0.0013342
20550.0 0.0013187
20570.0 0.0013047
20590.0 0.0012915
20610.0 0.0012794
20630.0 0.0012687
20650.0 0.0012589
20670.0 0.00125
20690.0 0.0012421
20710.0 0.001235
20730.0 0.0012287
20750.0 0.0012231
20770.0 0.0012179
20790.0 0.0012132
20810.0 0.0012089
20830.0 0.0012048
20850.0 0.0012008
20870.0 0.0011969
20890.0 0.001193
20910.0 0.0011888
20930.0 0.0011844
20950.0 0.0011797
20970.0 0.0011745
20990.0 0.001169
21010.0 0.0011629
21030.0 0.0011563
21050.0 0.0011491
21070.0 0.0011414
21090.0 0.001133
21110.0 0.0011243
21130.0 0.001115
21150.0 0.0011052
21170.0 0.0010949
21190.0 0.0010844
21210.0 0.0010734
21230.0 0.001062
21250.0 0.0010505
21270.0 0.0010389
21290.0 0.0010269
21310.0 0.0010149
21330.0 0.0010033
21350.0 0.0009914
21370.0 0.00097953
21390.0 0.00096808
21410.0 0.00095692
21430.0 0.00094567
21450.0 0.00093507
21470.0 0.00092512
21490.0 0.00091551
21510.0 0.00090643
21530.0 0.0008982
21550.0 0.0008906
21570.0 0.00088358
21590.0 0.00087742
21610.0 0.00087205
21630.0 0.00086739
21650.0 0.00086353
21670.0 0.0008604
21690.0 0.00085794
21710.0 0.00085619
21730.0 0.000855
21750.0 0.00085424
21770.0 0.0008541
21790.0 0.00085433
21810.0 0.00085471
21830.0 0.00085532
21850.0 0.0008562
21870.0 0.00085698
21890.0 0.00085758
21910.0 0.00085823
21930.0 0.00085868
21950.0 0.00085877
21970.0 0.00085865
21990.0 0.00085833
22010.0 0.00085754
22030.0 0.00085639
22050.0 0.00085495
22070.0 0.00085318
22090.0 0.00085103
22110.0 0.00084863
22130.0 0.00084596
22150.0 0.00084303
22170.0 0.00083988
22190.0 0.00083652
22210.0 0.00083295
22230.0 0.00082925
22250.0 0.00082536
22270.0 0.00082126
22290.0 0.00081702
22310.0 0.0008126
22330.0 0.00080785
22350.0 0.00080285
22370.0 0.00079763
22390.0 0.00079202
22410.0 0.00078589
22430.0 0.00077951
22450.0 0.00077272
22470.0 0.00076528
22490.0 0.00075739
22510.0 0.00074921
22530.0 0.00074029
22550.0 0.00073074
22570.0 0.00072106
22590.0 0.00071101
22610.0 0.00070036
22630.0 0.00068956
22650.0 0.00067896
22670.0 0.00066795
22690.0 0.00065687
22710.0 0.00064619
22730.0 0.00063572
22750.0 0.00062505
22770.0 0.00061506
22790.0 0.00060571
22810.0 0.00059659
22830.0 0.00058791
22850.0 0.00058003
22870.0 0.00057259
22890.0 0.00056549
22910.0 0.00055905
22930.0 0.00055319
22950.0 0.00054765
22970.0 0.00054246
22990.0 0.00053786
23010.0 0.0005335
23030.0 0.00052931
23050.0 0.00052538
23070.0 0.00052165
23090.0 0.00051785
23110.0 0.00051411
23130.0 0.00051044
23150.0 0.00050668
23170.0 0.00050277
23190.0 0.00049885
23210.0 0.00049492
23230.0 0.00049081
23250.0 0.00048665
23270.0 0.00048258
23290.0 0.00047847
23310.0 0.00047429
23330.0 0.00047034
23350.0 0.00046652
23370.0 0.00046276
23390.0 0.00045914
23410.0 0.00045578
23430.0 0.0004525
23450.0 0.00044929
23470.0 0.00044626
23490.0 0.00044335
23510.0 0.00044043
23530.0 0.00043759
23550.0 0.00043487
23570.0 0.00043214
23590.0 0.0004294
23610.0 0.00042675
23630.0 0.00042416
23650.0 0.00042154
23670.0 0.00041904
23690.0 0.0004167
23710.0 0.00041448
23730.0 0.00041245
23750.0 0.00041072
23770.0 0.00040929
23790.0 0.00040823
23810.0 0.00040761
23830.0 0.00040745
23850.0 0.00040788
23870.0 0.00040898
23890.0 0.00041063
23910.0 0.00041293
23930.0 0.00041603
23950.0 0.00041973
23970.0 0.00042384
