#lamb flux
1010.0 3.5559e-08
1030.0 3.9031e-08
1050.0 4.3023e-08
1070.0 4.7518e-08
1090.0 5.2623e-08
1110.0 5.7859e-08
1130.0 6.3129e-08
1150.0 6.865e-08
1170.0 7.4344e-08
1190.0 7.9744e-08
1210.0 8.5217e-08
1230.0 9.0872e-08
1250.0 9.6412e-08
1270.0 1.0179e-07
1290.0 1.0748e-07
1310.0 1.1316e-07
1330.0 1.1861e-07
1350.0 1.2412e-07
1370.0 1.2981e-07
1390.0 1.3535e-07
1410.0 1.4073e-07
1430.0 1.4636e-07
1450.0 1.5198e-07
1470.0 1.5742e-07
1490.0 1.6291e-07
1510.0 1.6872e-07
1530.0 1.7421e-07
1550.0 1.7964e-07
1570.0 1.8525e-07
1590.0 1.9087e-07
1610.0 1.9624e-07
1630.0 2.0177e-07
1650.0 2.0745e-07
1670.0 2.1295e-07
1690.0 2.1837e-07
1710.0 2.2401e-07
1730.0 2.2967e-07
1750.0 2.35e-07
1770.0 2.4049e-07
1790.0 2.4608e-07
1810.0 2.515e-07
1830.0 2.5682e-07
1850.0 2.6247e-07
1870.0 2.6797e-07
1890.0 2.7328e-07
1910.0 2.787e-07
1930.0 2.8424e-07
1950.0 2.8953e-07
1970.0 2.9474e-07
1990.0 3.0015e-07
2010.0 3.0545e-07
2030.0 3.1055e-07
2050.0 3.158e-07
2070.0 3.2116e-07
2090.0 3.2619e-07
2110.0 3.3118e-07
2130.0 3.3631e-07
2150.0 3.413e-07
2170.0 3.4603e-07
2190.0 3.5092e-07
2210.0 3.5581e-07
2230.0 3.6044e-07
2250.0 3.65e-07
2270.0 3.6974e-07
2290.0 3.7427e-07
2310.0 3.7855e-07
2330.0 3.8296e-07
2350.0 3.8747e-07
2370.0 3.9191e-07
2390.0 3.9676e-07
2410.0 4.0266e-07
2430.0 4.0961e-07
2450.0 4.1813e-07
2470.0 4.2937e-07
2490.0 4.4384e-07
2510.0 4.6045e-07
2530.0 4.8068e-07
2550.0 5.0627e-07
2570.0 5.3825e-07
2590.0 5.7988e-07
2610.0 6.4223e-07
2630.0 7.3076e-07
2650.0 8.4561e-07
2670.0 9.9301e-07
2690.0 1.1727e-06
2710.0 1.3626e-06
2730.0 1.5482e-06
2750.0 1.729e-06
2770.0 1.8837e-06
2790.0 2.0037e-06
2810.0 2.0961e-06
2830.0 2.1655e-06
2850.0 2.2095e-06
2870.0 2.2391e-06
2890.0 2.2603e-06
2910.0 2.2752e-06
2930.0 2.2859e-06
2950.0 2.2956e-06
2970.0 2.3051e-06
2990.0 2.3137e-06
3010.0 6.9632e-05
3030.0 6.9879e-05
3050.0 7.0116e-05
3070.0 7.0292e-05
3090.0 7.0415e-05
3110.0 7.0409e-05
3130.0 7.0179e-05
3150.0 6.9657e-05
3170.0 6.8706e-05
3190.0 6.734e-05
3210.0 6.5671e-05
3230.0 6.3789e-05
3250.0 6.1889e-05
3270.0 6.0483e-05
3290.0 5.9555e-05
3310.0 5.95e-05
3330.0 6.0169e-05
3350.0 6.1489e-05
3370.0 6.3455e-05
3390.0 6.5984e-05
3410.0 6.8763e-05
3430.0 7.1903e-05
3450.0 7.5531e-05
3470.0 7.951e-05
3490.0 8.3748e-05
3510.0 8.8554e-05
3530.0 9.3739e-05
3550.0 9.9106e-05
3570.0 0.00010483
3590.0 0.0001111
3610.0 0.00011777
3630.0 0.00012438
3650.0 0.00013129
3670.0 0.00013755
3690.0 0.0001422
3710.0 0.00014472
3730.0 0.00014416
3750.0 0.00014084
3770.0 0.00014209
3790.0 0.00014089
3810.0 0.00012641
3830.0 0.00012823
3850.0 0.00016038
3870.0 0.00016657
3890.0 0.0001496
3910.0 0.0001449
3930.0 0.00015799
3950.0 0.00017144
3970.0 0.00016928
3990.0 0.00012914
4010.0 0.0003403
4030.0 0.00039047
4050.0 0.00044536
4070.0 0.00041619
4090.0 0.00038143
4110.0 0.0003296
4130.0 0.0003344
4150.0 0.00039459
4170.0 0.00035327
4190.0 0.00035145
4210.0 0.00036571
4230.0 0.00041095
4250.0 0.00049131
4270.0 0.000513
4290.0 0.00046188
4310.0 0.0004574
4330.0 0.00047104
4350.0 0.00055643
4370.0 0.0006526
4390.0 0.00057033
4410.0 0.00037648
4430.0 0.00030076
4450.0 0.00027929
4470.0 0.00019629
4490.0 0.00024756
4510.0 0.00044439
4530.0 0.00052705
4550.0 0.00050992
4570.0 0.00051889
4590.0 0.00057428
4610.0 0.0009188
4630.0 0.0012439
4650.0 0.0012669
4670.0 0.0011446
4690.0 0.0011197
4710.0 0.0011755
4730.0 0.0010481
4750.0 0.00074195
4770.0 0.00052573
4790.0 0.00052501
4810.0 0.00052443
4830.0 0.00049706
4850.0 0.0005415
4870.0 0.0007162
4890.0 0.00083708
4910.0 0.00069794
4930.0 0.0006452
4950.0 0.00072474
4970.0 0.000943
4990.0 0.0012768
5010.0 0.0014766
5030.0 0.0012476
5050.0 0.00081117
5070.0 0.00055189
5090.0 0.00043067
5110.0 0.00042454
5130.0 0.00050072
5150.0 0.00051896
5170.0 0.00050118
5190.0 0.00045788
5210.0 0.00049337
5230.0 0.00055658
5250.0 0.00062167
5270.0 0.00062605
5290.0 0.00068416
5310.0 0.00084884
5330.0 0.00093062
5350.0 0.00092153
5370.0 0.00099599
5390.0 0.0011897
5410.0 0.0011094
5430.0 0.00092665
5450.0 0.00088573
5470.0 0.00097702
5490.0 0.0012038
5510.0 0.0014838
5530.0 0.0017117
5550.0 0.0016066
5570.0 0.0014532
5590.0 0.0012331
5610.0 0.0011845
5630.0 0.0012304
5650.0 0.00115
5670.0 0.0010733
5690.0 0.00091591
5710.0 0.00091552
5730.0 0.00086375
5750.0 0.0005457
5770.0 0.00040903
5790.0 0.00048021
5810.0 0.000525
5830.0 0.00071448
5850.0 0.00088998
5870.0 0.00097589
5890.0 0.00096598
5910.0 0.00094539
5930.0 0.00090239
5950.0 0.00092379
5970.0 0.0010971
5990.0 0.00096995
6010.0 0.00078424
6030.0 0.0006536
6050.0 0.00057547
6070.0 0.00061974
6090.0 0.000682
6110.0 0.00073086
6130.0 0.00071315
6150.0 0.00059042
6170.0 0.00048972
6190.0 0.00056603
6210.0 0.00081023
6230.0 0.0011276
6250.0 0.0012223
6270.0 0.001005
6290.0 0.00085289
6310.0 0.00065883
6330.0 0.00049353
6350.0 0.00045958
6370.0 0.00048285
6390.0 0.00056574
6410.0 0.00071507
6430.0 0.00084724
6450.0 0.0010021
6470.0 0.001101
6490.0 0.0013226
6510.0 0.0014806
6530.0 0.0014846
6550.0 0.0013538
6570.0 0.0011121
6590.0 0.0010259
6610.0 0.00086723
6630.0 0.00084169
6650.0 0.00080896
6670.0 0.00074169
6690.0 0.00061919
6710.0 0.00058312
6730.0 0.00033399
6750.0 0.00037781
6770.0 0.00049521
6790.0 0.00061492
6810.0 0.00049
6830.0 0.00050227
6850.0 0.0004424
6870.0 0.00040778
6890.0 0.00036825
6910.0 0.00041983
6930.0 0.00039454
6950.0 0.00043775
6970.0 0.00045894
6990.0 0.00051517
7010.0 0.00050624
7030.0 0.00055016
7050.0 0.00049922
7070.0 0.00044406
7090.0 0.00046162
7110.0 0.00048447
7130.0 0.00054073
7150.0 0.00059381
7170.0 0.00066162
7190.0 0.00071853
7210.0 0.00067198
7230.0 0.00068593
7250.0 0.00073446
7270.0 0.00079164
7290.0 0.00096034
7310.0 0.0010324
7330.0 0.00098509
7350.0 0.00088727
7370.0 0.00071483
7390.0 0.00071194
7410.0 0.00081
7430.0 0.00091253
7450.0 0.00098866
7470.0 0.00093834
7490.0 0.00079488
7510.0 0.0010755
7530.0 0.0010219
7550.0 0.00094602
7570.0 0.00068847
7590.0 0.00038905
7610.0 0.00031028
7630.0 0.0003947
7650.0 0.00049399
7670.0 0.00069277
7690.0 0.00076597
7710.0 0.00074393
7730.0 0.00076242
7750.0 0.0009249
7770.0 0.00094596
7790.0 0.000866
7810.0 0.00074279
7830.0 0.00078588
7850.0 0.0008129
7870.0 0.00077106
7890.0 0.00062294
7910.0 0.00046132
7930.0 0.00045941
7950.0 0.00041719
7970.0 0.00036889
7990.0 0.00035125
8010.0 9.4945e-05
8030.0 8.6092e-05
8050.0 9.3155e-05
8070.0 0.00010701
8090.0 0.00013323
8110.0 0.00012583
8130.0 7.2187e-05
8150.0 7.6594e-05
8170.0 4.0317e-05
8190.0 2.2161e-05
8210.0 6.9296e-05
8230.0 8.4777e-05
8250.0 3.0791e-05
8270.0 2.3391e-05
8290.0 5.1123e-05
8310.0 4.644e-05
8330.0 2.8719e-05
8350.0 2.282e-05
8370.0 4.2219e-06
8390.0 2.4566e-05
8410.0 2.7905e-05
8430.0 3.4513e-05
8450.0 3.9182e-05
8470.0 6.7186e-05
8490.0 5.4997e-05
8510.0 4.2065e-05
8530.0 2.1082e-05
8550.0 7.6939e-05
8570.0 0.00011849
8590.0 8.2107e-05
8610.0 0.0001243
8630.0 0.00013627
8650.0 7.4867e-05
8670.0 0.00011031
8690.0 0.00016939
8710.0 0.00014437
8730.0 0.00015435
8750.0 0.00012061
8770.0 0.0001069
8790.0 0.00011823
8810.0 0.00012844
8830.0 7.0593e-05
8850.0 2.8492e-05
8870.0 1.9396e-05
8890.0 5.2283e-05
8910.0 8.4328e-05
8930.0 0.00011294
8950.0 0.00012418
8970.0 0.00011909
8990.0 8.6895e-05
9010.0 0.00016246
9030.0 0.00013151
9050.0 0.00013443
9070.0 0.00013778
9090.0 0.00014057
9110.0 0.00014399
9130.0 0.00014649
9150.0 0.00014829
9170.0 0.0001502
9190.0 0.00015224
9210.0 0.00015439
9230.0 0.00015666
9250.0 0.00015895
9270.0 0.00016131
9290.0 0.00016374
9310.0 0.00016616
9330.0 0.00016861
9350.0 0.00017115
9370.0 0.0001737
9390.0 0.00017625
9410.0 0.00017887
9430.0 0.00018156
9450.0 0.00018422
9470.0 0.00018693
9490.0 0.00018971
9510.0 0.00019251
9530.0 0.00019531
9550.0 0.00019821
9570.0 0.00020115
9590.0 0.00020408
9610.0 0.00020706
9630.0 0.00021012
9650.0 0.0002132
9670.0 0.00021626
9690.0 0.00021941
9710.0 0.00022261
9730.0 0.0002258
9750.0 0.00022904
9770.0 0.00023239
9790.0 0.00023571
9810.0 0.00023904
9830.0 0.00024245
9850.0 0.00024591
9870.0 0.00024933
9890.0 0.00025282
9910.0 0.00025638
9930.0 0.00025993
9950.0 0.00026348
9970.0 0.00026713
9990.0 0.0002708
10010.0 0.00023753
10030.0 0.00024072
10050.0 0.00024397
10070.0 0.00024721
10090.0 0.00025042
10110.0 0.00025371
10130.0 0.00025701
10150.0 0.00026027
10170.0 0.00026358
10190.0 0.00026694
10210.0 0.00027025
10230.0 0.00027355
10250.0 0.0002769
10270.0 0.00028025
10290.0 0.00028356
10310.0 0.00028691
10330.0 0.00029029
10350.0 0.00029362
10370.0 0.00029693
10390.0 0.00030028
10410.0 0.00030361
10430.0 0.00030687
10450.0 0.00031017
10470.0 0.00031347
10490.0 0.00031672
10510.0 0.00031993
10530.0 0.00032321
10550.0 0.00032642
10570.0 0.00032956
10590.0 0.00033272
10610.0 0.00033588
10630.0 0.00033894
10650.0 0.00034198
10670.0 0.00034505
10690.0 0.00034806
10710.0 0.00035099
10730.0 0.00035392
10750.0 0.00035687
10770.0 0.00035967
10790.0 0.00036245
10810.0 0.00036523
10830.0 0.00036792
10850.0 0.00037047
10870.0 0.00037297
10890.0 0.00037522
10910.0 0.00037705
10930.0 0.00037831
10950.0 0.00037865
10970.0 0.00037779
10990.0 0.00037559
11010.0 0.000354
11030.0 0.00034848
11050.0 0.00034164
11070.0 0.0003334
11090.0 0.00032346
11110.0 0.00031316
11130.0 0.00030242
11150.0 0.00029088
11170.0 0.00027902
11190.0 0.00026754
11210.0 0.00025573
11230.0 0.00024366
11250.0 0.00023215
11270.0 0.00022113
11290.0 0.00021011
11310.0 0.00019969
11330.0 0.00019049
11350.0 0.00018181
11370.0 0.00017376
11390.0 0.00016676
11410.0 0.00016059
11430.0 0.00015483
11450.0 0.0001498
11470.0 0.00014541
11490.0 0.00014128
11510.0 0.00013728
11530.0 0.00013354
11550.0 0.00012982
11570.0 0.00012588
11590.0 0.00012183
11610.0 0.00011772
11630.0 0.00011329
11650.0 0.00010858
11670.0 0.00010396
11690.0 9.9292e-05
11710.0 9.4495e-05
11730.0 8.9852e-05
11750.0 8.5549e-05
11770.0 8.1328e-05
11790.0 7.7361e-05
11810.0 7.3848e-05
11830.0 7.0686e-05
11850.0 6.7753e-05
11870.0 6.5268e-05
11890.0 6.317e-05
11910.0 6.1302e-05
11930.0 5.9671e-05
11950.0 5.8286e-05
11970.0 5.7033e-05
11990.0 5.5843e-05
12010.0 5.4739e-05
12030.0 5.3676e-05
12050.0 5.259e-05
12070.0 5.1473e-05
12090.0 5.0398e-05
12110.0 4.9311e-05
12130.0 4.8223e-05
12150.0 4.7207e-05
12170.0 4.6299e-05
12190.0 4.5482e-05
12210.0 4.4853e-05
12230.0 4.445e-05
12250.0 4.4287e-05
12270.0 4.4417e-05
12290.0 4.4843e-05
12310.0 4.5542e-05
12330.0 4.6593e-05
12350.0 4.7952e-05
12370.0 4.9529e-05
12390.0 5.1374e-05
12410.0 5.3563e-05
12430.0 5.5794e-05
12450.0 5.8111e-05
12470.0 6.0583e-05
12490.0 6.3066e-05
12510.0 6.5388e-05
12530.0 6.7698e-05
12550.0 6.9922e-05
12570.0 7.1872e-05
12590.0 7.3571e-05
12610.0 7.5075e-05
12630.0 7.6254e-05
12650.0 7.7035e-05
12670.0 7.7516e-05
12690.0 7.7651e-05
12710.0 7.7426e-05
12730.0 7.6881e-05
12750.0 7.5987e-05
12770.0 7.4797e-05
12790.0 7.3374e-05
12810.0 7.1697e-05
12830.0 6.9776e-05
12850.0 6.7774e-05
12870.0 6.5668e-05
12890.0 6.3403e-05
12910.0 6.111e-05
12930.0 5.8855e-05
12950.0 5.6515e-05
12970.0 5.4142e-05
12990.0 5.1901e-05
13010.0 4.9693e-05
13030.0 4.7467e-05
13050.0 4.533e-05
13070.0 4.3329e-05
13090.0 4.1322e-05
13110.0 3.938e-05
13130.0 3.7585e-05
13150.0 3.5881e-05
13170.0 3.4208e-05
13190.0 3.2711e-05
13210.0 3.1384e-05
13230.0 3.016e-05
13250.0 2.9093e-05
13270.0 2.8233e-05
13290.0 2.7544e-05
13310.0 2.7038e-05
13330.0 2.676e-05
13350.0 2.6694e-05
13370.0 2.6851e-05
13390.0 2.7245e-05
13410.0 2.7816e-05
13430.0 2.8586e-05
13450.0 2.9562e-05
13470.0 3.0663e-05
13490.0 3.1843e-05
13510.0 3.3192e-05
13530.0 3.4572e-05
13550.0 3.5905e-05
13570.0 3.723e-05
13590.0 3.8534e-05
13610.0 3.9704e-05
13630.0 4.0735e-05
13650.0 4.1686e-05
13670.0 4.2485e-05
13690.0 4.3111e-05
13710.0 4.3605e-05
13730.0 4.3971e-05
13750.0 4.4167e-05
13770.0 4.4234e-05
13790.0 4.4179e-05
13810.0 4.4003e-05
13830.0 4.3727e-05
13850.0 4.3343e-05
13870.0 4.2853e-05
13890.0 4.2288e-05
13910.0 4.1649e-05
13930.0 4.0907e-05
13950.0 4.0097e-05
13970.0 3.9268e-05
13990.0 3.8366e-05
14010.0 3.7408e-05
14030.0 3.6453e-05
14050.0 3.5492e-05
14070.0 3.4478e-05
14090.0 3.3507e-05
14110.0 3.2594e-05
14130.0 3.1709e-05
14150.0 3.0874e-05
14170.0 3.016e-05
14190.0 2.9539e-05
14210.0 2.9009e-05
14230.0 2.8612e-05
14250.0 2.8349e-05
14270.0 2.8211e-05
14290.0 2.8219e-05
14310.0 2.836e-05
14330.0 2.8627e-05
14350.0 2.9029e-05
14370.0 2.9538e-05
14390.0 3.0121e-05
14410.0 3.0814e-05
14430.0 3.1581e-05
14450.0 3.237e-05
14470.0 3.3194e-05
14490.0 3.4077e-05
14510.0 3.4927e-05
14530.0 3.574e-05
14550.0 3.6557e-05
14570.0 3.7347e-05
14590.0 3.8069e-05
14610.0 3.8771e-05
14630.0 3.9466e-05
14650.0 4.0115e-05
14670.0 4.0741e-05
14690.0 4.1391e-05
14710.0 4.2073e-05
14730.0 4.2753e-05
14750.0 4.3505e-05
14770.0 4.4355e-05
14790.0 4.5277e-05
14810.0 4.6276e-05
14830.0 4.7458e-05
14850.0 4.8746e-05
14870.0 5.0092e-05
14890.0 5.1547e-05
14910.0 5.3094e-05
14930.0 5.4587e-05
14950.0 5.5987e-05
14970.0 5.7317e-05
14990.0 5.844e-05
15010.0 5.9308e-05
15030.0 5.9962e-05
15050.0 6.0407e-05
15070.0 6.0645e-05
15090.0 6.0753e-05
15110.0 6.0772e-05
15130.0 6.0733e-05
15150.0 6.0668e-05
15170.0 6.0585e-05
15190.0 6.0492e-05
15210.0 6.0402e-05
15230.0 6.0312e-05
15250.0 6.0218e-05
15270.0 6.0125e-05
15290.0 6.004e-05
15310.0 5.9952e-05
15330.0 5.9862e-05
15350.0 5.9778e-05
15370.0 5.9695e-05
15390.0 5.9605e-05
15410.0 5.952e-05
15430.0 5.9439e-05
15450.0 5.9356e-05
15470.0 5.927e-05
15490.0 5.9191e-05
15510.0 5.9112e-05
15530.0 5.9029e-05
15550.0 5.8949e-05
15570.0 5.8873e-05
15590.0 5.8791e-05
15610.0 5.8709e-05
15630.0 5.8633e-05
15650.0 5.8556e-05
15670.0 5.8476e-05
15690.0 5.8398e-05
15710.0 5.8325e-05
15730.0 5.8246e-05
15750.0 5.8167e-05
15770.0 5.8093e-05
15790.0 5.8018e-05
15810.0 5.7936e-05
15830.0 5.786e-05
15850.0 5.7787e-05
15870.0 5.7709e-05
15890.0 5.7631e-05
15910.0 5.7558e-05
15930.0 5.7482e-05
15950.0 5.7401e-05
15970.0 5.7325e-05
15990.0 5.7251e-05
16010.0 5.7171e-05
16030.0 5.709e-05
16050.0 5.7017e-05
16070.0 5.694e-05
16090.0 5.6859e-05
16110.0 5.6782e-05
16130.0 5.6707e-05
16150.0 5.6623e-05
16170.0 5.6541e-05
16190.0 5.6464e-05
16210.0 5.6384e-05
16230.0 5.63e-05
16250.0 5.622e-05
16270.0 5.6142e-05
16290.0 5.6057e-05
16310.0 5.5973e-05
16330.0 5.5892e-05
16350.0 5.5808e-05
16370.0 5.5717e-05
16390.0 5.5635e-05
16410.0 5.5551e-05
16430.0 5.5462e-05
16450.0 5.5374e-05
16470.0 5.5291e-05
16490.0 5.5201e-05
16510.0 5.5108e-05
16530.0 5.502e-05
16550.0 5.4931e-05
16570.0 5.4836e-05
16590.0 5.4742e-05
16610.0 5.4653e-05
16630.0 5.4559e-05
16650.0 5.4462e-05
16670.0 5.4369e-05
16690.0 5.4275e-05
16710.0 5.4173e-05
16730.0 5.4075e-05
16750.0 5.3979e-05
16770.0 5.3878e-05
16790.0 5.3774e-05
16810.0 5.3676e-05
16830.0 5.3575e-05
16850.0 5.3469e-05
16870.0 5.3365e-05
16890.0 5.3264e-05
16910.0 5.3155e-05
16930.0 5.3044e-05
16950.0 5.2939e-05
16970.0 5.2832e-05
16990.0 5.2719e-05
17010.0 5.2609e-05
17030.0 5.2502e-05
17050.0 5.2387e-05
17070.0 5.2272e-05
17090.0 5.216e-05
17110.0 5.2046e-05
17130.0 5.1924e-05
17150.0 5.1807e-05
17170.0 5.1693e-05
17190.0 5.1572e-05
17210.0 5.1451e-05
17230.0 5.1334e-05
17250.0 5.1212e-05
17270.0 5.1085e-05
17290.0 5.0962e-05
17310.0 5.084e-05
17330.0 5.0712e-05
17350.0 5.0582e-05
17370.0 5.0459e-05
17390.0 5.0332e-05
17410.0 5.02e-05
17430.0 5.0071e-05
17450.0 4.9944e-05
17470.0 4.9807e-05
17490.0 4.9672e-05
17510.0 4.9542e-05
17530.0 4.9407e-05
17550.0 4.9268e-05
17570.0 4.9134e-05
17590.0 4.9e-05
17610.0 4.8859e-05
17630.0 4.872e-05
17650.0 4.8584e-05
17670.0 4.8443e-05
17690.0 4.8295e-05
17710.0 4.8156e-05
17730.0 4.8016e-05
17750.0 4.787e-05
17770.0 4.7725e-05
17790.0 4.7585e-05
17810.0 4.7437e-05
17830.0 4.7287e-05
17850.0 4.7142e-05
17870.0 4.6996e-05
17890.0 4.6843e-05
17910.0 4.6692e-05
17930.0 4.6547e-05
17950.0 4.6395e-05
17970.0 4.6242e-05
17990.0 4.6093e-05
18010.0 4.5942e-05
18030.0 4.5783e-05
18050.0 4.5629e-05
18070.0 4.5478e-05
18090.0 4.5322e-05
18110.0 4.5163e-05
18130.0 4.501e-05
18150.0 4.4855e-05
18170.0 4.4695e-05
18190.0 4.4538e-05
18210.0 4.4383e-05
18230.0 4.4221e-05
18250.0 4.4058e-05
18270.0 4.3902e-05
18290.0 4.3742e-05
18310.0 4.3579e-05
18330.0 4.3419e-05
18350.0 4.3261e-05
18370.0 4.3097e-05
18390.0 4.2932e-05
18410.0 4.2772e-05
18430.0 4.261e-05
18450.0 4.2441e-05
18470.0 4.2278e-05
18490.0 4.2118e-05
18510.0 4.1952e-05
18530.0 4.1785e-05
18550.0 4.1625e-05
18570.0 4.1459e-05
18590.0 4.1289e-05
18610.0 4.1124e-05
18630.0 4.0961e-05
18650.0 4.0792e-05
18670.0 4.0622e-05
18690.0 4.046e-05
18710.0 4.0293e-05
18730.0 4.0123e-05
18750.0 3.9958e-05
18770.0 3.9794e-05
18790.0 3.962e-05
18810.0 3.9451e-05
18830.0 3.9286e-05
18850.0 3.9118e-05
18870.0 3.8946e-05
18890.0 3.8781e-05
18910.0 3.8615e-05
18930.0 3.8443e-05
18950.0 3.8274e-05
18970.0 3.8109e-05
18990.0 3.7939e-05
19010.0 3.7764e-05
19030.0 3.7599e-05
19050.0 3.7432e-05
19070.0 3.7261e-05
19090.0 3.7091e-05
19110.0 3.6928e-05
19130.0 3.6756e-05
19150.0 3.6584e-05
19170.0 3.6417e-05
19190.0 3.625e-05
19210.0 3.6077e-05
19230.0 3.5907e-05
19250.0 3.5743e-05
19270.0 3.5574e-05
19290.0 3.5403e-05
19310.0 3.5238e-05
19330.0 3.5071e-05
19350.0 3.4897e-05
19370.0 3.4729e-05
19390.0 3.4564e-05
19410.0 3.4394e-05
19430.0 3.4224e-05
19450.0 3.406e-05
19470.0 3.3894e-05
19490.0 3.3723e-05
19510.0 3.3556e-05
19530.0 3.3393e-05
19550.0 3.3222e-05
19570.0 3.3052e-05
19590.0 3.2889e-05
19610.0 3.2723e-05
19630.0 3.2554e-05
19650.0 3.2389e-05
19670.0 3.2227e-05
19690.0 3.2058e-05
19710.0 3.1891e-05
19730.0 3.1729e-05
19750.0 3.1564e-05
19770.0 3.1394e-05
19790.0 3.1231e-05
19810.0 3.1069e-05
19830.0 3.0902e-05
19850.0 3.0735e-05
19870.0 3.0571e-05
19890.0 3.0396e-05
19910.0 3.0207e-05
19930.0 3.0006e-05
19950.0 2.978e-05
19970.0 2.9507e-05
19990.0 2.9183e-05
20010.0 2.627e-05
20030.0 2.5873e-05
20050.0 2.5412e-05
20070.0 2.4916e-05
20090.0 2.4384e-05
20110.0 2.3787e-05
20130.0 2.3184e-05
20150.0 2.2588e-05
20170.0 2.1972e-05
20190.0 2.1349e-05
20210.0 2.0761e-05
20230.0 2.0189e-05
20250.0 1.9616e-05
20270.0 1.9084e-05
20290.0 1.8598e-05
20310.0 1.8136e-05
20330.0 1.7704e-05
20350.0 1.7343e-05
20370.0 1.7021e-05
20390.0 1.6737e-05
20410.0 1.6505e-05
20430.0 1.6324e-05
20450.0 1.6177e-05
20470.0 1.6075e-05
20490.0 1.6015e-05
20510.0 1.599e-05
20530.0 1.5999e-05
20550.0 1.6038e-05
20570.0 1.6101e-05
20590.0 1.619e-05
20610.0 1.6302e-05
20630.0 1.6426e-05
20650.0 1.6567e-05
20670.0 1.6729e-05
20690.0 1.6896e-05
20710.0 1.7069e-05
20730.0 1.7257e-05
20750.0 1.7453e-05
20770.0 1.7645e-05
20790.0 1.7847e-05
20810.0 1.806e-05
20830.0 1.8271e-05
20850.0 1.8482e-05
20870.0 1.8707e-05
20890.0 1.8936e-05
20910.0 1.9156e-05
20930.0 1.9383e-05
20950.0 1.9617e-05
20970.0 1.9845e-05
20990.0 2.0069e-05
21010.0 2.0304e-05
21030.0 2.0533e-05
21050.0 2.0751e-05
21070.0 2.0969e-05
21090.0 2.1186e-05
21110.0 2.1384e-05
21130.0 2.1569e-05
21150.0 2.1748e-05
21170.0 2.191e-05
21190.0 2.2048e-05
21210.0 2.2172e-05
21230.0 2.2275e-05
21250.0 2.2347e-05
21270.0 2.2391e-05
21290.0 2.2405e-05
21310.0 2.2384e-05
21330.0 2.2329e-05
21350.0 2.2234e-05
21370.0 2.2098e-05
21390.0 2.1925e-05
21410.0 2.1714e-05
21430.0 2.1448e-05
21450.0 2.1149e-05
21470.0 2.0823e-05
21490.0 2.0455e-05
21510.0 2.0052e-05
21530.0 1.9642e-05
21550.0 1.9212e-05
21570.0 1.8754e-05
21590.0 1.8303e-05
21610.0 1.7867e-05
21630.0 1.743e-05
21650.0 1.7003e-05
21670.0 1.6632e-05
21690.0 1.6289e-05
21710.0 1.598e-05
21730.0 1.5725e-05
21750.0 1.5526e-05
21770.0 1.5373e-05
21790.0 1.5281e-05
21810.0 1.525e-05
21830.0 1.5274e-05
21850.0 1.5358e-05
21870.0 1.5495e-05
21890.0 1.5673e-05
21910.0 1.5905e-05
21930.0 1.6178e-05
21950.0 1.6474e-05
21970.0 1.6804e-05
21990.0 1.7175e-05
22010.0 1.7547e-05
22030.0 1.7924e-05
22050.0 1.8322e-05
22070.0 1.8722e-05
22090.0 1.9102e-05
22110.0 1.9485e-05
22130.0 1.9868e-05
22150.0 2.0226e-05
22170.0 2.0564e-05
22190.0 2.0899e-05
22210.0 2.1211e-05
22230.0 2.1485e-05
22250.0 2.1743e-05
22270.0 2.1981e-05
22290.0 2.2184e-05
22310.0 2.2358e-05
22330.0 2.2511e-05
22350.0 2.2628e-05
22370.0 2.271e-05
22390.0 2.276e-05
22410.0 2.2774e-05
22430.0 2.2749e-05
22450.0 2.2688e-05
22470.0 2.2585e-05
22490.0 2.2442e-05
22510.0 2.2264e-05
22530.0 2.2037e-05
22550.0 2.1762e-05
22570.0 2.1457e-05
22590.0 2.1114e-05
22610.0 2.072e-05
22630.0 2.0293e-05
22650.0 1.9852e-05
