#lamb flux
1010.0 1.2046e-08
1030.0 1.3262e-08
1050.0 1.466e-08
1070.0 1.6234e-08
1090.0 1.8021e-08
1110.0 1.9855e-08
1130.0 2.17e-08
1150.0 2.3633e-08
1170.0 2.5627e-08
1190.0 2.7518e-08
1210.0 2.9434e-08
1230.0 3.1414e-08
1250.0 3.3354e-08
1270.0 3.5238e-08
1290.0 3.7229e-08
1310.0 3.9218e-08
1330.0 4.1125e-08
1350.0 4.3054e-08
1370.0 4.5046e-08
1390.0 4.6987e-08
1410.0 4.8871e-08
1430.0 5.084e-08
1450.0 5.2809e-08
1470.0 5.4711e-08
1490.0 5.6633e-08
1510.0 5.8664e-08
1530.0 6.0587e-08
1550.0 6.2484e-08
1570.0 6.4445e-08
1590.0 6.6408e-08
1610.0 6.8282e-08
1630.0 7.0213e-08
1650.0 7.2193e-08
1670.0 7.4107e-08
1690.0 7.5994e-08
1710.0 7.7953e-08
1730.0 7.9919e-08
1750.0 8.1764e-08
1770.0 8.3659e-08
1790.0 8.5589e-08
1810.0 8.7451e-08
1830.0 8.9274e-08
1850.0 9.1204e-08
1870.0 9.3074e-08
1890.0 9.487e-08
1910.0 9.6692e-08
1930.0 9.8548e-08
1950.0 1.003e-07
1970.0 1.0202e-07
1990.0 1.0378e-07
2010.0 1.055e-07
2030.0 1.0712e-07
2050.0 1.0878e-07
2070.0 1.1045e-07
2090.0 1.1199e-07
2110.0 1.1349e-07
2130.0 1.15e-07
2150.0 1.1644e-07
2170.0 1.1776e-07
2190.0 1.191e-07
2210.0 1.2041e-07
2230.0 1.2159e-07
2250.0 1.2271e-07
2270.0 1.2385e-07
2290.0 1.2487e-07
2310.0 1.2576e-07
2330.0 1.2665e-07
2350.0 1.2752e-07
2370.0 1.283e-07
2390.0 1.2913e-07
2410.0 1.302e-07
2430.0 1.3146e-07
2450.0 1.3306e-07
2470.0 1.3531e-07
2490.0 1.3833e-07
2510.0 1.4184e-07
2530.0 1.4631e-07
2550.0 1.5231e-07
2570.0 1.602e-07
2590.0 1.7092e-07
2610.0 1.8754e-07
2630.0 2.1127e-07
2650.0 2.4166e-07
2670.0 2.7997e-07
2690.0 3.2557e-07
2710.0 3.7222e-07
2730.0 4.1614e-07
2750.0 4.5731e-07
2770.0 4.9059e-07
2790.0 5.1435e-07
2810.0 5.3077e-07
2830.0 5.4123e-07
2850.0 5.4551e-07
2870.0 5.4635e-07
2890.0 5.4526e-07
2910.0 5.4281e-07
2930.0 5.3947e-07
2950.0 5.3602e-07
2970.0 5.3259e-07
2990.0 5.2907e-07
3010.0 1.6567e-05
3030.0 1.6468e-05
3050.0 1.637e-05
3070.0 1.6264e-05
3090.0 1.6151e-05
3110.0 1.6014e-05
3130.0 1.5833e-05
3150.0 1.5595e-05
3170.0 1.527e-05
3190.0 1.4865e-05
3210.0 1.4405e-05
3230.0 1.3909e-05
3250.0 1.3407e-05
3270.0 1.3032e-05
3290.0 1.2748e-05
3310.0 1.2681e-05
3330.0 1.2761e-05
3350.0 1.2982e-05
3370.0 1.3345e-05
3390.0 1.3831e-05
3410.0 1.4376e-05
3430.0 1.5001e-05
3450.0 1.573e-05
3470.0 1.6537e-05
3490.0 1.7406e-05
3510.0 1.8397e-05
3530.0 1.9481e-05
3550.0 2.0648e-05
3570.0 2.1941e-05
3590.0 2.3393e-05
3610.0 2.5019e-05
3630.0 2.6649e-05
3650.0 2.8381e-05
3670.0 2.9948e-05
3690.0 3.1118e-05
3710.0 3.1708e-05
3730.0 3.136e-05
3750.0 3.0079e-05
3770.0 3.056e-05
3790.0 2.957e-05
3810.0 2.2519e-05
3830.0 2.1167e-05
3850.0 3.0608e-05
3870.0 2.8302e-05
3890.0 2.1543e-05
3910.0 2.2508e-05
3930.0 2.9625e-05
3950.0 3.5108e-05
3970.0 4.0761e-05
3990.0 2.9606e-05
4010.0 4.979e-05
4030.0 4.6089e-05
4050.0 4.5897e-05
4070.0 5.3501e-05
4090.0 5.1149e-05
4110.0 4.745e-05
4130.0 5.9598e-05
4150.0 7.9082e-05
4170.0 6.2837e-05
4190.0 5.51e-05
4210.0 6.2065e-05
4230.0 7.7593e-05
4250.0 9.181e-05
4270.0 9.9852e-05
4290.0 8.9746e-05
4310.0 8.2668e-05
4330.0 8.2375e-05
4350.0 0.000106
4370.0 0.00012873
4390.0 0.00010246
4410.0 5.8314e-05
4430.0 4.1478e-05
4450.0 3.8179e-05
4470.0 2.5563e-05
4490.0 4.3477e-05
4510.0 8.8039e-05
4530.0 0.00010693
4550.0 0.00010273
4570.0 9.3227e-05
4590.0 0.00010094
4610.0 0.00019629
4630.0 0.00027329
4650.0 0.00025671
4670.0 0.00022623
4690.0 0.00023569
4710.0 0.00024763
4730.0 0.00019964
4750.0 0.00012749
4770.0 8.9116e-05
4790.0 9.9832e-05
4810.0 0.00010432
4830.0 0.00010338
4850.0 0.00011293
4870.0 0.00014956
4890.0 0.00017349
4910.0 0.00013371
4930.0 0.00012902
4950.0 0.00014883
4970.0 0.00020008
4990.0 0.00026935
5010.0 0.00030878
5030.0 0.00024416
5050.0 0.00014692
5070.0 0.00010496
5090.0 8.1197e-05
5110.0 7.626e-05
5130.0 9.0419e-05
5150.0 8.682e-05
5170.0 8.1734e-05
5190.0 7.3303e-05
5210.0 8.0243e-05
5230.0 0.00010003
5250.0 0.0001169
5270.0 0.00010853
5290.0 0.00011811
5310.0 0.00015823
5330.0 0.00016726
5350.0 0.00016473
5370.0 0.00018667
5390.0 0.00023216
5410.0 0.00019727
5430.0 0.00014902
5450.0 0.00015057
5470.0 0.00017725
5490.0 0.00022433
5510.0 0.00027511
5530.0 0.00031837
5550.0 0.00028647
5570.0 0.00025589
5590.0 0.00021014
5610.0 0.00021417
5630.0 0.00024081
5650.0 0.00022434
5670.0 0.00020721
5690.0 0.00016758
5710.0 0.00017199
5730.0 0.00016774
5750.0 8.9216e-05
5770.0 6.495e-05
5790.0 8.0969e-05
5810.0 8.7052e-05
5830.0 0.00013464
5850.0 0.00017451
5870.0 0.00018515
5890.0 0.00017466
5910.0 0.00016901
5930.0 0.00016416
5950.0 0.00017026
5970.0 0.00021089
5990.0 0.00017266
6010.0 0.00013213
6030.0 0.00010712
6050.0 9.546e-05
6070.0 0.00011492
6090.0 0.00013071
6110.0 0.00013286
6130.0 0.00012058
6150.0 9.511e-05
6170.0 7.7236e-05
6190.0 9.6502e-05
6210.0 0.00015105
6230.0 0.00021911
6250.0 0.00023286
6270.0 0.00017767
6290.0 0.0001517
6310.0 0.00011587
6330.0 8.4671e-05
6350.0 8.3326e-05
6370.0 8.7643e-05
6390.0 0.00010592
6410.0 0.00013587
6430.0 0.00016375
6450.0 0.0002022
6470.0 0.00021501
6490.0 0.00025918
6510.0 0.00029105
6530.0 0.0002937
6550.0 0.00027071
6570.0 0.00022237
6590.0 0.00021503
6610.0 0.00017848
6630.0 0.00018525
6650.0 0.00017849
6670.0 0.00015821
6690.0 0.00012547
6710.0 0.00012177
6730.0 5.8535e-05
6750.0 7.4297e-05
6770.0 0.00011254
6790.0 0.00014908
6810.0 0.00010851
6830.0 0.00011091
6850.0 9.38e-05
6870.0 8.8879e-05
6890.0 7.5898e-05
6910.0 8.9528e-05
6930.0 8.3986e-05
6950.0 0.00010042
6970.0 0.00010287
6990.0 0.00011391
7010.0 0.00011209
7030.0 0.00012507
7050.0 0.00010809
7070.0 9.1275e-05
7090.0 9.6196e-05
7110.0 9.979e-05
7130.0 0.0001138
7150.0 0.00012962
7170.0 0.00014454
7190.0 0.00015162
7210.0 0.0001339
7230.0 0.00013526
7250.0 0.00014681
7270.0 0.00016032
7290.0 0.00019454
7310.0 0.00020112
7330.0 0.00018426
7350.0 0.00016432
7370.0 0.00012179
7390.0 0.00012762
7410.0 0.00015808
7430.0 0.00017961
7450.0 0.00019313
7470.0 0.00017944
7490.0 0.00015156
7510.0 0.00024228
7530.0 0.00021696
7550.0 0.00020109
7570.0 0.00013532
7590.0 5.9563e-05
7610.0 4.2122e-05
7630.0 6.3578e-05
7650.0 8.5265e-05
7670.0 0.0001355
7690.0 0.0001523
7710.0 0.00013713
7730.0 0.00013453
7750.0 0.0001755
7770.0 0.00017954
7790.0 0.00016531
7810.0 0.00013529
7830.0 0.00014518
7850.0 0.00015801
7870.0 0.00015472
7890.0 0.00012171
7910.0 8.14e-05
7930.0 8.2988e-05
7950.0 7.4616e-05
7970.0 6.3075e-05
7990.0 5.6999e-05
8010.0 4.6818e-05
8030.0 4.4019e-05
8050.0 4.6855e-05
8070.0 5.0706e-05
8090.0 5.9157e-05
8110.0 5.537e-05
8130.0 3.6392e-05
8150.0 3.6309e-05
8170.0 2.3895e-05
8190.0 1.7805e-05
8210.0 3.2895e-05
8230.0 3.8442e-05
8250.0 2.0328e-05
8270.0 1.69e-05
8290.0 2.3701e-05
8310.0 1.9383e-05
8330.0 1.1961e-05
8350.0 9.4952e-06
8370.0 3.849e-06
8390.0 1.0406e-05
8410.0 1.2412e-05
8430.0 1.5453e-05
8450.0 1.732e-05
8470.0 2.6416e-05
8490.0 2.2214e-05
8510.0 1.8175e-05
8530.0 1.1391e-05
8550.0 2.9494e-05
8570.0 4.4336e-05
8590.0 3.4028e-05
8610.0 4.8661e-05
8630.0 5.343e-05
8650.0 3.4053e-05
8670.0 4.5076e-05
8690.0 6.3987e-05
8710.0 5.6041e-05
8730.0 5.9195e-05
8750.0 4.8018e-05
8770.0 4.345e-05
8790.0 4.7316e-05
8810.0 5.0054e-05
8830.0 3.0315e-05
8850.0 1.6257e-05
8870.0 1.2292e-05
8890.0 2.2905e-05
8910.0 3.3679e-05
8930.0 4.296e-05
8950.0 4.855e-05
8970.0 4.7246e-05
8990.0 3.741e-05
9010.0 2.7654e-05
9030.0 2.234e-05
9050.0 2.3193e-05
9070.0 2.402e-05
9090.0 2.4678e-05
9110.0 2.545e-05
9130.0 2.6012e-05
9150.0 2.642e-05
9170.0 2.6855e-05
9190.0 2.7321e-05
9210.0 2.7809e-05
9230.0 2.8325e-05
9250.0 2.885e-05
9270.0 2.9392e-05
9290.0 2.9949e-05
9310.0 3.0509e-05
9330.0 3.1077e-05
9350.0 3.1665e-05
9370.0 3.2257e-05
9390.0 3.2855e-05
9410.0 3.3467e-05
9430.0 3.4096e-05
9450.0 3.4723e-05
9470.0 3.5361e-05
9490.0 3.6016e-05
9510.0 3.6677e-05
9530.0 3.7342e-05
9550.0 3.8027e-05
9570.0 3.8723e-05
9590.0 3.9422e-05
9610.0 4.0131e-05
9630.0 4.0858e-05
9650.0 4.1591e-05
9670.0 4.2325e-05
9690.0 4.3078e-05
9710.0 4.3841e-05
9730.0 4.4607e-05
9750.0 4.5383e-05
9770.0 4.6181e-05
9790.0 4.6977e-05
9810.0 4.7778e-05
9830.0 4.8595e-05
9850.0 4.9421e-05
9870.0 5.0246e-05
9890.0 5.1082e-05
9910.0 5.1933e-05
9930.0 5.2785e-05
9950.0 5.3641e-05
9970.0 5.4511e-05
9990.0 5.539e-05
10010.0 5.0523e-05
10030.0 5.1305e-05
10050.0 5.2095e-05
10070.0 5.2875e-05
10090.0 5.3667e-05
10110.0 5.4473e-05
10130.0 5.5278e-05
10150.0 5.6078e-05
10170.0 5.6883e-05
10190.0 5.7696e-05
10210.0 5.8501e-05
10230.0 5.9303e-05
10250.0 6.0113e-05
10270.0 6.0921e-05
10290.0 6.1721e-05
10310.0 6.2526e-05
10330.0 6.3335e-05
10350.0 6.4132e-05
10370.0 6.4924e-05
10390.0 6.5721e-05
10410.0 6.6511e-05
10430.0 6.7288e-05
10450.0 6.8066e-05
10470.0 6.8842e-05
10490.0 6.9605e-05
10510.0 7.036e-05
10530.0 7.1119e-05
10550.0 7.1865e-05
10570.0 7.2594e-05
10590.0 7.3321e-05
10610.0 7.4041e-05
10630.0 7.4743e-05
10650.0 7.5435e-05
10670.0 7.6126e-05
10690.0 7.6801e-05
10710.0 7.7458e-05
10730.0 7.8109e-05
10750.0 7.8753e-05
10770.0 7.9371e-05
10790.0 7.9977e-05
10810.0 8.0575e-05
10830.0 8.1151e-05
10850.0 8.1697e-05
10870.0 8.2222e-05
10890.0 8.2691e-05
10910.0 8.307e-05
10930.0 8.3324e-05
10950.0 8.338e-05
10970.0 8.3181e-05
10990.0 8.27e-05
11010.0 8.4437e-05
11030.0 8.3168e-05
11050.0 8.1583e-05
11070.0 7.966e-05
11090.0 7.7327e-05
11110.0 7.4904e-05
11130.0 7.2371e-05
11150.0 6.9647e-05
11170.0 6.6847e-05
11190.0 6.4144e-05
11210.0 6.1369e-05
11230.0 5.8546e-05
11250.0 5.5868e-05
11270.0 5.3315e-05
11290.0 5.0777e-05
11310.0 4.8387e-05
11330.0 4.6287e-05
11350.0 4.4307e-05
11370.0 4.2475e-05
11390.0 4.0878e-05
11410.0 3.9465e-05
11430.0 3.8134e-05
11450.0 3.6959e-05
11470.0 3.5913e-05
11490.0 3.4914e-05
11510.0 3.3929e-05
11530.0 3.2994e-05
11550.0 3.2055e-05
11570.0 3.1054e-05
11590.0 3.0022e-05
11610.0 2.8979e-05
11630.0 2.7859e-05
11650.0 2.6677e-05
11670.0 2.5522e-05
11690.0 2.4362e-05
11710.0 2.3176e-05
11730.0 2.2033e-05
11750.0 2.0974e-05
11770.0 1.9939e-05
11790.0 1.8967e-05
11810.0 1.8104e-05
11830.0 1.7323e-05
11850.0 1.6596e-05
11870.0 1.5973e-05
11890.0 1.544e-05
11910.0 1.4958e-05
11930.0 1.4528e-05
11950.0 1.4153e-05
11970.0 1.3806e-05
11990.0 1.347e-05
12010.0 1.3151e-05
12030.0 1.284e-05
12050.0 1.2519e-05
12070.0 1.2188e-05
12090.0 1.1867e-05
12110.0 1.154e-05
12130.0 1.121e-05
12150.0 1.0896e-05
12170.0 1.0606e-05
12190.0 1.0332e-05
12210.0 1.0099e-05
12230.0 9.9163e-06
12250.0 9.7848e-06
12270.0 9.7139e-06
12290.0 9.7079e-06
12310.0 9.7619e-06
12330.0 9.8869e-06
12350.0 1.0077e-05
12370.0 1.0313e-05
12390.0 1.0604e-05
12410.0 1.0963e-05
12430.0 1.1331e-05
12450.0 1.1717e-05
12470.0 1.2131e-05
12490.0 1.2547e-05
12510.0 1.2931e-05
12530.0 1.3312e-05
12550.0 1.3674e-05
12570.0 1.3984e-05
12590.0 1.4246e-05
12610.0 1.4471e-05
12630.0 1.4637e-05
12650.0 1.4731e-05
12670.0 1.4772e-05
12690.0 1.4752e-05
12710.0 1.4671e-05
12730.0 1.4534e-05
12750.0 1.4339e-05
12770.0 1.4095e-05
12790.0 1.3813e-05
12810.0 1.3489e-05
12830.0 1.3127e-05
12850.0 1.2751e-05
12870.0 1.236e-05
12890.0 1.1943e-05
12910.0 1.1522e-05
12930.0 1.1108e-05
12950.0 1.0679e-05
12970.0 1.0245e-05
12990.0 9.8318e-06
13010.0 9.4233e-06
13030.0 9.0103e-06
13050.0 8.611e-06
13070.0 8.2334e-06
13090.0 7.8532e-06
13110.0 7.4824e-06
13130.0 7.1364e-06
13150.0 6.8053e-06
13170.0 6.4786e-06
13190.0 6.1829e-06
13210.0 5.9176e-06
13230.0 5.6707e-06
13250.0 5.4517e-06
13270.0 5.2707e-06
13290.0 5.1201e-06
13310.0 5.0019e-06
13330.0 4.9244e-06
13350.0 4.8845e-06
13370.0 4.8829e-06
13390.0 4.9221e-06
13410.0 4.9926e-06
13430.0 5.0972e-06
13450.0 5.2366e-06
13470.0 5.3983e-06
13490.0 5.5746e-06
13510.0 5.78e-06
13530.0 5.9927e-06
13550.0 6.1996e-06
13570.0 6.4076e-06
13590.0 6.6144e-06
13610.0 6.8011e-06
13630.0 6.9663e-06
13650.0 7.1203e-06
13670.0 7.2502e-06
13690.0 7.3518e-06
13710.0 7.4318e-06
13730.0 7.4909e-06
13750.0 7.5209e-06
13770.0 7.5289e-06
13790.0 7.5164e-06
13810.0 7.4832e-06
13830.0 7.433e-06
13850.0 7.3653e-06
13870.0 7.2805e-06
13890.0 7.1837e-06
13910.0 7.0756e-06
13930.0 6.9523e-06
13950.0 6.8193e-06
13970.0 6.6845e-06
13990.0 6.5397e-06
14010.0 6.3877e-06
14030.0 6.2375e-06
14050.0 6.0877e-06
14070.0 5.9313e-06
14090.0 5.7823e-06
14110.0 5.643e-06
14130.0 5.5086e-06
14150.0 5.3823e-06
14170.0 5.2742e-06
14190.0 5.1801e-06
14210.0 5.0995e-06
14230.0 5.0384e-06
14250.0 4.9971e-06
14270.0 4.9742e-06
14290.0 4.9726e-06
14310.0 4.9908e-06
14330.0 5.028e-06
14350.0 5.0857e-06
14370.0 5.1599e-06
14390.0 5.2463e-06
14410.0 5.3504e-06
14430.0 5.4673e-06
14450.0 5.5896e-06
14470.0 5.7197e-06
14490.0 5.8617e-06
14510.0 6.0018e-06
14530.0 6.1393e-06
14550.0 6.2815e-06
14570.0 6.4236e-06
14590.0 6.5585e-06
14610.0 6.6946e-06
14630.0 6.835e-06
14650.0 6.9716e-06
14670.0 7.1079e-06
14690.0 7.2531e-06
14710.0 7.4074e-06
14730.0 7.562e-06
14750.0 7.7311e-06
14770.0 7.9188e-06
14790.0 8.1175e-06
14810.0 8.3275e-06
14830.0 8.5688e-06
14850.0 8.8241e-06
14870.0 9.0846e-06
14890.0 9.3597e-06
14910.0 9.6463e-06
14930.0 9.9186e-06
14950.0 1.0171e-05
14970.0 1.0409e-05
14990.0 1.0609e-05
15010.0 1.0764e-05
15030.0 1.0882e-05
15050.0 1.0965e-05
15070.0 1.1013e-05
15090.0 1.1039e-05
15110.0 1.105e-05
15130.0 1.1052e-05
15150.0 1.105e-05
15170.0 1.1045e-05
15190.0 1.1038e-05
15210.0 1.1032e-05
15230.0 1.1026e-05
15250.0 1.102e-05
15270.0 1.1013e-05
15290.0 1.1009e-05
15310.0 1.1003e-05
15330.0 1.0998e-05
15350.0 1.0993e-05
15370.0 1.0989e-05
15390.0 1.0984e-05
15410.0 1.0979e-05
15430.0 1.0975e-05
15450.0 1.0971e-05
15470.0 1.0966e-05
15490.0 1.0963e-05
15510.0 1.096e-05
15530.0 1.0955e-05
15550.0 1.0952e-05
15570.0 1.0949e-05
15590.0 1.0945e-05
15610.0 1.094e-05
15630.0 1.0937e-05
15650.0 1.0934e-05
15670.0 1.093e-05
15690.0 1.0927e-05
15710.0 1.0924e-05
15730.0 1.092e-05
15750.0 1.0916e-05
15770.0 1.0913e-05
15790.0 1.0909e-05
15810.0 1.0904e-05
15830.0 1.09e-05
15850.0 1.0897e-05
15870.0 1.0893e-05
15890.0 1.0888e-05
15910.0 1.0884e-05
15930.0 1.088e-05
15950.0 1.0874e-05
15970.0 1.0869e-05
15990.0 1.0865e-05
16010.0 1.0859e-05
16030.0 1.0853e-05
16050.0 1.0848e-05
16070.0 1.0843e-05
16090.0 1.0836e-05
16110.0 1.083e-05
16130.0 1.0824e-05
16150.0 1.0817e-05
16170.0 1.0809e-05
16190.0 1.0803e-05
16210.0 1.0795e-05
16230.0 1.0787e-05
16250.0 1.0779e-05
16270.0 1.0771e-05
16290.0 1.0762e-05
16310.0 1.0753e-05
16330.0 1.0745e-05
16350.0 1.0735e-05
16370.0 1.0724e-05
16390.0 1.0714e-05
16410.0 1.0704e-05
16430.0 1.0693e-05
16450.0 1.0682e-05
16470.0 1.0671e-05
16490.0 1.0659e-05
16510.0 1.0646e-05
16530.0 1.0634e-05
16550.0 1.0622e-05
16570.0 1.0608e-05
16590.0 1.0594e-05
16610.0 1.0581e-05
16630.0 1.0566e-05
16650.0 1.0551e-05
16670.0 1.0536e-05
16690.0 1.0522e-05
16710.0 1.0505e-05
16730.0 1.0488e-05
16750.0 1.0472e-05
16770.0 1.0455e-05
16790.0 1.0437e-05
16810.0 1.042e-05
16830.0 1.0402e-05
16850.0 1.0383e-05
16870.0 1.0364e-05
16890.0 1.0345e-05
16910.0 1.0325e-05
16930.0 1.0304e-05
16950.0 1.0284e-05
16970.0 1.0264e-05
16990.0 1.0242e-05
17010.0 1.022e-05
17030.0 1.0199e-05
17050.0 1.0176e-05
17070.0 1.0152e-05
17090.0 1.013e-05
17110.0 1.0106e-05
17130.0 1.0081e-05
17150.0 1.0057e-05
17170.0 1.0033e-05
17190.0 1.0007e-05
17210.0 9.9812e-06
17230.0 9.9562e-06
17250.0 9.9299e-06
17270.0 9.9022e-06
17290.0 9.8753e-06
17310.0 9.8485e-06
17330.0 9.8201e-06
17350.0 9.7912e-06
17370.0 9.7637e-06
17390.0 9.7349e-06
17410.0 9.7051e-06
17430.0 9.6758e-06
17450.0 9.6468e-06
17470.0 9.6153e-06
17490.0 9.5843e-06
17510.0 9.5541e-06
17530.0 9.5228e-06
17550.0 9.4905e-06
17570.0 9.459e-06
17590.0 9.4275e-06
17610.0 9.3943e-06
17630.0 9.3613e-06
17650.0 9.3289e-06
17670.0 9.2953e-06
17690.0 9.2601e-06
17710.0 9.2268e-06
17730.0 9.193e-06
17750.0 9.1579e-06
17770.0 9.1229e-06
17790.0 9.0888e-06
17810.0 9.053e-06
17830.0 9.0166e-06
17850.0 8.9811e-06
17870.0 8.9453e-06
17890.0 8.908e-06
17910.0 8.871e-06
17930.0 8.8352e-06
17950.0 8.7979e-06
17970.0 8.7601e-06
17990.0 8.7232e-06
18010.0 8.6859e-06
18030.0 8.6467e-06
18050.0 8.6085e-06
18070.0 8.5708e-06
18090.0 8.532e-06
18110.0 8.4925e-06
18130.0 8.4544e-06
18150.0 8.4157e-06
18170.0 8.3758e-06
18190.0 8.3364e-06
18210.0 8.2977e-06
18230.0 8.2573e-06
18250.0 8.2165e-06
18270.0 8.1772e-06
18290.0 8.1373e-06
18310.0 8.0964e-06
18330.0 8.0562e-06
18350.0 8.0166e-06
18370.0 7.9753e-06
18390.0 7.9341e-06
18410.0 7.8939e-06
18430.0 7.8531e-06
18450.0 7.8108e-06
18470.0 7.7699e-06
18490.0 7.7295e-06
18510.0 7.6878e-06
18530.0 7.6461e-06
18550.0 7.6056e-06
18570.0 7.5641e-06
18590.0 7.5215e-06
18610.0 7.4802e-06
18630.0 7.439e-06
18650.0 7.3968e-06
18670.0 7.3544e-06
18690.0 7.3137e-06
18710.0 7.2719e-06
18730.0 7.2295e-06
18750.0 7.188e-06
18770.0 7.1469e-06
18790.0 7.1038e-06
18810.0 7.0616e-06
18830.0 7.0205e-06
18850.0 6.9785e-06
18870.0 6.9359e-06
18890.0 6.8946e-06
18910.0 6.8534e-06
18930.0 6.8108e-06
18950.0 6.7688e-06
18970.0 6.7277e-06
18990.0 6.6858e-06
19010.0 6.6427e-06
19030.0 6.6018e-06
19050.0 6.5605e-06
19070.0 6.5184e-06
19090.0 6.4767e-06
19110.0 6.4363e-06
19130.0 6.3942e-06
19150.0 6.3522e-06
19170.0 6.3113e-06
19190.0 6.2703e-06
19210.0 6.2282e-06
19230.0 6.1868e-06
19250.0 6.1467e-06
19270.0 6.1054e-06
19290.0 6.064e-06
19310.0 6.0238e-06
19330.0 5.9834e-06
19350.0 5.9415e-06
19370.0 5.901e-06
19390.0 5.8611e-06
19410.0 5.8203e-06
19430.0 5.7794e-06
19450.0 5.7399e-06
19470.0 5.7001e-06
19490.0 5.6594e-06
19510.0 5.6196e-06
19530.0 5.5805e-06
19550.0 5.5401e-06
19570.0 5.4997e-06
19590.0 5.4609e-06
19610.0 5.4217e-06
19630.0 5.3819e-06
19650.0 5.343e-06
19670.0 5.3047e-06
19690.0 5.2652e-06
19710.0 5.226e-06
19730.0 5.1879e-06
19750.0 5.1494e-06
19770.0 5.11e-06
19790.0 5.0719e-06
19810.0 5.0344e-06
19830.0 4.9958e-06
19850.0 4.9574e-06
19870.0 4.9197e-06
19890.0 4.8803e-06
19910.0 4.8384e-06
19930.0 4.7952e-06
19950.0 4.7482e-06
19970.0 4.6938e-06
19990.0 4.6318e-06
20010.0 4.4195e-06
20030.0 4.3433e-06
20050.0 4.2572e-06
20070.0 4.1661e-06
20090.0 4.0702e-06
20110.0 3.9642e-06
20130.0 3.8585e-06
20150.0 3.755e-06
20170.0 3.6491e-06
20190.0 3.5429e-06
20210.0 3.4431e-06
20230.0 3.3464e-06
20250.0 3.2501e-06
20270.0 3.1607e-06
20290.0 3.0789e-06
20310.0 3.001e-06
20330.0 2.9277e-06
20350.0 2.8659e-06
20370.0 2.8102e-06
20390.0 2.7604e-06
20410.0 2.7189e-06
20430.0 2.6854e-06
20450.0 2.6575e-06
20470.0 2.6368e-06
20490.0 2.623e-06
20510.0 2.6151e-06
20530.0 2.6131e-06
20550.0 2.6164e-06
20570.0 2.6239e-06
20590.0 2.6362e-06
20610.0 2.6525e-06
20630.0 2.6714e-06
20650.0 2.6935e-06
20670.0 2.7196e-06
20690.0 2.7466e-06
20710.0 2.7747e-06
20730.0 2.8054e-06
20750.0 2.8375e-06
20770.0 2.8687e-06
20790.0 2.9013e-06
20810.0 2.9355e-06
20830.0 2.969e-06
20850.0 3.0021e-06
20870.0 3.0372e-06
20890.0 3.0724e-06
20910.0 3.1057e-06
20930.0 3.1398e-06
20950.0 3.1749e-06
20970.0 3.2086e-06
20990.0 3.2415e-06
21010.0 3.2761e-06
21030.0 3.3096e-06
21050.0 3.3413e-06
21070.0 3.3729e-06
21090.0 3.4048e-06
21110.0 3.4336e-06
21130.0 3.4607e-06
21150.0 3.4874e-06
21170.0 3.5117e-06
21190.0 3.5328e-06
21210.0 3.5523e-06
21230.0 3.5693e-06
21250.0 3.5821e-06
21270.0 3.5912e-06
21290.0 3.5967e-06
21310.0 3.5974e-06
21330.0 3.5931e-06
21350.0 3.5837e-06
21370.0 3.5685e-06
21390.0 3.5477e-06
21410.0 3.5213e-06
21430.0 3.487e-06
21450.0 3.4473e-06
21470.0 3.4029e-06
21490.0 3.3518e-06
21510.0 3.2947e-06
21530.0 3.2354e-06
21550.0 3.1722e-06
21570.0 3.1039e-06
21590.0 3.0353e-06
21610.0 2.9676e-06
21630.0 2.8987e-06
21650.0 2.8298e-06
21670.0 2.7681e-06
21690.0 2.7095e-06
21710.0 2.6546e-06
21730.0 2.607e-06
21750.0 2.5671e-06
21770.0 2.5327e-06
21790.0 2.5068e-06
21810.0 2.4897e-06
21830.0 2.4805e-06
21850.0 2.4797e-06
21870.0 2.4868e-06
21890.0 2.5006e-06
21910.0 2.5222e-06
21930.0 2.5504e-06
21950.0 2.5831e-06
21970.0 2.6214e-06
21990.0 2.6664e-06
22010.0 2.7129e-06
22030.0 2.7615e-06
22050.0 2.8142e-06
22070.0 2.8685e-06
22090.0 2.9211e-06
22110.0 2.9754e-06
22130.0 3.031e-06
22150.0 3.0839e-06
22170.0 3.1348e-06
22190.0 3.1863e-06
22210.0 3.2351e-06
22230.0 3.2786e-06
22250.0 3.3202e-06
22270.0 3.3592e-06
22290.0 3.3928e-06
22310.0 3.4219e-06
22330.0 3.4481e-06
22350.0 3.4686e-06
22370.0 3.4833e-06
22390.0 3.4931e-06
22410.0 3.4972e-06
22430.0 3.495e-06
22450.0 3.487e-06
22470.0 3.4725e-06
22490.0 3.4517e-06
22510.0 3.4254e-06
22530.0 3.3917e-06
22550.0 3.3507e-06
22570.0 3.3049e-06
22590.0 3.2533e-06
22610.0 3.194e-06
22630.0 3.1296e-06
