#lamb flux
1010.0 1.5949e-06
1030.0 1.7529e-06
1050.0 1.9347e-06
1070.0 2.1394e-06
1090.0 2.3719e-06
1110.0 2.6105e-06
1130.0 2.8506e-06
1150.0 3.1023e-06
1170.0 3.362e-06
1190.0 3.6083e-06
1210.0 3.8581e-06
1230.0 4.1163e-06
1250.0 4.3695e-06
1270.0 4.6155e-06
1290.0 4.8755e-06
1310.0 5.1354e-06
1330.0 5.385e-06
1350.0 5.6374e-06
1370.0 5.8982e-06
1390.0 6.1527e-06
1410.0 6.3998e-06
1430.0 6.6583e-06
1450.0 6.9169e-06
1470.0 7.1671e-06
1490.0 7.4201e-06
1510.0 7.6874e-06
1530.0 7.9408e-06
1550.0 8.191e-06
1570.0 8.4498e-06
1590.0 8.7089e-06
1610.0 8.9565e-06
1630.0 9.2117e-06
1650.0 9.4733e-06
1670.0 9.7263e-06
1690.0 9.9758e-06
1710.0 1.0235e-05
1730.0 1.0494e-05
1750.0 1.0738e-05
1770.0 1.0988e-05
1790.0 1.1243e-05
1810.0 1.1488e-05
1830.0 1.1728e-05
1850.0 1.1982e-05
1870.0 1.2227e-05
1890.0 1.2463e-05
1910.0 1.2702e-05
1930.0 1.2945e-05
1950.0 1.3174e-05
1970.0 1.3398e-05
1990.0 1.3628e-05
2010.0 1.3852e-05
2030.0 1.4063e-05
2050.0 1.4279e-05
2070.0 1.4497e-05
2090.0 1.4697e-05
2110.0 1.4892e-05
2130.0 1.509e-05
2150.0 1.5278e-05
2170.0 1.5451e-05
2190.0 1.5628e-05
2210.0 1.5801e-05
2230.0 1.5958e-05
2250.0 1.6108e-05
2270.0 1.6262e-05
2290.0 1.6402e-05
2310.0 1.6526e-05
2330.0 1.665e-05
2350.0 1.6769e-05
2370.0 1.6873e-05
2390.0 1.6973e-05
2410.0 1.708e-05
2430.0 1.7181e-05
2450.0 1.7283e-05
2470.0 1.7406e-05
2490.0 1.7567e-05
2510.0 1.7766e-05
2530.0 1.8079e-05
2550.0 1.8619e-05
2570.0 1.9491e-05
2590.0 2.0816e-05
2610.0 2.2937e-05
2630.0 2.5897e-05
2650.0 2.9495e-05
2670.0 3.3737e-05
2690.0 3.8422e-05
2710.0 4.2862e-05
2730.0 4.675e-05
2750.0 5.016e-05
2770.0 5.2768e-05
2790.0 5.4584e-05
2810.0 5.5897e-05
2830.0 5.6914e-05
2850.0 5.7613e-05
2870.0 5.8198e-05
2890.0 5.8789e-05
2910.0 5.9368e-05
2930.0 5.9896e-05
2950.0 6.0478e-05
2970.0 6.1099e-05
2990.0 6.1684e-05
3010.0 0.00066646
3030.0 0.00067006
3050.0 0.00067347
3070.0 0.00067575
3090.0 0.00067734
3110.0 0.00067705
3130.0 0.00067341
3150.0 0.00066557
3170.0 0.00065191
3190.0 0.00063256
3210.0 0.00060905
3230.0 0.00058419
3250.0 0.00058511
3270.0 0.00056613
3290.0 0.00059395
3310.0 0.0005709
3330.0 0.00058448
3350.0 0.00060748
3370.0 0.00063709
3390.0 0.00067212
3410.0 0.00070871
3430.0 0.00074849
3450.0 0.00079219
3470.0 0.00083743
3490.0 0.00088207
3510.0 0.0009383
3530.0 0.0010049
3550.0 0.0010486
3570.0 0.0010809
3590.0 0.0011574
3610.0 0.0011761
3630.0 0.0012678
3650.0 0.0013374
3670.0 0.0014163
3690.0 0.0014408
3710.0 0.001417
3730.0 0.0014517
3750.0 0.0014551
3770.0 0.0013831
3790.0 0.001304
3810.0 0.0012469
3830.0 0.0012326
3850.0 0.001218
3870.0 0.001316
3890.0 0.0015283
3910.0 0.0018285
3930.0 0.002114
3950.0 0.0022673
3970.0 0.0022051
3990.0 0.0020053
4010.0 0.0020964
4030.0 0.0023564
4050.0 0.0024334
4070.0 0.0022019
4090.0 0.0018215
4110.0 0.0019245
4130.0 0.0022061
4150.0 0.002239
4170.0 0.0021625
4190.0 0.0020882
4210.0 0.0022888
4230.0 0.0023869
4250.0 0.0025383
4270.0 0.0025919
4290.0 0.0025222
4310.0 0.0026922
4330.0 0.0029608
4350.0 0.0033312
4370.0 0.0036346
4390.0 0.0035146
4410.0 0.0029909
4430.0 0.0024564
4450.0 0.0020383
4470.0 0.0020281
4490.0 0.0022007
4510.0 0.0026672
4530.0 0.002887
4550.0 0.0031648
4570.0 0.0037658
4590.0 0.0046021
4610.0 0.0059201
4630.0 0.007225
4650.0 0.0074526
4670.0 0.0074581
4690.0 0.0077959
4710.0 0.0078669
4730.0 0.006633
4750.0 0.0049198
4770.0 0.0040113
4790.0 0.0037114
4810.0 0.0035859
4830.0 0.0036244
4850.0 0.0041154
4870.0 0.0048969
4890.0 0.0055009
4910.0 0.0049094
4930.0 0.0047321
4950.0 0.0054926
4970.0 0.0069156
4990.0 0.0084267
5010.0 0.0086372
5030.0 0.0071739
5050.0 0.0050304
5070.0 0.0036219
5090.0 0.0031285
5110.0 0.0031712
5130.0 0.0034097
5150.0 0.0034637
5170.0 0.0034169
5190.0 0.003402
5210.0 0.003375
5230.0 0.0035544
5250.0 0.0038299
5270.0 0.0042707
5290.0 0.0049282
5310.0 0.005511
5330.0 0.0057485
5350.0 0.0058656
5370.0 0.0063299
5390.0 0.006669
5410.0 0.0062904
5430.0 0.0056368
5450.0 0.005557
5470.0 0.0064363
5490.0 0.0080881
5510.0 0.0098763
5530.0 0.010631
5550.0 0.010395
5570.0 0.0097291
5590.0 0.0089215
5610.0 0.0084311
5630.0 0.0083706
5650.0 0.008531
5670.0 0.0083172
5690.0 0.0077715
5710.0 0.0074392
5730.0 0.0066553
5750.0 0.005288
5770.0 0.0046735
5790.0 0.005113
5810.0 0.0058741
5830.0 0.0065908
5850.0 0.0069081
5870.0 0.0069084
5890.0 0.0066349
5910.0 0.0063187
5930.0 0.0062719
5950.0 0.0065425
5970.0 0.0067752
5990.0 0.0061746
6010.0 0.0051661
6030.0 0.0043102
6050.0 0.003873
6070.0 0.0039328
6090.0 0.0043427
6110.0 0.0045677
6130.0 0.0043531
6150.0 0.0042327
6170.0 0.0046465
6190.0 0.0054663
6210.0 0.0064974
6230.0 0.0072988
6250.0 0.007135
6270.0 0.0063061
6290.0 0.0052673
6310.0 0.0042394
6330.0 0.003511
6350.0 0.0033287
6370.0 0.0036485
6390.0 0.0041803
6410.0 0.0048527
6430.0 0.0057067
6450.0 0.0067126
6470.0 0.0080842
6490.0 0.0096558
6510.0 0.01039
6530.0 0.0098572
6550.0 0.0093176
6570.0 0.0092292
6590.0 0.0089601
6610.0 0.0083726
6630.0 0.0077499
6650.0 0.0072646
6670.0 0.0072656
6690.0 0.0070968
6710.0 0.006517
6730.0 0.005796
6750.0 0.0051962
6770.0 0.0052613
6790.0 0.0056219
6810.0 0.0059464
6830.0 0.0060437
6850.0 0.0057886
6870.0 0.0055972
6890.0 0.0054555
6910.0 0.0051659
6930.0 0.005013
6950.0 0.0050179
6970.0 0.0051433
6990.0 0.0055832
7010.0 0.0058719
7030.0 0.0055592
7050.0 0.0051043
7070.0 0.0046707
7090.0 0.0040789
7110.0 0.0037471
7130.0 0.0038466
7150.0 0.0040119
7170.0 0.0042064
7190.0 0.0041776
7210.0 0.0041614
7230.0 0.0045431
7250.0 0.0051804
7270.0 0.0057957
7290.0 0.0060964
7310.0 0.005848
7330.0 0.0052749
7350.0 0.0048082
7370.0 0.0046494
7390.0 0.0047317
7410.0 0.0050492
7430.0 0.0056433
7450.0 0.0061726
7470.0 0.0067529
7490.0 0.0072184
7510.0 0.0065326
7530.0 0.0061165
7550.0 0.0053707
7570.0 0.004568
7590.0 0.0037818
7610.0 0.0035416
7630.0 0.0037444
7650.0 0.0042943
7670.0 0.0048458
7690.0 0.0053801
7710.0 0.0059793
7730.0 0.0063122
7750.0 0.0065262
7770.0 0.0066245
7790.0 0.0066622
7810.0 0.0067526
7830.0 0.0065236
7850.0 0.006178
7870.0 0.0058051
7890.0 0.0053981
7910.0 0.0048516
7930.0 0.0043322
7950.0 0.0038964
7970.0 0.0037992
7990.0 0.0039141
8010.0 0.0042154
8030.0 0.0042669
8050.0 0.0043254
8070.0 0.0042328
8090.0 0.0042115
8110.0 0.0040631
8130.0 0.0038467
8150.0 0.0036198
8170.0 0.0035822
8190.0 0.0036483
8210.0 0.003656
8230.0 0.003591
8250.0 0.0034914
8270.0 0.0030937
8290.0 0.0024366
8310.0 0.001795
8330.0 0.0012398
8350.0 0.00090424
8370.0 0.00095254
8390.0 0.001071
8410.0 0.0013198
8430.0 0.00162
8450.0 0.0017755
8470.0 0.0018553
8490.0 0.00198
8510.0 0.0021007
8530.0 0.0023573
8550.0 0.0026955
8570.0 0.0031154
8590.0 0.0036177
8610.0 0.0041855
8630.0 0.0048624
8650.0 0.0053173
8670.0 0.0052985
8690.0 0.005099
8710.0 0.0048649
8730.0 0.0046418
8750.0 0.0044276
8770.0 0.0043271
8790.0 0.0041737
8810.0 0.003866
8830.0 0.0035955
8850.0 0.0031355
8870.0 0.0027928
8890.0 0.0025406
8910.0 0.0026654
8930.0 0.002571
8950.0 0.0026601
8970.0 0.0027078
8990.0 0.0027553
9010.0 0.0028387
9030.0 0.0028001
9050.0 0.0027979
9070.0 0.0028003
9090.0 0.0028026
9110.0 0.0028039
9130.0 0.0028062
9150.0 0.0028096
9170.0 0.0028108
9190.0 0.0028091
9210.0 0.0028277
9230.0 0.0028284
9250.0 0.0028315
9270.0 0.0028352
9290.0 0.0028394
9310.0 0.0028444
9330.0 0.0028497
9350.0 0.0028554
9370.0 0.0028614
9390.0 0.0028678
9410.0 0.0028744
9430.0 0.0028813
9450.0 0.0028885
9470.0 0.002896
9490.0 0.0029037
9510.0 0.0029118
9530.0 0.0029201
9550.0 0.0029286
9570.0 0.0029374
9590.0 0.0029464
9610.0 0.0029558
9630.0 0.0029652
9650.0 0.002975
9670.0 0.0029851
9690.0 0.0029953
9710.0 0.0030057
9730.0 0.0030164
9750.0 0.0030273
9770.0 0.0030382
9790.0 0.0030494
9810.0 0.0030609
9830.0 0.0030724
9850.0 0.0030841
9870.0 0.003096
9890.0 0.003108
9910.0 0.00312
9930.0 0.0031323
9950.0 0.0031435
9970.0 0.0031562
9990.0 0.0031689
10010.0 0.003167
10030.0 0.0031796
10050.0 0.0031915
10070.0 0.0032002
10090.0 0.0032142
10110.0 0.0032279
10130.0 0.0032412
10150.0 0.0032544
10170.0 0.0032672
10190.0 0.0032794
10210.0 0.0032919
10230.0 0.0033044
10250.0 0.0033164
10270.0 0.0033284
10290.0 0.0033405
10310.0 0.0033522
10330.0 0.0033634
10350.0 0.0033749
10370.0 0.0033862
10390.0 0.003397
10410.0 0.0034076
10430.0 0.0034185
10450.0 0.0034287
10470.0 0.0034385
10490.0 0.0034484
10510.0 0.003458
10530.0 0.0034668
10550.0 0.0034755
10570.0 0.0034843
10590.0 0.0034924
10610.0 0.0035
10630.0 0.0035076
10650.0 0.0035149
10670.0 0.0035213
10690.0 0.0035276
10710.0 0.0035337
10730.0 0.0035391
10750.0 0.0035438
10770.0 0.0035487
10790.0 0.0035531
10810.0 0.0035566
10830.0 0.0035598
10850.0 0.0035625
10870.0 0.0035635
10890.0 0.0035625
10910.0 0.003559
10930.0 0.0035506
10950.0 0.0035341
10970.0 0.0035085
10990.0 0.003473
11010.0 0.0034349
11030.0 0.0033676
11050.0 0.0032899
11070.0 0.0032001
11090.0 0.0030954
11110.0 0.0029902
11130.0 0.0028836
11150.0 0.0027727
11170.0 0.0026632
11190.0 0.0025621
11210.0 0.0024633
11230.0 0.0023682
11250.0 0.0022836
11270.0 0.0022079
11290.0 0.0021374
11310.0 0.0020755
11330.0 0.0020243
11350.0 0.0019783
11370.0 0.001937
11390.0 0.0019011
11410.0 0.0018684
11430.0 0.0018351
11450.0 0.0018024
11470.0 0.0017694
11490.0 0.0017336
11510.0 0.0016938
11530.0 0.0016526
11550.0 0.0016089
11570.0 0.0015608
11590.0 0.001511
11610.0 0.0014613
11630.0 0.0014093
11650.0 0.0013563
11670.0 0.0013067
11690.0 0.0012589
11710.0 0.0012121
11730.0 0.0011689
11750.0 0.0011304
11770.0 0.0010938
11790.0 0.0010601
11810.0 0.0010306
11830.0 0.0010039
11850.0 0.00097825
11870.0 0.00095524
11890.0 0.00093417
11910.0 0.00091329
11930.0 0.00089252
11950.0 0.0008724
11970.0 0.00085178
11990.0 0.0008298
12010.0 0.00080771
12030.0 0.00078551
12050.0 0.00076236
12070.0 0.0007387
12090.0 0.0007167
12110.0 0.00069522
12130.0 0.00067458
12150.0 0.00065626
12170.0 0.00064066
12190.0 0.00062718
12210.0 0.00061727
12230.0 0.00061118
12250.0 0.00060874
12270.0 0.00061037
12290.0 0.00061581
12310.0 0.00062448
12330.0 0.00063704
12350.0 0.00065265
12370.0 0.00067005
12390.0 0.00068956
12410.0 0.00071162
12430.0 0.00073294
12450.0 0.00075388
12470.0 0.0007749
12490.0 0.00079456
12510.0 0.00081149
12530.0 0.00082686
12550.0 0.00084005
12570.0 0.0008499
12590.0 0.00085681
12610.0 0.0008611
12630.0 0.00086229
12650.0 0.0008605
12670.0 0.00085623
12690.0 0.00084946
12710.0 0.00084069
12730.0 0.00083023
12750.0 0.00081774
12770.0 0.0008041
12790.0 0.00078975
12810.0 0.00077434
12830.0 0.00075788
12850.0 0.00074149
12870.0 0.00072473
12890.0 0.00070699
12910.0 0.00068902
12930.0 0.00067114
12950.0 0.00065221
12970.0 0.00063247
12990.0 0.00061317
13010.0 0.00059354
13030.0 0.00057312
13050.0 0.00055296
13070.0 0.00053365
13090.0 0.00051405
13110.0 0.00049499
13130.0 0.00047746
13150.0 0.00046111
13170.0 0.00044556
13190.0 0.00043228
13210.0 0.00042119
13230.0 0.00041182
13250.0 0.00040458
13270.0 0.00039967
13290.0 0.00039674
13310.0 0.00039586
13330.0 0.00039688
13350.0 0.00039945
13370.0 0.00040358
13390.0 0.00040902
13410.0 0.0004149
13430.0 0.00042144
13450.0 0.00042848
13470.0 0.00043533
13490.0 0.00044176
13510.0 0.00044825
13530.0 0.00045407
13550.0 0.00045896
13570.0 0.00046325
13590.0 0.00046694
13610.0 0.00046974
13630.0 0.00047178
13650.0 0.00047333
13670.0 0.00047425
13690.0 0.00047457
13710.0 0.00047445
13730.0 0.0004739
13750.0 0.00047288
13770.0 0.00047148
13790.0 0.00046967
13810.0 0.00046746
13830.0 0.0004649
13850.0 0.00046187
13870.0 0.00045836
13890.0 0.00045448
13910.0 0.00045023
13930.0 0.00044542
13950.0 0.00044026
13970.0 0.00043504
13990.0 0.00042949
14010.0 0.00042375
14030.0 0.00041817
14050.0 0.00041274
14070.0 0.00040726
14090.0 0.00040224
14110.0 0.00039773
14130.0 0.00039361
14150.0 0.00038997
14170.0 0.00038706
14190.0 0.00038475
14210.0 0.00038304
14230.0 0.00038202
14250.0 0.00038167
14270.0 0.00038201
14290.0 0.00038308
14310.0 0.00038471
14330.0 0.00038695
14350.0 0.00038985
14370.0 0.00039319
14390.0 0.00039681
14410.0 0.00040094
14430.0 0.00040537
14450.0 0.00040982
14470.0 0.00041445
14490.0 0.00041945
14510.0 0.0004244
14530.0 0.00042937
14550.0 0.00043477
14570.0 0.00044059
14590.0 0.00044663
14610.0 0.00045339
14630.0 0.00046124
14650.0 0.00046974
14670.0 0.00047906
14690.0 0.00048978
14710.0 0.00050182
14730.0 0.00051414
14750.0 0.00052764
14770.0 0.00054232
14790.0 0.00055718
14810.0 0.00057199
14830.0 0.00058782
14850.0 0.00060311
14870.0 0.00061724
14890.0 0.00063073
14910.0 0.00064332
14930.0 0.00065397
14950.0 0.00066277
14970.0 0.0006701
14990.0 0.00067542
15010.0 0.00067883
15030.0 0.00068077
15050.0 0.0006814
15070.0 0.000681
15090.0 0.00067998
15110.0 0.00067849
15130.0 0.00067677
15150.0 0.000675
15170.0 0.00067311
15190.0 0.00067116
15210.0 0.00066929
15230.0 0.00066743
15250.0 0.0006655
15270.0 0.00066359
15290.0 0.0006618
15310.0 0.00065995
15330.0 0.00065808
15350.0 0.00065628
15370.0 0.0006545
15390.0 0.00065263
15410.0 0.00065082
15430.0 0.00064906
15450.0 0.00064727
15470.0 0.00064543
15490.0 0.0006437
15510.0 0.00064197
15530.0 0.00064017
15550.0 0.00063842
15570.0 0.00063672
15590.0 0.00063494
15610.0 0.00063314
15630.0 0.00063145
15650.0 0.00062973
15670.0 0.00062796
15690.0 0.00062623
15710.0 0.00062457
15730.0 0.00062282
15750.0 0.00062106
15770.0 0.00061938
15790.0 0.00061768
15810.0 0.00061589
15830.0 0.00061417
15850.0 0.0006125
15870.0 0.00061076
15890.0 0.00060902
15910.0 0.00060735
15930.0 0.00060564
15950.0 0.00060386
15970.0 0.00060214
15990.0 0.00060045
16010.0 0.00059869
16030.0 0.00059691
16050.0 0.00059523
16070.0 0.00059351
16090.0 0.00059173
16110.0 0.00059
16130.0 0.00058831
16150.0 0.00058649
16170.0 0.00058471
16190.0 0.00058299
16210.0 0.00058122
16230.0 0.0005794
16250.0 0.00057765
16270.0 0.00057592
16290.0 0.0005741
16310.0 0.00057229
16330.0 0.00057054
16350.0 0.00056874
16370.0 0.00056684
16390.0 0.00056506
16410.0 0.00056327
16430.0 0.00056141
16450.0 0.00055956
16470.0 0.00055779
16490.0 0.00055592
16510.0 0.00055402
16530.0 0.00055218
16550.0 0.00055034
16570.0 0.00054841
16590.0 0.0005465
16610.0 0.00054467
16630.0 0.00054277
16650.0 0.00054083
16670.0 0.00053895
16690.0 0.00053707
16710.0 0.00053506
16730.0 0.00053312
16750.0 0.00053122
16770.0 0.00052925
16790.0 0.00052724
16810.0 0.00052532
16830.0 0.00052338
16850.0 0.00052136
16870.0 0.00051937
16890.0 0.00051742
16910.0 0.00051538
16930.0 0.00051331
16950.0 0.00051133
16970.0 0.00050932
16990.0 0.00050724
17010.0 0.00050521
17030.0 0.00050322
17050.0 0.00050112
17070.0 0.00049903
17090.0 0.00049699
17110.0 0.00049493
17130.0 0.00049276
17150.0 0.00049068
17170.0 0.00048862
17190.0 0.00048649
17210.0 0.00048435
17230.0 0.00048229
17250.0 0.00048016
17270.0 0.00047796
17290.0 0.00047583
17310.0 0.00047372
17330.0 0.00047153
17350.0 0.00046932
17370.0 0.00046722
17390.0 0.00046505
17410.0 0.00046283
17430.0 0.00046067
17450.0 0.00045853
17470.0 0.00045626
17490.0 0.00045403
17510.0 0.00045187
17530.0 0.00044966
17550.0 0.00044739
17570.0 0.0004452
17590.0 0.00044301
17610.0 0.00044074
17630.0 0.00043849
17650.0 0.00043629
17670.0 0.00043404
17690.0 0.0004317
17710.0 0.00042949
17730.0 0.00042727
17750.0 0.00042497
17770.0 0.0004227
17790.0 0.00042049
17810.0 0.00041819
17830.0 0.00041587
17850.0 0.00041362
17870.0 0.00041137
17890.0 0.00040903
17910.0 0.00040672
17930.0 0.00040449
17950.0 0.00040219
17970.0 0.00039987
17990.0 0.00039761
18010.0 0.00039535
18030.0 0.00039297
18050.0 0.00039067
18070.0 0.00038841
18090.0 0.00038609
18110.0 0.00038374
18130.0 0.00038148
18150.0 0.0003792
18170.0 0.00037685
18190.0 0.00037455
18210.0 0.00037229
18230.0 0.00036994
18250.0 0.00036758
18270.0 0.00036532
18290.0 0.00036303
18310.0 0.00036068
18330.0 0.00035838
18350.0 0.00035614
18370.0 0.00035379
18390.0 0.00035146
18410.0 0.00034919
18430.0 0.0003469
18450.0 0.00034453
18470.0 0.00034224
18490.0 0.00033999
18510.0 0.00033767
18530.0 0.00033536
18550.0 0.00033312
18570.0 0.00033083
18590.0 0.00032848
18610.0 0.0003262
18630.0 0.00032395
18650.0 0.00032163
18670.0 0.00031932
18690.0 0.0003171
18710.0 0.00031483
18730.0 0.00031252
18750.0 0.00031028
18770.0 0.00030806
18790.0 0.00030573
18810.0 0.00030345
18830.0 0.00030124
18850.0 0.00029898
18870.0 0.00029669
18890.0 0.00029448
18910.0 0.00029228
18930.0 0.00029
18950.0 0.00028775
18970.0 0.00028557
18990.0 0.00028333
19010.0 0.00028103
19030.0 0.00027886
19050.0 0.00027667
19070.0 0.00027443
19090.0 0.00027222
19110.0 0.00027008
19130.0 0.00026786
19150.0 0.00026563
19170.0 0.00026347
19190.0 0.00026131
19210.0 0.00025908
19230.0 0.00025689
19250.0 0.00025478
19270.0 0.00025261
19290.0 0.00025042
19310.0 0.00024831
19330.0 0.00024619
19350.0 0.00024397
19370.0 0.00024184
19390.0 0.00023974
19410.0 0.00023759
19430.0 0.00023543
19450.0 0.00023337
19470.0 0.00023127
19490.0 0.00022913
19510.0 0.00022704
19530.0 0.00022498
19550.0 0.00022285
19570.0 0.00022072
19590.0 0.00021869
19610.0 0.00021663
19630.0 0.00021452
19650.0 0.00021247
19670.0 0.00021047
19690.0 0.00020837
19710.0 0.00020631
19730.0 0.0002043
19750.0 0.00020227
19770.0 0.00020018
19790.0 0.00019817
19810.0 0.00019619
19830.0 0.00019415
19850.0 0.00019211
19870.0 0.00019013
19890.0 0.00018804
19910.0 0.00018584
19930.0 0.0001836
19950.0 0.00018119
19970.0 0.00017846
19990.0 0.00017541
20010.0 0.00017253
20030.0 0.00016889
20050.0 0.00016491
20070.0 0.00016087
20090.0 0.00015679
20110.0 0.00015247
20130.0 0.00014839
20150.0 0.0001446
20170.0 0.00014093
20190.0 0.00013747
20210.0 0.00013441
20230.0 0.00013162
20250.0 0.00012902
20270.0 0.00012678
20290.0 0.00012488
20310.0 0.00012321
20330.0 0.00012182
20350.0 0.00012079
20370.0 0.00012002
20390.0 0.00011951
20410.0 0.00011928
20430.0 0.00011931
20450.0 0.00011961
20470.0 0.00012017
20490.0 0.00012094
20510.0 0.00012195
20530.0 0.00012322
20550.0 0.00012466
20570.0 0.00012622
20590.0 0.00012799
20610.0 0.00012991
20630.0 0.00013184
20650.0 0.00013387
20670.0 0.00013606
20690.0 0.00013815
20710.0 0.00014019
20730.0 0.00014227
20750.0 0.00014431
20770.0 0.0001462
20790.0 0.00014807
20810.0 0.00014993
20830.0 0.0001517
20850.0 0.00015341
20870.0 0.00015519
20890.0 0.00015699
20910.0 0.00015871
20930.0 0.0001605
20950.0 0.00016239
20970.0 0.00016426
20990.0 0.00016612
21010.0 0.00016811
21030.0 0.00017006
21050.0 0.0001719
21070.0 0.00017372
21090.0 0.00017549
21110.0 0.00017703
21130.0 0.0001784
21150.0 0.00017964
21170.0 0.00018065
21190.0 0.0001814
21210.0 0.00018196
21230.0 0.00018227
21250.0 0.00018232
21270.0 0.00018213
21290.0 0.0001817
21310.0 0.00018103
21330.0 0.00018017
21350.0 0.00017907
21370.0 0.00017775
21390.0 0.00017629
21410.0 0.00017467
21430.0 0.00017279
21450.0 0.00017083
21470.0 0.00016882
21490.0 0.00016667
21510.0 0.00016443
21530.0 0.00016224
21550.0 0.00016004
21570.0 0.00015777
21590.0 0.00015562
21610.0 0.00015361
21630.0 0.00015166
21650.0 0.00014982
21670.0 0.00014828
21690.0 0.00014691
21710.0 0.00014574
21730.0 0.00014485
21750.0 0.00014424
21770.0 0.00014388
21790.0 0.00014382
21810.0 0.00014404
21830.0 0.00014454
21850.0 0.00014535
21870.0 0.00014641
21890.0 0.00014768
21910.0 0.00014924
21930.0 0.00015103
21950.0 0.00015294
21970.0 0.00015507
21990.0 0.00015746
22010.0 0.00015987
22030.0 0.00016235
22050.0 0.00016498
22070.0 0.00016767
22090.0 0.00017025
22110.0 0.00017288
22130.0 0.00017553
22150.0 0.00017803
22170.0 0.00018038
22190.0 0.0001827
22210.0 0.00018483
22230.0 0.00018664
22250.0 0.00018828
22270.0 0.00018967
22290.0 0.00019073
22310.0 0.00019148
22330.0 0.00019192
22350.0 0.000192
22370.0 0.00019172
22390.0 0.00019107
22410.0 0.00019001
22430.0 0.00018862
22450.0 0.00018691
22470.0 0.00018478
22490.0 0.00018233
22510.0 0.00017968
22530.0 0.00017662
22550.0 0.00017323
22570.0 0.00016974
22590.0 0.00016606
22610.0 0.00016208
22630.0 0.000158
22650.0 0.00015399
22670.0 0.00014975
22690.0 0.00014541
22710.0 0.00014122
22730.0 0.00013705
22750.0 0.0001327
22770.0 0.0001286
22790.0 0.00012473
22810.0 0.00012089
22830.0 0.00011719
22850.0 0.00011385
22870.0 0.0001107
22890.0 0.00010771
22910.0 0.00010509
22930.0 0.00010283
22950.0 0.00010083
22970.0 9.918e-05
22990.0 9.8005e-05
23010.0 9.7177e-05
23030.0 9.6733e-05
23050.0 9.6704e-05
23070.0 9.7048e-05
