#lamb flux
1010.0 2.5717e-05
1030.0 3.4793e-05
1050.0 4.7055e-05
1070.0 6.322e-05
1090.0 8.4422e-05
1110.0 0.00011034
1130.0 0.00014105
1150.0 0.0001775
1170.0 0.00021973
1190.0 0.00026558
1210.0 0.00031582
1230.0 0.00037022
1250.0 0.00042613
1270.0 0.00048158
1290.0 0.00053755
1310.0 0.00059048
1330.0 0.00063694
1350.0 0.00067699
1370.0 0.0007099
1390.0 0.00073237
1410.0 0.00074362
1430.0 0.00074588
1450.0 0.00073775
1470.0 0.0007189
1490.0 0.00069175
1510.0 0.00065856
1530.0 0.00061792
1550.0 0.00057256
1570.0 0.0005247
1590.0 0.00047513
1610.0 0.00042452
1630.0 0.00037509
1650.0 0.0003274
1670.0 0.00028153
1690.0 0.0002383
1710.0 0.00019831
1730.0 0.00016145
1750.0 0.00012763
1770.0 9.7204e-05
1790.0 7.0001e-05
1810.0 4.5826e-05
1830.0 2.4623e-05
1850.0 1.1861e-05
1870.0 6.2268e-06
1890.0 1.5269e-06
1910.0 1e-99
1930.0 1e-99
1950.0 1e-99
1970.0 1e-99
1990.0 1e-99
2010.0 1e-99
2030.0 1e-99
2050.0 1e-99
2070.0 1e-99
2090.0 1e-99
2110.0 1e-99
2130.0 3.5596e-06
2150.0 7.6421e-06
2170.0 1.2176e-05
2190.0 1.7134e-05
2210.0 2.6555e-05
2230.0 4.1468e-05
2250.0 5.7185e-05
2270.0 7.3648e-05
2290.0 9.0672e-05
2310.0 0.00010809
2330.0 0.00012588
2350.0 0.0001439
2370.0 0.0001619
2390.0 0.00017982
2410.0 0.00019762
2430.0 0.00021492
2450.0 0.00023154
2470.0 0.00024742
2490.0 0.00026232
2510.0 0.000276
2530.0 0.00028883
2550.0 0.00030144
2570.0 0.00031485
2590.0 0.00033051
2610.0 0.00035185
2630.0 0.00038176
2650.0 0.00042164
2670.0 0.00047545
2690.0 0.00054708
2710.0 0.00063222
2730.0 0.00072706
2750.0 0.00083453
2770.0 0.00094267
2790.0 0.0010396
2810.0 0.0011247
2830.0 0.001197
2850.0 0.0012431
2870.0 0.0012703
2890.0 0.0012848
2910.0 0.0012865
2930.0 0.0012757
2950.0 0.0012599
2970.0 0.0012396
2990.0 0.0012126
3010.0 0.0011815
3030.0 0.0011499
3050.0 0.0011165
3070.0 0.0010791
3090.0 0.0010427
3110.0 0.0010077
3130.0 0.00097316
3150.0 0.00087233
3170.0 0.0007894
3190.0 0.00070088
3210.0 0.00061784
3230.0 0.00056992
3250.0 0.00067714
3270.0 0.0010087
3290.0 0.0011565
3310.0 0.00069923
3330.0 0.0006423
3350.0 0.00067704
3370.0 0.00072472
3390.0 0.00076779
3410.0 0.0007798
3430.0 0.00076713
3450.0 0.00074751
3470.0 0.00074058
3490.0 0.00068917
3510.0 0.0004482
3530.0 0.00011195
3550.0 6.18e-05
3570.0 0.00056898
3590.0 0.0014238
3610.0 0.0018569
3630.0 0.0030052
3650.0 0.0032244
3670.0 0.0025509
3690.0 0.0017033
3710.0 0.0011966
3730.0 0.0012358
3750.0 0.0013188
3770.0 0.0013651
3790.0 0.0014028
3810.0 0.001784
3830.0 0.0016054
3850.0 0.0011667
3870.0 0.00091636
3890.0 0.0012649
3910.0 0.0015252
3930.0 0.0015391
3950.0 0.0017081
3970.0 0.0018979
3990.0 0.0017999
4010.0 0.001981
4030.0 0.0018843
4050.0 0.001749
4070.0 0.0016391
4090.0 0.0016724
4110.0 0.0017813
4130.0 0.0017556
4150.0 0.0016383
4170.0 0.0015673
4190.0 0.0016264
4210.0 0.0014386
4230.0 0.0012838
4250.0 0.0010649
4270.0 0.00081689
4290.0 0.00082428
4310.0 0.00079151
4330.0 0.0007843
4350.0 0.0010765
4370.0 0.0010888
4390.0 0.0013092
4410.0 0.00145
4430.0 0.0015907
4450.0 0.0013767
4470.0 0.0011027
4490.0 0.0010389
4510.0 0.0009444
4530.0 0.00087993
4550.0 0.00080558
4570.0 0.00078496
4590.0 0.00080027
4610.0 0.00066155
4630.0 0.00057596
4650.0 0.00046597
4670.0 0.00045742
4690.0 0.00034836
4710.0 0.00028319
4730.0 0.00017393
4750.0 0.00011864
4770.0 2.9991e-05
4790.0 3.5341e-05
4810.0 2.9699e-05
4830.0 1e-99
4850.0 1e-99
4870.0 1e-99
4890.0 1e-99
4910.0 1.8009e-05
4930.0 3.7137e-05
4950.0 1e-99
4970.0 1e-99
4990.0 1e-99
5010.0 1e-99
5030.0 1e-99
5050.0 1e-99
5070.0 1e-99
5090.0 1e-99
5110.0 1e-99
5130.0 1e-99
5150.0 1e-99
5170.0 1e-99
5190.0 1e-99
5210.0 1e-99
5230.0 1e-99
5250.0 1e-99
5270.0 8.7186e-05
5290.0 7.5709e-05
5310.0 1.3893e-05
5330.0 2.3223e-05
5350.0 1e-99
5370.0 1e-99
5390.0 1.5481e-05
5410.0 5.8919e-06
5430.0 5.1438e-05
5450.0 1e-99
5470.0 1e-99
5490.0 0.00020297
5510.0 0.00019756
5530.0 0.00020761
5550.0 0.00017207
5570.0 0.00025032
5590.0 0.00035365
5610.0 0.00036212
5630.0 0.00032338
5650.0 0.00033721
5670.0 0.00033545
5690.0 0.00037254
5710.0 0.00029969
5730.0 0.00034361
5750.0 0.00034807
5770.0 0.00031899
5790.0 0.00041694
5810.0 0.00047947
5830.0 0.00043699
5850.0 0.00031373
5870.0 0.00024904
5890.0 0.00024622
5910.0 0.00033362
5930.0 0.00030639
5950.0 0.00034514
5970.0 0.00035393
5990.0 0.00040063
6010.0 0.0003776
6030.0 0.00039827
6050.0 0.00038928
6070.0 0.0003208
6090.0 0.00036842
6110.0 0.00039408
6130.0 0.00035657
6150.0 0.00036415
6170.0 0.00038291
6190.0 0.00026106
6210.0 0.00027628
6230.0 0.00031471
6250.0 0.00031064
6270.0 0.00030827
6290.0 0.00035706
6310.0 0.0004194
6330.0 0.00042936
6350.0 0.00041283
6370.0 0.00043387
6390.0 0.00036557
6410.0 0.0003888
6430.0 0.00035422
6450.0 0.00037121
6470.0 0.00038956
6490.0 0.00040148
6510.0 0.00033929
6530.0 0.00035161
6550.0 0.00034655
6570.0 0.00030986
6590.0 0.00034745
6610.0 0.0003513
6630.0 0.00035393
6650.0 0.00031766
6670.0 0.00029634
6690.0 0.00028231
6710.0 0.0002629
6730.0 0.00024813
6750.0 0.00024937
6770.0 0.00021218
6790.0 5.6182e-05
6810.0 0.00010475
6830.0 0.00020643
6850.0 0.00016581
6870.0 0.00016392
6890.0 0.0001574
6910.0 0.00015354
6930.0 0.00013792
6950.0 0.0001624
6970.0 0.00015497
6990.0 0.00015246
7010.0 0.00014792
7030.0 0.00017046
7050.0 0.00016877
7070.0 0.00010153
7090.0 4.1787e-05
7110.0 3.3686e-05
7130.0 4.4807e-05
7150.0 5.6318e-05
7170.0 5.3406e-05
7190.0 2.9316e-05
7210.0 7.2037e-05
7230.0 0.00012268
7250.0 0.00011591
7270.0 0.00012226
7290.0 0.00014527
7310.0 0.00010084
7330.0 8.8373e-05
7350.0 7.6269e-05
7370.0 0.00011501
7390.0 0.00016402
7410.0 8.7292e-05
7430.0 9.8127e-05
7450.0 9.2724e-05
7470.0 0.0001382
7490.0 0.00014865
7510.0 0.00010987
7530.0 0.00013696
7550.0 1.852e-05
7570.0 8.259e-06
7590.0 5.6665e-05
7610.0 0.0001211
7630.0 7.935e-05
7650.0 0.00011646
7670.0 2.6569e-05
7690.0 1e-99
7710.0 8.9259e-06
7730.0 5.6346e-05
7750.0 8.4221e-06
7770.0 7.7385e-05
7790.0 0.00011426
7810.0 5.8097e-05
7830.0 0.00010427
7850.0 2.7992e-05
7870.0 8.9008e-05
7890.0 4.7766e-05
7910.0 4.98e-05
7930.0 1.2092e-05
7950.0 1e-99
7970.0 6.6342e-06
7990.0 3.852e-05
8010.0 0.00036538
8030.0 0.00035182
8050.0 0.00034578
8070.0 0.00033748
8090.0 0.00031887
8110.0 0.00030757
8130.0 0.00033665
8150.0 0.00036083
8170.0 0.00037532
8190.0 0.00039699
8210.0 0.00037615
8230.0 0.00037561
8250.0 0.000371
8270.0 0.00037873
8290.0 0.00037745
8310.0 0.0003565
8330.0 0.00033811
8350.0 0.00035092
8370.0 0.00035952
8390.0 0.00034863
8410.0 0.00034475
8430.0 0.00033153
8450.0 0.0003179
8470.0 0.00034616
8490.0 0.00034754
8510.0 0.0003224
8530.0 0.00032794
8550.0 0.00032445
8570.0 0.00029527
8590.0 0.0003019
8610.0 0.00029998
8630.0 0.00031738
8650.0 0.00031956
8670.0 0.0003247
8690.0 0.00031682
8710.0 0.00031317
8730.0 0.00029722
8750.0 0.00028848
8770.0 0.00028504
8790.0 0.00030626
8810.0 0.00028174
8830.0 0.00027462
8850.0 0.00029443
8870.0 0.00027831
8890.0 0.00025284
8910.0 0.00025058
8930.0 0.00026159
8950.0 0.00023569
8970.0 0.00022495
8990.0 0.00021945
9010.0 0.0002048
9030.0 0.00020149
9050.0 0.00020062
9070.0 0.00019989
9090.0 0.00019914
9110.0 0.0001984
9130.0 0.00019764
9150.0 0.00019687
9170.0 0.00019609
9190.0 0.0001953
9210.0 0.00019451
9230.0 0.00019371
9250.0 0.00019291
9270.0 0.0001921
9290.0 0.00019128
9310.0 0.00019063
9330.0 0.00019023
9350.0 0.00018983
9370.0 0.00018942
9390.0 0.00018899
9410.0 0.00018856
9430.0 0.00018813
9450.0 0.00018767
9470.0 0.00018731
9490.0 0.00018689
9510.0 0.00018636
9530.0 0.00018583
9550.0 0.00018532
9570.0 0.00018482
9590.0 0.0001843
9610.0 0.00018406
9630.0 0.00018385
9650.0 0.00018362
9670.0 0.00018336
9690.0 0.00018312
9710.0 0.00018286
9730.0 0.00018257
9750.0 0.00018228
9770.0 0.000182
9790.0 0.00018169
9810.0 0.00018136
9830.0 0.00018104
9850.0 0.00018059
9870.0 0.00018002
9890.0 0.0001798
9910.0 0.00017953
9930.0 0.00017913
9950.0 0.00017877
9970.0 0.00017842
9990.0 0.00017805
10010.0 0.00017766
10030.0 0.00017726
10050.0 0.00017684
10070.0 0.00017642
10090.0 0.00017599
10110.0 0.00017555
10130.0 0.00017511
10150.0 0.00017465
10170.0 0.0001742
10190.0 0.00017374
10210.0 0.00017328
10230.0 0.0001728
10250.0 0.00017233
10270.0 0.00017185
10290.0 0.00017137
10310.0 0.00017089
10330.0 0.0001704
10350.0 0.00016991
10370.0 0.00016941
10390.0 0.00016891
10410.0 0.00016828
10430.0 0.00016762
10450.0 0.00016725
10470.0 0.00016681
10490.0 0.00016635
10510.0 0.00016587
10530.0 0.00016537
10550.0 0.00016486
10570.0 0.00016436
10590.0 0.00016385
10610.0 0.00016334
10630.0 0.00016283
10650.0 0.00016233
10670.0 0.00016181
10690.0 0.00016129
10710.0 0.00016079
10730.0 0.00016028
10750.0 0.00015976
10770.0 0.00015926
10790.0 0.00015876
10810.0 0.00015824
10830.0 0.00015774
10850.0 0.00015724
10870.0 0.00015673
10890.0 0.00015621
10910.0 0.00015569
10930.0 0.00015514
10950.0 0.00015455
10970.0 0.00015393
10990.0 0.00015326
11010.0 0.0001334
11030.0 0.00013261
11050.0 0.00013159
11070.0 0.00013037
11090.0 0.00012897
11110.0 0.00012747
11130.0 0.00012592
11150.0 0.00012429
11170.0 0.00012262
11190.0 0.00012097
11210.0 0.00011929
11230.0 0.00011759
11250.0 0.0001159
11270.0 0.00011424
11290.0 0.00011256
11310.0 0.0001109
11330.0 0.00010932
11350.0 0.00010774
11370.0 0.0001062
11390.0 0.00010472
11410.0 0.00010328
11430.0 0.00010186
11450.0 0.00010049
11470.0 9.9172e-05
11490.0 9.7873e-05
11510.0 9.6588e-05
11530.0 9.5341e-05
11550.0 9.4113e-05
11570.0 9.2882e-05
11590.0 9.1662e-05
11610.0 9.0457e-05
11630.0 8.9241e-05
11650.0 8.8012e-05
11670.0 8.6798e-05
11690.0 8.5577e-05
11710.0 8.4336e-05
11730.0 8.3092e-05
11750.0 8.1857e-05
11770.0 8.0599e-05
11790.0 7.9329e-05
11810.0 7.8072e-05
11830.0 7.6817e-05
11850.0 7.5541e-05
11870.0 7.4289e-05
11890.0 7.307e-05
11910.0 7.1856e-05
11930.0 7.0665e-05
11950.0 6.9525e-05
11970.0 6.8418e-05
11990.0 6.7338e-05
12010.0 6.6317e-05
12030.0 6.5353e-05
12050.0 6.4434e-05
12070.0 6.3568e-05
12090.0 6.2771e-05
12110.0 6.2026e-05
12130.0 6.1335e-05
12150.0 6.0699e-05
12170.0 6.0111e-05
12190.0 5.9572e-05
12210.0 5.9076e-05
12230.0 5.861e-05
12250.0 5.8174e-05
12270.0 5.7766e-05
12290.0 5.7368e-05
12310.0 5.6974e-05
12330.0 5.659e-05
12350.0 5.6202e-05
12370.0 5.58e-05
12390.0 5.5387e-05
12410.0 5.496e-05
12430.0 5.4506e-05
12450.0 5.4029e-05
12470.0 5.3524e-05
12490.0 5.2989e-05
12510.0 5.2428e-05
12530.0 5.1834e-05
12550.0 5.1203e-05
12570.0 5.0547e-05
12590.0 4.9864e-05
12610.0 4.914e-05
12630.0 4.8386e-05
12650.0 4.7628e-05
12670.0 4.6838e-05
12690.0 4.6019e-05
12710.0 4.52e-05
12730.0 4.4375e-05
12750.0 4.3513e-05
12770.0 4.2657e-05
12790.0 4.1817e-05
12810.0 4.0968e-05
12830.0 4.011e-05
12850.0 3.9288e-05
12870.0 3.8484e-05
12890.0 3.7678e-05
12910.0 3.6903e-05
12930.0 3.6173e-05
12950.0 3.5455e-05
12970.0 3.4767e-05
12990.0 3.4143e-05
13010.0 3.3564e-05
13030.0 3.3023e-05
13050.0 3.2543e-05
13070.0 3.2125e-05
13090.0 3.1753e-05
13110.0 3.1436e-05
13130.0 3.1178e-05
13150.0 3.097e-05
13170.0 3.0809e-05
13190.0 3.0697e-05
13210.0 3.0624e-05
13230.0 3.0591e-05
13250.0 3.0594e-05
13270.0 3.0622e-05
13290.0 3.0677e-05
13310.0 3.076e-05
13330.0 3.0856e-05
13350.0 3.0958e-05
13370.0 3.1072e-05
13390.0 3.1188e-05
13410.0 3.1288e-05
13430.0 3.138e-05
13450.0 3.146e-05
13470.0 3.1518e-05
13490.0 3.1556e-05
13510.0 3.1575e-05
13530.0 3.1572e-05
13550.0 3.1551e-05
13570.0 3.1514e-05
13590.0 3.1461e-05
13610.0 3.1398e-05
13630.0 3.1328e-05
13650.0 3.1244e-05
13670.0 3.115e-05
13690.0 3.105e-05
13710.0 3.0937e-05
13730.0 3.08e-05
13750.0 3.0658e-05
13770.0 3.05e-05
13790.0 3.0316e-05
13810.0 3.0112e-05
13830.0 2.9902e-05
13850.0 2.9665e-05
13870.0 2.9403e-05
13890.0 2.9139e-05
13910.0 2.8869e-05
13930.0 2.8577e-05
13950.0 2.8285e-05
13970.0 2.8015e-05
13990.0 2.7739e-05
14010.0 2.7467e-05
14030.0 2.722e-05
14050.0 2.6991e-05
14070.0 2.6759e-05
14090.0 2.6556e-05
14110.0 2.638e-05
14130.0 2.6214e-05
14150.0 2.606e-05
14170.0 2.5935e-05
14190.0 2.5825e-05
14210.0 2.5718e-05
14230.0 2.5628e-05
14250.0 2.5555e-05
14270.0 2.5482e-05
14290.0 2.5414e-05
14310.0 2.5366e-05
14330.0 2.5326e-05
14350.0 2.5288e-05
14370.0 2.5264e-05
14390.0 2.5256e-05
14410.0 2.5251e-05
14430.0 2.5257e-05
14450.0 2.5279e-05
14470.0 2.531e-05
14490.0 2.5344e-05
14510.0 2.5392e-05
14530.0 2.545e-05
14550.0 2.551e-05
14570.0 2.5573e-05
14590.0 2.5644e-05
14610.0 2.5714e-05
14630.0 2.5779e-05
14650.0 2.5848e-05
14670.0 2.5918e-05
14690.0 2.5982e-05
14710.0 2.6042e-05
14730.0 2.6106e-05
14750.0 2.6164e-05
14770.0 2.6214e-05
14790.0 2.6262e-05
14810.0 2.6308e-05
14830.0 2.6338e-05
14850.0 2.6364e-05
14870.0 2.6389e-05
14890.0 2.6405e-05
14910.0 2.6413e-05
14930.0 2.6426e-05
14950.0 2.6445e-05
14970.0 2.6463e-05
14990.0 2.6493e-05
15010.0 2.654e-05
15030.0 2.6598e-05
15050.0 2.6663e-05
15070.0 2.6745e-05
15090.0 2.6833e-05
15110.0 2.6923e-05
15130.0 2.7015e-05
15150.0 2.711e-05
15170.0 2.7202e-05
15190.0 2.729e-05
15210.0 2.7379e-05
15230.0 2.7467e-05
15250.0 2.7549e-05
15270.0 2.7629e-05
15290.0 2.7711e-05
15310.0 2.7787e-05
15330.0 2.786e-05
15350.0 2.7933e-05
15370.0 2.8003e-05
15390.0 2.8066e-05
15410.0 2.8129e-05
15430.0 2.8191e-05
15450.0 2.8248e-05
15470.0 2.8301e-05
15490.0 2.8354e-05
15510.0 2.8404e-05
15530.0 2.8448e-05
15550.0 2.849e-05
15570.0 2.8532e-05
15590.0 2.8567e-05
15610.0 2.8597e-05
15630.0 2.8629e-05
15650.0 2.8656e-05
15670.0 2.8678e-05
15690.0 2.8699e-05
15710.0 2.8718e-05
15730.0 2.8731e-05
15750.0 2.874e-05
15770.0 2.8749e-05
15790.0 2.8753e-05
15810.0 2.8751e-05
15830.0 2.8749e-05
15850.0 2.8745e-05
15870.0 2.8735e-05
15890.0 2.8721e-05
15910.0 2.8708e-05
15930.0 2.8689e-05
15950.0 2.8665e-05
15970.0 2.864e-05
15990.0 2.8613e-05
16010.0 2.8579e-05
16030.0 2.8542e-05
16050.0 2.8507e-05
16070.0 2.8466e-05
16090.0 2.842e-05
16110.0 2.8374e-05
16130.0 2.8326e-05
16150.0 2.827e-05
16170.0 2.8212e-05
16190.0 2.8155e-05
16210.0 2.8093e-05
16230.0 2.8026e-05
16250.0 2.7959e-05
16270.0 2.789e-05
16290.0 2.7815e-05
16310.0 2.7738e-05
16330.0 2.7661e-05
16350.0 2.758e-05
16370.0 2.7492e-05
16390.0 2.7407e-05
16410.0 2.732e-05
16430.0 2.7227e-05
16450.0 2.7132e-05
16470.0 2.7039e-05
16490.0 2.6939e-05
16510.0 2.6836e-05
16530.0 2.6734e-05
16550.0 2.663e-05
16570.0 2.6521e-05
16590.0 2.641e-05
16610.0 2.6301e-05
16630.0 2.6187e-05
16650.0 2.6071e-05
16670.0 2.5955e-05
16690.0 2.5837e-05
16710.0 2.5713e-05
16730.0 2.559e-05
16750.0 2.5468e-05
16770.0 2.5341e-05
16790.0 2.5212e-05
16810.0 2.5084e-05
16830.0 2.4955e-05
16850.0 2.4821e-05
16870.0 2.4688e-05
16890.0 2.4555e-05
16910.0 2.4418e-05
16930.0 2.4278e-05
16950.0 2.4142e-05
16970.0 2.4003e-05
16990.0 2.3861e-05
17010.0 2.3719e-05
17030.0 2.3579e-05
17050.0 2.3434e-05
17070.0 2.3288e-05
17090.0 2.3144e-05
17110.0 2.2999e-05
17130.0 2.2849e-05
17150.0 2.2701e-05
17170.0 2.2555e-05
17190.0 2.2405e-05
17210.0 2.2255e-05
17230.0 2.2107e-05
17250.0 2.1956e-05
17270.0 2.1803e-05
17290.0 2.1652e-05
17310.0 2.1501e-05
17330.0 2.1347e-05
17350.0 2.1193e-05
17370.0 2.1043e-05
17390.0 2.089e-05
17410.0 2.0735e-05
17430.0 2.0582e-05
17450.0 2.0431e-05
17470.0 2.0274e-05
17490.0 2.012e-05
17510.0 1.9967e-05
17530.0 1.9814e-05
17550.0 1.9658e-05
17570.0 1.9506e-05
17590.0 1.9354e-05
17610.0 1.9199e-05
17630.0 1.9045e-05
17650.0 1.8894e-05
17670.0 1.8741e-05
17690.0 1.8585e-05
17710.0 1.8435e-05
17730.0 1.8284e-05
17750.0 1.8131e-05
17770.0 1.798e-05
17790.0 1.7831e-05
17810.0 1.768e-05
17830.0 1.7528e-05
17850.0 1.738e-05
17870.0 1.7231e-05
17890.0 1.7081e-05
17910.0 1.6932e-05
17930.0 1.6787e-05
17950.0 1.664e-05
17970.0 1.6492e-05
17990.0 1.6348e-05
18010.0 1.6204e-05
18030.0 1.6057e-05
18050.0 1.5913e-05
18070.0 1.5772e-05
18090.0 1.5629e-05
18110.0 1.5486e-05
18130.0 1.5346e-05
18150.0 1.5207e-05
18170.0 1.5066e-05
18190.0 1.4928e-05
18210.0 1.4792e-05
18230.0 1.4653e-05
18250.0 1.4516e-05
18270.0 1.4382e-05
18290.0 1.4248e-05
18310.0 1.4113e-05
18330.0 1.398e-05
18350.0 1.385e-05
18370.0 1.3718e-05
18390.0 1.3587e-05
18410.0 1.3459e-05
18430.0 1.3331e-05
18450.0 1.3201e-05
18470.0 1.3075e-05
18490.0 1.2951e-05
18510.0 1.2826e-05
18530.0 1.2702e-05
18550.0 1.258e-05
18570.0 1.2459e-05
18590.0 1.2336e-05
18610.0 1.2217e-05
18630.0 1.2099e-05
18650.0 1.198e-05
18670.0 1.1862e-05
18690.0 1.1748e-05
18710.0 1.1633e-05
18730.0 1.1518e-05
18750.0 1.1406e-05
18770.0 1.1295e-05
18790.0 1.1182e-05
18810.0 1.1072e-05
18830.0 1.0964e-05
18850.0 1.0856e-05
18870.0 1.0748e-05
18890.0 1.0643e-05
18910.0 1.0539e-05
18930.0 1.0434e-05
18950.0 1.033e-05
18970.0 1.0229e-05
18990.0 1.0128e-05
19010.0 1.0026e-05
19030.0 9.9279e-06
19050.0 9.8305e-06
19070.0 9.7325e-06
19090.0 9.6362e-06
19110.0 9.5427e-06
19130.0 9.4475e-06
19150.0 9.3532e-06
19170.0 9.2615e-06
19190.0 9.1706e-06
19210.0 9.0788e-06
19230.0 8.9889e-06
19250.0 8.9017e-06
19270.0 8.8136e-06
19290.0 8.7261e-06
19310.0 8.6412e-06
19330.0 8.5568e-06
19350.0 8.4708e-06
19370.0 8.3877e-06
19390.0 8.3062e-06
19410.0 8.2242e-06
19430.0 8.1425e-06
19450.0 8.0639e-06
19470.0 7.9853e-06
19490.0 7.9062e-06
19510.0 7.829e-06
19530.0 7.7535e-06
19550.0 7.6767e-06
19570.0 7.6006e-06
19590.0 7.5274e-06
19610.0 7.4542e-06
19630.0 7.3806e-06
19650.0 7.309e-06
19670.0 7.2389e-06
19690.0 7.1674e-06
19710.0 7.097e-06
19730.0 7.0287e-06
19750.0 6.9603e-06
19770.0 6.8909e-06
19790.0 6.8242e-06
19810.0 6.7586e-06
19830.0 6.6921e-06
19850.0 6.6265e-06
19870.0 6.5632e-06
19890.0 6.4992e-06
19910.0 6.4352e-06
19930.0 6.3741e-06
19950.0 6.315e-06
19970.0 6.2568e-06
19990.0 6.2017e-06
20010.0 6.1516e-06
20030.0 6.1043e-06
20050.0 6.0609e-06
20070.0 6.0228e-06
20090.0 5.989e-06
20110.0 5.9589e-06
20130.0 5.9335e-06
20150.0 5.9121e-06
20170.0 5.894e-06
20190.0 5.8793e-06
20210.0 5.8673e-06
20230.0 5.8576e-06
20250.0 5.8502e-06
20270.0 5.8442e-06
20290.0 5.8389e-06
20310.0 5.8347e-06
20330.0 5.8311e-06
20350.0 5.8265e-06
20370.0 5.8217e-06
20390.0 5.8166e-06
20410.0 5.8103e-06
20430.0 5.8029e-06
20450.0 5.7949e-06
20470.0 5.786e-06
20490.0 5.776e-06
20510.0 5.7653e-06
20530.0 5.7542e-06
20550.0 5.7426e-06
20570.0 5.7306e-06
20590.0 5.7187e-06
20610.0 5.7068e-06
20630.0 5.6947e-06
20650.0 5.6828e-06
20670.0 5.6712e-06
20690.0 5.6594e-06
20710.0 5.6473e-06
20730.0 5.635e-06
20750.0 5.6222e-06
20770.0 5.6084e-06
20790.0 5.5938e-06
20810.0 5.578e-06
20830.0 5.5605e-06
20850.0 5.5414e-06
20870.0 5.5204e-06
20890.0 5.4972e-06
20910.0 5.4719e-06
20930.0 5.4443e-06
20950.0 5.4143e-06
20970.0 5.3822e-06
20990.0 5.3481e-06
21010.0 5.3114e-06
21030.0 5.2728e-06
21050.0 5.2327e-06
21070.0 5.1907e-06
21090.0 5.1465e-06
21110.0 5.1016e-06
21130.0 5.0554e-06
21150.0 5.0073e-06
21170.0 4.958e-06
21190.0 4.9079e-06
21210.0 4.8559e-06
21230.0 4.802e-06
21250.0 4.7471e-06
21270.0 4.6905e-06
21290.0 4.6314e-06
21310.0 4.5704e-06
21330.0 4.5081e-06
21350.0 4.4427e-06
21370.0 4.3751e-06
21390.0 4.3455e-06
21410.0 4.315e-06
21430.0 4.2827e-06
21450.0 4.2497e-06
21470.0 4.2162e-06
21490.0 4.1813e-06
21510.0 4.1451e-06
21530.0 4.1087e-06
21550.0 4.0712e-06
21570.0 4.0322e-06
21590.0 3.9927e-06
21610.0 3.9526e-06
21630.0 3.9113e-06
21650.0 3.8685e-06
21670.0 3.8261e-06
21690.0 3.7825e-06
21710.0 3.7375e-06
21730.0 3.6921e-06
21750.0 3.6463e-06
21770.0 3.5987e-06
21790.0 3.5503e-06
21810.0 3.5017e-06
21830.0 3.452e-06
21850.0 3.4009e-06
21870.0 3.3495e-06
21890.0 3.2978e-06
21910.0 3.2446e-06
21930.0 3.1907e-06
21950.0 3.1367e-06
21970.0 3.0818e-06
21990.0 3.0255e-06
22010.0 2.9694e-06
22030.0 2.9131e-06
22050.0 2.8558e-06
22070.0 2.8234e-06
22090.0 2.8366e-06
22110.0 2.8498e-06
22130.0 2.863e-06
22150.0 2.8759e-06
22170.0 2.8884e-06
22190.0 2.9011e-06
22210.0 2.9135e-06
22230.0 2.9255e-06
22250.0 2.9375e-06
22270.0 2.9494e-06
22290.0 2.961e-06
22310.0 2.9726e-06
22330.0 2.9842e-06
22350.0 2.9957e-06
22370.0 3.0072e-06
22390.0 3.0187e-06
22410.0 3.0303e-06
22430.0 3.0419e-06
22450.0 3.0535e-06
22470.0 3.0654e-06
22490.0 3.0773e-06
22510.0 3.0893e-06
22530.0 3.1015e-06
22550.0 3.1139e-06
22570.0 3.1264e-06
22590.0 3.139e-06
22610.0 3.1518e-06
22630.0 3.1647e-06
22650.0 3.1777e-06
22670.0 3.1909e-06
22690.0 3.2042e-06
22710.0 3.2175e-06
22730.0 3.2311e-06
22750.0 3.2447e-06
22770.0 3.2585e-06
22790.0 3.2723e-06
22810.0 3.2863e-06
22830.0 3.3004e-06
22850.0 3.3145e-06
22870.0 3.3289e-06
22890.0 3.3434e-06
