#lamb flux
1010.0 1.0436e-09
1030.0 1.1542e-09
1050.0 1.2815e-09
1070.0 1.4247e-09
1090.0 1.5874e-09
1110.0 1.7543e-09
1130.0 1.9222e-09
1150.0 2.0982e-09
1170.0 2.2797e-09
1190.0 2.4517e-09
1210.0 2.6262e-09
1230.0 2.8064e-09
1250.0 2.983e-09
1270.0 3.1544e-09
1290.0 3.3356e-09
1310.0 3.5167e-09
1330.0 3.6904e-09
1350.0 3.866e-09
1370.0 4.0473e-09
1390.0 4.224e-09
1410.0 4.3955e-09
1430.0 4.5749e-09
1450.0 4.7542e-09
1470.0 4.9275e-09
1490.0 5.1026e-09
1510.0 5.2877e-09
1530.0 5.4631e-09
1550.0 5.6361e-09
1570.0 5.8152e-09
1590.0 5.9944e-09
1610.0 6.1657e-09
1630.0 6.3424e-09
1650.0 6.5238e-09
1670.0 6.6994e-09
1690.0 6.8728e-09
1710.0 7.0531e-09
1730.0 7.2345e-09
1750.0 7.4052e-09
1770.0 7.5812e-09
1790.0 7.7609e-09
1810.0 7.935e-09
1830.0 8.1064e-09
1850.0 8.2886e-09
1870.0 8.4663e-09
1890.0 8.6384e-09
1910.0 8.8142e-09
1930.0 8.9946e-09
1950.0 9.1673e-09
1970.0 9.3382e-09
1990.0 9.516e-09
2010.0 9.6912e-09
2030.0 9.8606e-09
2050.0 1.0036e-08
2070.0 1.0215e-08
2090.0 1.0385e-08
2110.0 1.0555e-08
2130.0 1.073e-08
2150.0 1.0903e-08
2170.0 1.1068e-08
2190.0 1.1239e-08
2210.0 1.1413e-08
2230.0 1.1579e-08
2250.0 1.1745e-08
2270.0 1.1918e-08
2290.0 1.2087e-08
2310.0 1.2248e-08
2330.0 1.2417e-08
2350.0 1.259e-08
2370.0 1.2762e-08
2390.0 1.2948e-08
2410.0 1.3169e-08
2430.0 1.3424e-08
2450.0 1.3727e-08
2470.0 1.4117e-08
2490.0 1.4607e-08
2510.0 1.5165e-08
2530.0 1.5836e-08
2550.0 1.6676e-08
2570.0 1.7721e-08
2590.0 1.9081e-08
2610.0 2.1117e-08
2630.0 2.4023e-08
2650.0 2.7823e-08
2670.0 3.2736e-08
2690.0 3.8774e-08
2710.0 4.5219e-08
2730.0 5.1588e-08
2750.0 5.786e-08
2770.0 6.3316e-08
2790.0 6.7649e-08
2810.0 7.1087e-08
2830.0 7.3774e-08
2850.0 7.5607e-08
2870.0 7.6953e-08
2890.0 7.8019e-08
2910.0 7.8869e-08
2930.0 7.9564e-08
2950.0 8.0228e-08
2970.0 8.0876e-08
2990.0 8.1485e-08
3010.0 2.3032e-06
3030.0 2.3204e-06
3050.0 2.3371e-06
3070.0 2.3513e-06
3090.0 2.3636e-06
3110.0 2.3712e-06
3130.0 2.3709e-06
3150.0 2.3603e-06
3170.0 2.3351e-06
3190.0 2.2954e-06
3210.0 2.245e-06
3230.0 2.1874e-06
3250.0 2.1305e-06
3270.0 2.0889e-06
3290.0 2.0659e-06
3310.0 2.0696e-06
3330.0 2.0996e-06
3350.0 2.1517e-06
3370.0 2.2262e-06
3390.0 2.32e-06
3410.0 2.4222e-06
3430.0 2.5369e-06
3450.0 2.6689e-06
3470.0 2.8131e-06
3490.0 2.9658e-06
3510.0 3.1385e-06
3530.0 3.3234e-06
3550.0 3.5107e-06
3570.0 3.706e-06
3590.0 3.9184e-06
3610.0 4.1373e-06
3630.0 4.3555e-06
3650.0 4.5818e-06
3670.0 4.7885e-06
3690.0 4.943e-06
3710.0 5.0315e-06
3730.0 5.0344e-06
3750.0 4.9644e-06
3770.0 4.9369e-06
3790.0 4.9075e-06
3810.0 4.7869e-06
3830.0 4.9351e-06
3850.0 5.518e-06
3870.0 5.838e-06
3890.0 5.8113e-06
3910.0 5.8361e-06
3930.0 5.9898e-06
3950.0 6.0843e-06
3970.0 5.5434e-06
3990.0 4.7698e-06
4010.0 1.4296e-05
4030.0 1.7321e-05
4050.0 1.9858e-05
4070.0 1.723e-05
4090.0 1.5605e-05
4110.0 1.377e-05
4130.0 1.2674e-05
4150.0 1.3481e-05
4170.0 1.328e-05
4190.0 1.4155e-05
4210.0 1.4026e-05
4230.0 1.4835e-05
4250.0 1.7551e-05
4270.0 1.7757e-05
4290.0 1.6363e-05
4310.0 1.7002e-05
4330.0 1.8085e-05
4350.0 2.0278e-05
4370.0 2.3077e-05
4390.0 2.1655e-05
4410.0 1.5999e-05
4430.0 1.3544e-05
4450.0 1.2446e-05
4470.0 9.5526e-06
4490.0 1.0308e-05
4510.0 1.5571e-05
4530.0 1.7958e-05
4550.0 1.8114e-05
4570.0 2.0383e-05
4590.0 2.3218e-05
4610.0 3.1315e-05
4630.0 4.0672e-05
4650.0 4.4108e-05
4670.0 4.0849e-05
4690.0 3.8977e-05
4710.0 4.1201e-05
4730.0 3.8882e-05
4750.0 2.907e-05
4770.0 2.1324e-05
4790.0 1.9912e-05
4810.0 1.8979e-05
4830.0 1.7375e-05
4850.0 1.9067e-05
4870.0 2.5189e-05
4890.0 2.9705e-05
4910.0 2.6062e-05
4930.0 2.3061e-05
4950.0 2.5336e-05
4970.0 3.2492e-05
4990.0 4.4035e-05
5010.0 5.0656e-05
5030.0 4.4667e-05
5050.0 3.022e-05
5070.0 1.9916e-05
5090.0 1.6059e-05
5110.0 1.6516e-05
5130.0 1.9062e-05
5150.0 2.0652e-05
5170.0 2.0342e-05
5190.0 1.9008e-05
5210.0 1.9868e-05
5230.0 2.0886e-05
5250.0 2.2509e-05
5270.0 2.4286e-05
5290.0 2.6914e-05
5310.0 3.1327e-05
5330.0 3.4667e-05
5350.0 3.4446e-05
5370.0 3.6182e-05
5390.0 4.152e-05
5410.0 4.1483e-05
5430.0 3.6686e-05
5450.0 3.3706e-05
5470.0 3.579e-05
5490.0 4.3725e-05
5510.0 5.4672e-05
5530.0 6.2706e-05
5550.0 6.0606e-05
5570.0 5.5096e-05
5590.0 4.7906e-05
5610.0 4.4181e-05
5630.0 4.2841e-05
5650.0 4.0803e-05
5670.0 3.8664e-05
5690.0 3.4565e-05
5710.0 3.3702e-05
5730.0 3.1045e-05
5750.0 2.1888e-05
5770.0 1.7077e-05
5790.0 1.9351e-05
5810.0 2.1851e-05
5830.0 2.6815e-05
5850.0 3.192e-05
5870.0 3.5416e-05
5890.0 3.6016e-05
5910.0 3.5334e-05
5930.0 3.3634e-05
5950.0 3.4273e-05
5970.0 3.9067e-05
5990.0 3.6733e-05
6010.0 3.0794e-05
6030.0 2.6016e-05
6050.0 2.2657e-05
6070.0 2.2533e-05
6090.0 2.4433e-05
6110.0 2.732e-05
6130.0 2.7739e-05
6150.0 2.3867e-05
6170.0 2.0995e-05
6190.0 2.3627e-05
6210.0 3.1235e-05
6230.0 4.0989e-05
6250.0 4.4397e-05
6270.0 3.8797e-05
6290.0 3.2642e-05
6310.0 2.5482e-05
6330.0 1.9524e-05
6350.0 1.7415e-05
6370.0 1.8314e-05
6390.0 2.1172e-05
6410.0 2.6106e-05
6430.0 3.0485e-05
6450.0 3.4882e-05
6470.0 3.9941e-05
6490.0 4.8246e-05
6510.0 5.3946e-05
6530.0 5.2924e-05
6550.0 4.7858e-05
6570.0 4.0627e-05
6590.0 3.6634e-05
6610.0 3.1588e-05
6630.0 2.8618e-05
6650.0 2.7052e-05
6670.0 2.628e-05
6690.0 2.3746e-05
6710.0 2.1585e-05
6730.0 1.5547e-05
6750.0 1.5414e-05
6770.0 1.6754e-05
6790.0 1.9257e-05
6810.0 1.7621e-05
6830.0 1.8144e-05
6850.0 1.6971e-05
6870.0 1.5503e-05
6890.0 1.4885e-05
6910.0 1.5862e-05
6930.0 1.4857e-05
6950.0 1.5285e-05
6970.0 1.6077e-05
6990.0 1.8249e-05
7010.0 1.8405e-05
7030.0 1.8697e-05
7050.0 1.783e-05
7070.0 1.6989e-05
7090.0 1.7039e-05
7110.0 1.7532e-05
7130.0 1.8867e-05
7150.0 2.0038e-05
7170.0 2.2111e-05
7190.0 2.4306e-05
7210.0 2.3884e-05
7230.0 2.4553e-05
7250.0 2.6386e-05
7270.0 2.8754e-05
7290.0 3.4129e-05
7310.0 3.7033e-05
7330.0 3.5795e-05
7350.0 3.2375e-05
7370.0 2.8169e-05
7390.0 2.7327e-05
7410.0 2.9041e-05
7430.0 3.2275e-05
7450.0 3.5153e-05
7470.0 3.483e-05
7490.0 3.1759e-05
7510.0 3.5975e-05
7530.0 3.5581e-05
7550.0 3.1981e-05
7570.0 2.4983e-05
7590.0 1.7175e-05
7610.0 1.4741e-05
7630.0 1.6749e-05
7650.0 1.9803e-05
7670.0 2.4646e-05
7690.0 2.7121e-05
7710.0 2.8264e-05
7730.0 2.9702e-05
7750.0 3.3343e-05
7770.0 3.3868e-05
7790.0 3.1109e-05
7810.0 2.8385e-05
7830.0 2.9272e-05
7850.0 2.8454e-05
7870.0 2.6088e-05
7890.0 2.1919e-05
7910.0 1.7817e-05
7930.0 1.7013e-05
7950.0 1.5499e-05
7970.0 1.4347e-05
7990.0 1.4265e-05
8010.0 1.0565e-06
8030.0 1.0428e-06
8050.0 1.0287e-06
8070.0 1.0422e-06
8090.0 1.1198e-06
8110.0 1.1007e-06
8130.0 9.0797e-07
8150.0 8.8425e-07
8170.0 7.6166e-07
8190.0 7.2183e-07
8210.0 9.3737e-07
8230.0 1.0436e-06
8250.0 9.4062e-07
8270.0 8.1868e-07
8290.0 7.9806e-07
8310.0 6.1422e-07
8330.0 4.1399e-07
8350.0 2.938e-07
8370.0 1.8511e-07
8390.0 3.3837e-07
8410.0 3.9429e-07
8430.0 4.8603e-07
8450.0 5.7073e-07
8470.0 7.0938e-07
8490.0 7.0438e-07
8510.0 6.9286e-07
8530.0 7.231e-07
8550.0 9.756e-07
8570.0 1.155e-06
8590.0 1.2462e-06
8610.0 1.5742e-06
8630.0 1.8964e-06
8650.0 1.9838e-06
8670.0 2.1082e-06
8690.0 2.12e-06
8710.0 1.92e-06
8730.0 1.7859e-06
8750.0 1.5764e-06
8770.0 1.4957e-06
8790.0 1.4695e-06
8810.0 1.4081e-06
8830.0 1.126e-06
8850.0 8.2429e-07
8870.0 6.3115e-07
8890.0 6.1705e-07
8910.0 7.0715e-07
8930.0 8.0433e-07
8950.0 8.1973e-07
8970.0 8.2361e-07
8990.0 7.3456e-07
9010.0 7.6978e-06
9030.0 6.9752e-06
9050.0 7.0088e-06
9070.0 7.0642e-06
9090.0 7.1127e-06
9110.0 7.1726e-06
9130.0 7.2188e-06
9150.0 7.2548e-06
9170.0 7.2931e-06
9190.0 7.334e-06
9210.0 7.3771e-06
9230.0 7.4226e-06
9250.0 7.4687e-06
9270.0 7.5166e-06
9290.0 7.566e-06
9310.0 7.6157e-06
9330.0 7.6664e-06
9350.0 7.7189e-06
9370.0 7.7721e-06
9390.0 7.8258e-06
9410.0 7.881e-06
9430.0 7.9379e-06
9450.0 7.9946e-06
9470.0 8.0525e-06
9490.0 8.112e-06
9510.0 8.1722e-06
9530.0 8.2328e-06
9550.0 8.2954e-06
9570.0 8.3592e-06
9590.0 8.4231e-06
9610.0 8.4881e-06
9630.0 8.5549e-06
9650.0 8.6222e-06
9670.0 8.6896e-06
9690.0 8.7589e-06
9710.0 8.8292e-06
9730.0 8.8997e-06
9750.0 8.9712e-06
9770.0 9.0449e-06
9790.0 9.1184e-06
9810.0 9.1923e-06
9830.0 9.2678e-06
9850.0 9.3442e-06
9870.0 9.4204e-06
9890.0 9.4978e-06
9910.0 9.5766e-06
9930.0 9.6555e-06
9950.0 9.7347e-06
9970.0 9.8154e-06
9990.0 9.897e-06
10010.0 8.588e-06
10030.0 8.6585e-06
10050.0 8.7304e-06
10070.0 8.8048e-06
10090.0 8.8749e-06
10110.0 8.9468e-06
10130.0 9.019e-06
10150.0 9.0909e-06
10170.0 9.1637e-06
10190.0 9.2377e-06
10210.0 9.3109e-06
10230.0 9.3839e-06
10250.0 9.458e-06
10270.0 9.5321e-06
10290.0 9.6052e-06
10310.0 9.6793e-06
10330.0 9.7541e-06
10350.0 9.8277e-06
10370.0 9.901e-06
10390.0 9.9752e-06
10410.0 1.0049e-05
10430.0 1.0121e-05
10450.0 1.0194e-05
10470.0 1.0268e-05
10490.0 1.034e-05
10510.0 1.0411e-05
10530.0 1.0484e-05
10550.0 1.0555e-05
10570.0 1.0626e-05
10590.0 1.0696e-05
10610.0 1.0766e-05
10630.0 1.0835e-05
10650.0 1.0903e-05
10670.0 1.0972e-05
10690.0 1.1039e-05
10710.0 1.1105e-05
10730.0 1.1171e-05
10750.0 1.1237e-05
10770.0 1.1301e-05
10790.0 1.1364e-05
10810.0 1.1427e-05
10830.0 1.1488e-05
10850.0 1.1545e-05
10870.0 1.1602e-05
10890.0 1.1651e-05
10910.0 1.1689e-05
10930.0 1.171e-05
10950.0 1.1705e-05
10970.0 1.1666e-05
10990.0 1.1588e-05
11010.0 1.1458e-05
11030.0 1.1275e-05
11050.0 1.1053e-05
11070.0 1.0788e-05
11090.0 1.0469e-05
11110.0 1.0138e-05
11130.0 9.794e-06
11150.0 9.4232e-06
11170.0 9.041e-06
11190.0 8.6702e-06
11210.0 8.2874e-06
11230.0 7.8948e-06
11250.0 7.5196e-06
11270.0 7.1594e-06
11290.0 6.7984e-06
11310.0 6.4566e-06
11330.0 6.1554e-06
11350.0 5.871e-06
11370.0 5.6081e-06
11390.0 5.3807e-06
11410.0 5.1818e-06
11430.0 4.9969e-06
11450.0 4.8377e-06
11470.0 4.6999e-06
11490.0 4.5718e-06
11510.0 4.4483e-06
11530.0 4.3337e-06
11550.0 4.2199e-06
11570.0 4.0984e-06
11590.0 3.9727e-06
11610.0 3.8447e-06
11630.0 3.7054e-06
11650.0 3.5562e-06
11670.0 3.4092e-06
11690.0 3.2601e-06
11710.0 3.1063e-06
11730.0 2.9573e-06
11750.0 2.8194e-06
11770.0 2.6841e-06
11790.0 2.5574e-06
11810.0 2.4458e-06
11830.0 2.346e-06
11850.0 2.2541e-06
11870.0 2.1772e-06
11890.0 2.1133e-06
11910.0 2.0571e-06
11930.0 2.0088e-06
11950.0 1.9686e-06
11970.0 1.9327e-06
11990.0 1.8988e-06
12010.0 1.8674e-06
12030.0 1.8371e-06
12050.0 1.8058e-06
12070.0 1.7733e-06
12090.0 1.7419e-06
12110.0 1.71e-06
12130.0 1.6781e-06
12150.0 1.6487e-06
12170.0 1.623e-06
12190.0 1.6008e-06
12210.0 1.5853e-06
12230.0 1.5778e-06
12250.0 1.579e-06
12270.0 1.5909e-06
12290.0 1.6134e-06
12310.0 1.6457e-06
12330.0 1.6909e-06
12350.0 1.7473e-06
12370.0 1.8114e-06
12390.0 1.8855e-06
12410.0 1.9722e-06
12430.0 2.0603e-06
12450.0 2.1516e-06
12470.0 2.2486e-06
12490.0 2.3461e-06
12510.0 2.4375e-06
12530.0 2.5285e-06
12550.0 2.6162e-06
12570.0 2.6937e-06
12590.0 2.7617e-06
12610.0 2.8223e-06
12630.0 2.8706e-06
12650.0 2.904e-06
12670.0 2.9259e-06
12690.0 2.9347e-06
12710.0 2.9298e-06
12730.0 2.9128e-06
12750.0 2.8825e-06
12770.0 2.841e-06
12790.0 2.7905e-06
12810.0 2.7303e-06
12830.0 2.6607e-06
12850.0 2.5878e-06
12870.0 2.5108e-06
12890.0 2.4274e-06
12910.0 2.3427e-06
12930.0 2.2592e-06
12950.0 2.172e-06
12970.0 2.0833e-06
12990.0 1.9994e-06
13010.0 1.9165e-06
13030.0 1.8327e-06
13050.0 1.7523e-06
13070.0 1.6769e-06
13090.0 1.6012e-06
13110.0 1.528e-06
13130.0 1.4605e-06
13150.0 1.3966e-06
13170.0 1.334e-06
13190.0 1.2783e-06
13210.0 1.2293e-06
13230.0 1.1845e-06
13250.0 1.1459e-06
13270.0 1.1155e-06
13290.0 1.0918e-06
13310.0 1.0755e-06
13330.0 1.0681e-06
13350.0 1.069e-06
13370.0 1.0785e-06
13390.0 1.0974e-06
13410.0 1.1228e-06
13430.0 1.1559e-06
13450.0 1.1968e-06
13470.0 1.2422e-06
13490.0 1.2902e-06
13510.0 1.3444e-06
13530.0 1.3994e-06
13550.0 1.452e-06
13570.0 1.5038e-06
13590.0 1.5543e-06
13610.0 1.5993e-06
13630.0 1.6385e-06
13650.0 1.6744e-06
13670.0 1.7041e-06
13690.0 1.7271e-06
13710.0 1.7449e-06
13730.0 1.7576e-06
13750.0 1.764e-06
13770.0 1.7654e-06
13790.0 1.7622e-06
13810.0 1.7544e-06
13830.0 1.7429e-06
13850.0 1.7274e-06
13870.0 1.7077e-06
13890.0 1.6853e-06
13910.0 1.66e-06
13930.0 1.6306e-06
13950.0 1.5987e-06
13970.0 1.566e-06
13990.0 1.5303e-06
14010.0 1.4924e-06
14030.0 1.4547e-06
14050.0 1.4166e-06
14070.0 1.3764e-06
14090.0 1.3379e-06
14110.0 1.3017e-06
14130.0 1.2666e-06
14150.0 1.2336e-06
14170.0 1.2054e-06
14190.0 1.181e-06
14210.0 1.1603e-06
14230.0 1.145e-06
14250.0 1.1351e-06
14270.0 1.1303e-06
14290.0 1.1313e-06
14310.0 1.1376e-06
14330.0 1.149e-06
14350.0 1.1656e-06
14370.0 1.1864e-06
14390.0 1.21e-06
14410.0 1.2377e-06
14430.0 1.2682e-06
14450.0 1.2994e-06
14470.0 1.3317e-06
14490.0 1.366e-06
14510.0 1.3989e-06
14530.0 1.4301e-06
14550.0 1.4613e-06
14570.0 1.4912e-06
14590.0 1.5185e-06
14610.0 1.5449e-06
14630.0 1.571e-06
14650.0 1.5953e-06
14670.0 1.6187e-06
14690.0 1.6432e-06
14710.0 1.6689e-06
14730.0 1.6947e-06
14750.0 1.7232e-06
14770.0 1.7555e-06
14790.0 1.7905e-06
14810.0 1.8285e-06
14830.0 1.8735e-06
14850.0 1.9224e-06
14870.0 1.9734e-06
14890.0 2.0285e-06
14910.0 2.087e-06
14930.0 2.1432e-06
14950.0 2.1957e-06
14970.0 2.2454e-06
14990.0 2.2871e-06
15010.0 2.319e-06
15030.0 2.3426e-06
15050.0 2.3583e-06
15070.0 2.3659e-06
15090.0 2.3686e-06
15110.0 2.3678e-06
15130.0 2.3648e-06
15150.0 2.3608e-06
15170.0 2.3561e-06
15190.0 2.351e-06
15210.0 2.346e-06
15230.0 2.341e-06
15250.0 2.3359e-06
15270.0 2.3307e-06
15290.0 2.3259e-06
15310.0 2.3209e-06
15330.0 2.3159e-06
15350.0 2.3111e-06
15370.0 2.3063e-06
15390.0 2.3013e-06
15410.0 2.2964e-06
15430.0 2.2917e-06
15450.0 2.2869e-06
15470.0 2.282e-06
15490.0 2.2773e-06
15510.0 2.2727e-06
15530.0 2.2679e-06
15550.0 2.2632e-06
15570.0 2.2586e-06
15590.0 2.2539e-06
15610.0 2.2491e-06
15630.0 2.2446e-06
15650.0 2.2401e-06
15670.0 2.2354e-06
15690.0 2.2308e-06
15710.0 2.2264e-06
15730.0 2.2218e-06
15750.0 2.2172e-06
15770.0 2.2127e-06
15790.0 2.2083e-06
15810.0 2.2036e-06
15830.0 2.1991e-06
15850.0 2.1948e-06
15870.0 2.1902e-06
15890.0 2.1857e-06
15910.0 2.1814e-06
15930.0 2.177e-06
15950.0 2.1724e-06
15970.0 2.168e-06
15990.0 2.1636e-06
16010.0 2.1591e-06
16030.0 2.1546e-06
16050.0 2.1503e-06
16070.0 2.146e-06
16090.0 2.1414e-06
16110.0 2.1371e-06
16130.0 2.1328e-06
16150.0 2.1283e-06
16170.0 2.1238e-06
16190.0 2.1195e-06
16210.0 2.1151e-06
16230.0 2.1106e-06
16250.0 2.1062e-06
16270.0 2.102e-06
16290.0 2.0975e-06
16310.0 2.093e-06
16330.0 2.0887e-06
16350.0 2.0843e-06
16370.0 2.0797e-06
16390.0 2.0754e-06
16410.0 2.071e-06
16430.0 2.0665e-06
16450.0 2.0621e-06
16470.0 2.0578e-06
16490.0 2.0533e-06
16510.0 2.0487e-06
16530.0 2.0444e-06
16550.0 2.04e-06
16570.0 2.0354e-06
16590.0 2.0308e-06
16610.0 2.0265e-06
16630.0 2.022e-06
16650.0 2.0174e-06
16670.0 2.013e-06
16690.0 2.0086e-06
16710.0 2.0039e-06
16730.0 1.9993e-06
16750.0 1.9949e-06
16770.0 1.9903e-06
16790.0 1.9856e-06
16810.0 1.9812e-06
16830.0 1.9767e-06
16850.0 1.972e-06
16870.0 1.9674e-06
16890.0 1.9629e-06
16910.0 1.9582e-06
16930.0 1.9534e-06
16950.0 1.9489e-06
16970.0 1.9443e-06
16990.0 1.9395e-06
17010.0 1.9348e-06
17030.0 1.9303e-06
17050.0 1.9255e-06
17070.0 1.9207e-06
17090.0 1.9161e-06
17110.0 1.9114e-06
17130.0 1.9064e-06
17150.0 1.9017e-06
17170.0 1.8971e-06
17190.0 1.8922e-06
17210.0 1.8874e-06
17230.0 1.8827e-06
17250.0 1.8779e-06
17270.0 1.8729e-06
17290.0 1.8681e-06
17310.0 1.8633e-06
17330.0 1.8584e-06
17350.0 1.8534e-06
17370.0 1.8486e-06
17390.0 1.8438e-06
17410.0 1.8387e-06
17430.0 1.8339e-06
17450.0 1.829e-06
17470.0 1.8239e-06
17490.0 1.8189e-06
17510.0 1.814e-06
17530.0 1.809e-06
17550.0 1.8039e-06
17570.0 1.7989e-06
17590.0 1.794e-06
17610.0 1.7889e-06
17630.0 1.7838e-06
17650.0 1.7789e-06
17670.0 1.7738e-06
17690.0 1.7684e-06
17710.0 1.7635e-06
17730.0 1.7584e-06
17750.0 1.7532e-06
17770.0 1.7481e-06
17790.0 1.7431e-06
17810.0 1.7379e-06
17830.0 1.7326e-06
17850.0 1.7275e-06
17870.0 1.7224e-06
17890.0 1.717e-06
17910.0 1.7118e-06
17930.0 1.7067e-06
17950.0 1.7015e-06
17970.0 1.6962e-06
17990.0 1.691e-06
18010.0 1.6859e-06
18030.0 1.6804e-06
18050.0 1.6751e-06
18070.0 1.67e-06
18090.0 1.6646e-06
18110.0 1.6592e-06
18130.0 1.654e-06
18150.0 1.6488e-06
18170.0 1.6433e-06
18190.0 1.638e-06
18210.0 1.6328e-06
18230.0 1.6274e-06
18250.0 1.6219e-06
18270.0 1.6166e-06
18290.0 1.6113e-06
18310.0 1.6058e-06
18330.0 1.6005e-06
18350.0 1.5952e-06
18370.0 1.5897e-06
18390.0 1.5843e-06
18410.0 1.579e-06
18430.0 1.5736e-06
18450.0 1.568e-06
18470.0 1.5626e-06
18490.0 1.5573e-06
18510.0 1.5518e-06
18530.0 1.5463e-06
18550.0 1.541e-06
18570.0 1.5355e-06
18590.0 1.5299e-06
18610.0 1.5245e-06
18630.0 1.5191e-06
18650.0 1.5136e-06
18670.0 1.508e-06
18690.0 1.5027e-06
18710.0 1.4972e-06
18730.0 1.4917e-06
18750.0 1.4862e-06
18770.0 1.4809e-06
18790.0 1.4752e-06
18810.0 1.4696e-06
18830.0 1.4643e-06
18850.0 1.4588e-06
18870.0 1.4531e-06
18890.0 1.4477e-06
18910.0 1.4423e-06
18930.0 1.4367e-06
18950.0 1.4312e-06
18970.0 1.4258e-06
18990.0 1.4203e-06
19010.0 1.4145e-06
19030.0 1.4092e-06
19050.0 1.4037e-06
19070.0 1.3981e-06
19090.0 1.3926e-06
19110.0 1.3873e-06
19130.0 1.3816e-06
19150.0 1.376e-06
19170.0 1.3706e-06
19190.0 1.3651e-06
19210.0 1.3595e-06
19230.0 1.3539e-06
19250.0 1.3486e-06
19270.0 1.343e-06
19290.0 1.3374e-06
19310.0 1.332e-06
19330.0 1.3266e-06
19350.0 1.3209e-06
19370.0 1.3154e-06
19390.0 1.31e-06
19410.0 1.3044e-06
19430.0 1.2988e-06
19450.0 1.2934e-06
19470.0 1.288e-06
19490.0 1.2824e-06
19510.0 1.2769e-06
19530.0 1.2715e-06
19550.0 1.2659e-06
19570.0 1.2603e-06
19590.0 1.2549e-06
19610.0 1.2495e-06
19630.0 1.2439e-06
19650.0 1.2384e-06
19670.0 1.2331e-06
19690.0 1.2275e-06
19710.0 1.2219e-06
19730.0 1.2166e-06
19750.0 1.2111e-06
19770.0 1.2055e-06
19790.0 1.2e-06
19810.0 1.1947e-06
19830.0 1.1891e-06
19850.0 1.1836e-06
19870.0 1.1781e-06
19890.0 1.1722e-06
19910.0 1.1657e-06
19930.0 1.1588e-06
19950.0 1.1509e-06
19970.0 1.1412e-06
19990.0 1.1294e-06
20010.0 1.0048e-06
20030.0 9.903e-07
20050.0 9.7328e-07
20070.0 9.5484e-07
20090.0 9.35e-07
20110.0 9.1256e-07
20130.0 8.8984e-07
20150.0 8.6733e-07
20170.0 8.4399e-07
20190.0 8.2031e-07
20210.0 7.9795e-07
20230.0 7.7614e-07
20250.0 7.5428e-07
20270.0 7.3399e-07
20290.0 7.1547e-07
20310.0 6.9787e-07
20330.0 6.8142e-07
20350.0 6.6777e-07
20370.0 6.5565e-07
20390.0 6.4502e-07
20410.0 6.3644e-07
20430.0 6.2982e-07
20450.0 6.2458e-07
20470.0 6.2107e-07
20490.0 6.1918e-07
20510.0 6.1864e-07
20530.0 6.194e-07
20550.0 6.2131e-07
20570.0 6.241e-07
20590.0 6.2786e-07
20610.0 6.3242e-07
20630.0 6.3745e-07
20650.0 6.4307e-07
20670.0 6.4949e-07
20690.0 6.5604e-07
20710.0 6.6282e-07
20730.0 6.7012e-07
20750.0 6.7775e-07
20770.0 6.8524e-07
20790.0 6.9312e-07
20810.0 7.0145e-07
20830.0 7.0974e-07
20850.0 7.1807e-07
20870.0 7.2698e-07
20890.0 7.3607e-07
20910.0 7.4485e-07
20930.0 7.5394e-07
20950.0 7.6337e-07
20970.0 7.7256e-07
20990.0 7.8163e-07
21010.0 7.9117e-07
21030.0 8.0049e-07
21050.0 8.0939e-07
21070.0 8.1827e-07
21090.0 8.2718e-07
21110.0 8.3531e-07
21130.0 8.4294e-07
21150.0 8.5034e-07
21170.0 8.5703e-07
21190.0 8.628e-07
21210.0 8.6798e-07
21230.0 8.7229e-07
21250.0 8.7536e-07
21270.0 8.7731e-07
21290.0 8.7804e-07
21310.0 8.7734e-07
21330.0 8.7527e-07
21350.0 8.7163e-07
21370.0 8.6629e-07
21390.0 8.5951e-07
21410.0 8.5121e-07
21430.0 8.4069e-07
21450.0 8.2888e-07
21470.0 8.1602e-07
21490.0 8.0147e-07
21510.0 7.8552e-07
21530.0 7.6931e-07
21550.0 7.5232e-07
21570.0 7.3421e-07
21590.0 7.164e-07
21610.0 6.9919e-07
21630.0 6.8196e-07
21650.0 6.6512e-07
21670.0 6.5053e-07
21690.0 6.3708e-07
21710.0 6.2496e-07
21730.0 6.1503e-07
21750.0 6.0737e-07
21770.0 6.0154e-07
21790.0 5.9818e-07
21810.0 5.9725e-07
21830.0 5.9858e-07
21850.0 6.0232e-07
21870.0 6.0815e-07
21890.0 6.1569e-07
21910.0 6.2536e-07
21930.0 6.367e-07
21950.0 6.4898e-07
21970.0 6.6259e-07
21990.0 6.7787e-07
22010.0 6.9313e-07
22030.0 7.0863e-07
22050.0 7.2492e-07
22070.0 7.4129e-07
22090.0 7.5679e-07
22110.0 7.7242e-07
22130.0 7.8802e-07
22150.0 8.0259e-07
22170.0 8.1633e-07
22190.0 8.2994e-07
22210.0 8.4261e-07
22230.0 8.5376e-07
22250.0 8.6426e-07
22270.0 8.7392e-07
22290.0 8.8219e-07
22310.0 8.8928e-07
22330.0 8.9553e-07
22350.0 9.0035e-07
22370.0 9.0376e-07
22390.0 9.0589e-07
22410.0 9.0656e-07
22430.0 9.057e-07
22450.0 9.0336e-07
22470.0 8.9933e-07
22490.0 8.9367e-07
22510.0 8.8661e-07
22530.0 8.7758e-07
22550.0 8.6659e-07
22570.0 8.5441e-07
22590.0 8.4067e-07
22610.0 8.2486e-07
22630.0 8.0774e-07
