#lamb flux
1010.0 3.6567e-06
1030.0 3.9688e-06
1050.0 4.3282e-06
1070.0 4.733e-06
1090.0 5.1928e-06
1110.0 5.6647e-06
1130.0 6.14e-06
1150.0 6.6383e-06
1170.0 7.1527e-06
1190.0 7.641e-06
1210.0 8.1364e-06
1230.0 8.6489e-06
1250.0 9.1517e-06
1270.0 9.6407e-06
1290.0 1.0158e-05
1310.0 1.0675e-05
1330.0 1.1173e-05
1350.0 1.1676e-05
1370.0 1.2197e-05
1390.0 1.2706e-05
1410.0 1.32e-05
1430.0 1.3718e-05
1450.0 1.4237e-05
1470.0 1.4739e-05
1490.0 1.5247e-05
1510.0 1.5785e-05
1530.0 1.6295e-05
1550.0 1.68e-05
1570.0 1.7321e-05
1590.0 1.7844e-05
1610.0 1.8344e-05
1630.0 1.886e-05
1650.0 1.9388e-05
1670.0 1.9899e-05
1690.0 2.0403e-05
1710.0 2.0926e-05
1730.0 2.1449e-05
1750.0 2.1941e-05
1770.0 2.2445e-05
1790.0 2.2956e-05
1810.0 2.3449e-05
1830.0 2.3929e-05
1850.0 2.4437e-05
1870.0 2.4926e-05
1890.0 2.5395e-05
1910.0 2.5868e-05
1930.0 2.6349e-05
1950.0 2.68e-05
1970.0 2.724e-05
1990.0 2.7691e-05
2010.0 2.8127e-05
2030.0 2.8539e-05
2050.0 2.8957e-05
2070.0 2.938e-05
2090.0 2.9765e-05
2110.0 3.0141e-05
2130.0 3.0522e-05
2150.0 3.0884e-05
2170.0 3.1217e-05
2190.0 3.1557e-05
2210.0 3.189e-05
2230.0 3.2194e-05
2250.0 3.2485e-05
2270.0 3.2787e-05
2290.0 3.3063e-05
2310.0 3.3309e-05
2330.0 3.3559e-05
2350.0 3.3802e-05
2370.0 3.4015e-05
2390.0 3.4223e-05
2410.0 3.4442e-05
2430.0 3.4642e-05
2450.0 3.483e-05
2470.0 3.504e-05
2490.0 3.5293e-05
2510.0 3.5599e-05
2530.0 3.6101e-05
2550.0 3.7025e-05
2570.0 3.8605e-05
2590.0 4.1109e-05
2610.0 4.5244e-05
2630.0 5.1163e-05
2650.0 5.852e-05
2670.0 6.737e-05
2690.0 7.7357e-05
2710.0 8.7068e-05
2730.0 9.5835e-05
2750.0 0.00010381
2770.0 0.00011024
2790.0 0.00011508
2810.0 0.00011894
2830.0 0.00012227
2850.0 0.00012494
2870.0 0.00012741
2890.0 0.00012995
2910.0 0.00013252
2930.0 0.00013496
2950.0 0.00013758
2970.0 0.00014032
2990.0 0.00014298
3010.0 0.00098117
3030.0 0.001
3050.0 0.0010184
3070.0 0.001034
3090.0 0.001047
3110.0 0.0010533
3130.0 0.0010483
3150.0 0.0010278
3170.0 0.0009837
3190.0 0.00091559
3210.0 0.00082625
3230.0 0.00072748
3250.0 0.00080301
3270.0 0.00070432
3290.0 0.00090824
3310.0 0.00069403
3330.0 0.00070202
3350.0 0.00074422
3370.0 0.0007972
3390.0 0.00085757
3410.0 0.00091895
3430.0 0.00098407
3450.0 0.0010517
3470.0 0.0011166
3490.0 0.0011707
3510.0 0.0012848
3530.0 0.0014619
3550.0 0.0014732
3570.0 0.0013923
3590.0 0.0016101
3610.0 0.001405
3630.0 0.0017361
3650.0 0.0019041
3670.0 0.0021685
3690.0 0.0020974
3710.0 0.0017499
3730.0 0.0019289
3750.0 0.0019422
3770.0 0.0020973
3790.0 0.0022085
3810.0 0.0024933
3830.0 0.0035044
3850.0 0.004386
3870.0 0.0052202
3890.0 0.0053989
3910.0 0.00518
3930.0 0.0052307
3950.0 0.0054725
3970.0 0.0050966
3990.0 0.0031005
4010.0 0.0020965
4030.0 0.0034558
4050.0 0.0046975
4070.0 0.0044478
4090.0 0.0026496
4110.0 0.0020949
4130.0 0.003444
4150.0 0.0038642
4170.0 0.0032275
4190.0 0.0027073
4210.0 0.0038847
4230.0 0.0035726
4250.0 0.0034451
4270.0 0.0034301
4290.0 0.0030906
4310.0 0.0037483
4330.0 0.0043225
4350.0 0.0044536
4370.0 0.0041124
4390.0 0.004326
4410.0 0.0040683
4430.0 0.003054
4450.0 0.0024004
4470.0 0.0028562
4490.0 0.0027019
4510.0 0.0038916
4530.0 0.0040036
4550.0 0.0040773
4570.0 0.0050879
4590.0 0.005912
4610.0 0.0070008
4630.0 0.0093022
4650.0 0.010246
4670.0 0.01038
4690.0 0.0099492
4710.0 0.0098757
4730.0 0.0087421
4750.0 0.0064558
4770.0 0.0052422
4790.0 0.0041293
4810.0 0.0044414
4830.0 0.0051042
4850.0 0.0051606
4870.0 0.0046369
4890.0 0.00634
4910.0 0.0065174
4930.0 0.0070612
4950.0 0.0082907
4970.0 0.0085665
4990.0 0.0097439
5010.0 0.010098
5030.0 0.0093109
5050.0 0.0074509
5070.0 0.0053722
5090.0 0.0045254
5110.0 0.0045876
5130.0 0.0047987
5150.0 0.0045543
5170.0 0.0043826
5190.0 0.0046275
5210.0 0.0047586
5230.0 0.0052329
5250.0 0.0056135
5270.0 0.0053969
5290.0 0.0062377
5310.0 0.0078014
5330.0 0.008528
5350.0 0.0080227
5370.0 0.0080773
5390.0 0.0087365
5410.0 0.0087591
5430.0 0.0085031
5450.0 0.0088411
5470.0 0.0097818
5490.0 0.011633
5510.0 0.013931
5530.0 0.014515
5550.0 0.014486
5570.0 0.014271
5590.0 0.013665
5610.0 0.012937
5630.0 0.013004
5650.0 0.013491
5670.0 0.01304
5690.0 0.011815
5710.0 0.011642
5730.0 0.010769
5750.0 0.0096067
5770.0 0.0085536
5790.0 0.0090704
5810.0 0.009701
5830.0 0.010693
5850.0 0.010538
5870.0 0.010315
5890.0 0.010598
5910.0 0.0097873
5930.0 0.0090322
5950.0 0.0090496
5970.0 0.0094469
5990.0 0.0083378
6010.0 0.007051
6030.0 0.0061305
6050.0 0.0055482
6070.0 0.0052309
6090.0 0.0055901
6110.0 0.0061972
6130.0 0.0062254
6150.0 0.0062791
6170.0 0.006587
6190.0 0.0071081
6210.0 0.0081685
6230.0 0.0095151
6250.0 0.0088712
6270.0 0.0077713
6290.0 0.0067068
6310.0 0.0055606
6330.0 0.0048895
6350.0 0.0046922
6370.0 0.0050106
6390.0 0.005591
6410.0 0.0067043
6430.0 0.0082355
6450.0 0.0095508
6470.0 0.010583
6490.0 0.012053
6510.0 0.013138
6530.0 0.012692
6550.0 0.012141
6570.0 0.012254
6590.0 0.012246
6610.0 0.012139
6630.0 0.01142
6650.0 0.01031
6670.0 0.0099621
6690.0 0.0097664
6710.0 0.009891
6730.0 0.0086502
6750.0 0.0074258
6770.0 0.0072989
6790.0 0.0077842
6810.0 0.0087033
6830.0 0.0088203
6850.0 0.0081072
6870.0 0.0080767
6890.0 0.0079687
6910.0 0.0075059
6930.0 0.0076105
6950.0 0.0074486
6970.0 0.0073471
6990.0 0.007562
7010.0 0.0080307
7030.0 0.0079065
7050.0 0.0072668
7070.0 0.0069733
7090.0 0.0061621
7110.0 0.0053383
7130.0 0.0052578
7150.0 0.0055814
7170.0 0.0060911
7190.0 0.0061218
7210.0 0.0059447
7230.0 0.0065192
7250.0 0.0070302
7270.0 0.0072914
7290.0 0.0074553
7310.0 0.0074566
7330.0 0.0070234
7350.0 0.0065122
7370.0 0.0060651
7390.0 0.0059444
7410.0 0.0065219
7430.0 0.0075428
7450.0 0.0082825
7470.0 0.0090549
7490.0 0.010486
7510.0 0.010335
7530.0 0.0086419
7550.0 0.0075012
7570.0 0.0062884
7590.0 0.0054972
7610.0 0.0053423
7630.0 0.0053043
7650.0 0.0057462
7670.0 0.0065352
7690.0 0.0071727
7710.0 0.0081747
7730.0 0.0084888
7750.0 0.0087872
7770.0 0.0094144
7790.0 0.0097966
7810.0 0.0096509
7830.0 0.0088702
7850.0 0.0088004
7870.0 0.0085688
7890.0 0.0081936
7910.0 0.0075923
7930.0 0.0071889
7950.0 0.0060193
7970.0 0.0058127
7990.0 0.0058401
8010.0 0.0067816
8030.0 0.0067948
8050.0 0.0071672
8070.0 0.0069772
8090.0 0.0069972
8110.0 0.006874
8130.0 0.0066149
8150.0 0.0061433
8170.0 0.0060816
8190.0 0.0061355
8210.0 0.0062012
8230.0 0.0056001
8250.0 0.0051895
8270.0 0.0045767
8290.0 0.0038429
8310.0 0.0032221
8330.0 0.0024256
8350.0 0.0018883
8370.0 0.0017676
8390.0 0.0018073
8410.0 0.0020096
8430.0 0.0025707
8450.0 0.0028327
8470.0 0.0030594
8490.0 0.0034879
8510.0 0.0037801
8530.0 0.0042331
8550.0 0.0050099
8570.0 0.0055943
8590.0 0.005977
8610.0 0.0067825
8630.0 0.0078182
8650.0 0.008129
8670.0 0.0083014
8690.0 0.0084369
8710.0 0.0082239
8730.0 0.0078986
8750.0 0.0073063
8770.0 0.0072467
8790.0 0.0070721
8810.0 0.0065241
8830.0 0.006348
8850.0 0.0056445
8870.0 0.0052833
8890.0 0.0047941
8910.0 0.0053523
8930.0 0.004939
8950.0 0.0050076
8970.0 0.0051274
8990.0 0.0050399
9010.0 0.0051332
9030.0 0.0048978
9050.0 0.00488
9070.0 0.004885
9090.0 0.0048896
9110.0 0.0048974
9130.0 0.0049016
9150.0 0.0049038
9170.0 0.0048958
9190.0 0.0048735
9210.0 0.0049408
9230.0 0.0049285
9250.0 0.0049242
9270.0 0.0049218
9290.0 0.0049208
9310.0 0.0049207
9330.0 0.0049209
9350.0 0.0049216
9370.0 0.0049224
9390.0 0.0049229
9410.0 0.0049235
9430.0 0.0049243
9450.0 0.0049246
9470.0 0.004925
9490.0 0.0049255
9510.0 0.0049258
9530.0 0.004926
9550.0 0.0049266
9570.0 0.0049273
9590.0 0.0049277
9610.0 0.0049283
9630.0 0.0049292
9650.0 0.0049301
9670.0 0.0049308
9690.0 0.004932
9710.0 0.0049334
9730.0 0.0049346
9750.0 0.004936
9770.0 0.0049381
9790.0 0.00494
9810.0 0.0049419
9830.0 0.0049443
9850.0 0.004947
9870.0 0.0049494
9890.0 0.0049522
9910.0 0.0049555
9930.0 0.0049588
9950.0 0.0049572
9970.0 0.0049626
9990.0 0.004968
10010.0 0.0049727
10030.0 0.0049776
10050.0 0.0049806
10070.0 0.0049729
10090.0 0.0049821
10110.0 0.0049912
10130.0 0.0049992
10150.0 0.0050066
10170.0 0.0050134
10190.0 0.0050194
10210.0 0.0050258
10230.0 0.0050323
10250.0 0.0050385
10270.0 0.0050448
10290.0 0.0050516
10310.0 0.0050582
10330.0 0.0050646
10350.0 0.0050715
10370.0 0.0050785
10390.0 0.0050852
10410.0 0.0050921
10430.0 0.0050994
10450.0 0.0051064
10470.0 0.0051133
10490.0 0.0051205
10510.0 0.0051277
10530.0 0.0051345
10550.0 0.0051414
10570.0 0.0051486
10590.0 0.0051555
10610.0 0.0051622
10630.0 0.0051692
10650.0 0.005176
10670.0 0.0051825
10690.0 0.005189
10710.0 0.0051956
10730.0 0.0052018
10750.0 0.0052078
10770.0 0.005214
10790.0 0.00522
10810.0 0.0052256
10830.0 0.0052309
10850.0 0.0052358
10870.0 0.0052389
10890.0 0.0052396
10910.0 0.0052364
10930.0 0.0052262
10950.0 0.0052043
10970.0 0.0051685
10990.0 0.0051174
11010.0 0.0052291
11030.0 0.0051254
11050.0 0.0050054
11070.0 0.0048676
11090.0 0.0047084
11110.0 0.0045505
11130.0 0.0043931
11150.0 0.0042324
11170.0 0.0040773
11190.0 0.0039372
11210.0 0.0038035
11230.0 0.0036782
11250.0 0.0035693
11270.0 0.0034742
11290.0 0.0033873
11310.0 0.0033121
11330.0 0.0032503
11350.0 0.0031943
11370.0 0.0031426
11390.0 0.0030959
11410.0 0.003051
11430.0 0.0030029
11450.0 0.0029532
11470.0 0.0029016
11490.0 0.0028449
11510.0 0.0027817
11530.0 0.0027169
11550.0 0.0026492
11570.0 0.0025759
11590.0 0.0025014
11610.0 0.0024283
11630.0 0.0023528
11650.0 0.0022765
11670.0 0.0022055
11690.0 0.0021371
11710.0 0.0020694
11730.0 0.0020058
11750.0 0.0019478
11770.0 0.0018909
11790.0 0.0018365
11810.0 0.0017865
11830.0 0.0017389
11850.0 0.001691
11870.0 0.0016461
11890.0 0.0016037
11910.0 0.0015609
11930.0 0.001518
11950.0 0.0014769
11970.0 0.0014356
11990.0 0.0013927
12010.0 0.0013511
12030.0 0.0013106
12050.0 0.0012696
12070.0 0.0012289
12090.0 0.0011921
12110.0 0.0011568
12130.0 0.0011234
12150.0 0.0010941
12170.0 0.0010694
12190.0 0.0010481
12210.0 0.0010324
12230.0 0.0010227
12250.0 0.0010188
12270.0 0.0010212
12290.0 0.0010297
12310.0 0.0010436
12330.0 0.0010637
12350.0 0.001089
12370.0 0.0011174
12390.0 0.0011494
12410.0 0.0011857
12430.0 0.0012211
12450.0 0.001256
12470.0 0.0012912
12490.0 0.0013244
12510.0 0.0013534
12530.0 0.0013802
12550.0 0.0014038
12570.0 0.0014225
12590.0 0.001437
12610.0 0.0014479
12630.0 0.0014545
12650.0 0.0014568
12670.0 0.0014558
12690.0 0.0014515
12710.0 0.0014444
12730.0 0.0014348
12750.0 0.0014226
12770.0 0.0014084
12790.0 0.001393
12810.0 0.0013759
12830.0 0.0013568
12850.0 0.0013372
12870.0 0.0013164
12890.0 0.0012936
12910.0 0.0012695
12930.0 0.0012447
12950.0 0.0012174
12970.0 0.0011879
12990.0 0.0011581
13010.0 0.001127
13030.0 0.0010937
13050.0 0.00106
13070.0 0.0010272
13090.0 0.00099327
13110.0 0.00095972
13130.0 0.00092852
13150.0 0.00089903
13170.0 0.00087056
13190.0 0.00084594
13210.0 0.00082511
13230.0 0.00080701
13250.0 0.00079242
13270.0 0.00078182
13290.0 0.00077434
13310.0 0.00076982
13330.0 0.00076822
13350.0 0.0007688
13370.0 0.00077114
13390.0 0.00077474
13410.0 0.00077861
13430.0 0.00078258
13450.0 0.00078623
13470.0 0.00078893
13490.0 0.00079053
13510.0 0.00079099
13530.0 0.00079011
13550.0 0.00078807
13570.0 0.00078503
13590.0 0.00078111
13610.0 0.00077678
13630.0 0.00077232
13650.0 0.00076771
13670.0 0.00076334
13690.0 0.00075945
13710.0 0.00075595
13730.0 0.00075285
13750.0 0.00075031
13770.0 0.00074809
13790.0 0.00074603
13810.0 0.000744
13830.0 0.00074185
13850.0 0.00073933
13870.0 0.00073626
13890.0 0.00073262
13910.0 0.00072834
13930.0 0.0007232
13950.0 0.00071738
13970.0 0.00071128
13990.0 0.00070464
14010.0 0.0006977
14030.0 0.00069096
14050.0 0.00068446
14070.0 0.00067805
14090.0 0.00067234
14110.0 0.00066739
14130.0 0.00066303
14150.0 0.00065934
14170.0 0.00065648
14190.0 0.00065427
14210.0 0.00065269
14230.0 0.00065177
14250.0 0.00065145
14270.0 0.00065182
14290.0 0.00065294
14310.0 0.00065467
14330.0 0.00065712
14350.0 0.00066045
14370.0 0.00066444
14390.0 0.0006689
14410.0 0.00067422
14430.0 0.00068012
14450.0 0.00068623
14470.0 0.00069273
14490.0 0.00069995
14510.0 0.00070719
14530.0 0.00071453
14550.0 0.00072258
14570.0 0.00073127
14590.0 0.00074026
14610.0 0.00075031
14630.0 0.00076197
14650.0 0.00077455
14670.0 0.00078831
14690.0 0.00080416
14710.0 0.00082198
14730.0 0.00084023
14750.0 0.00086031
14770.0 0.00088226
14790.0 0.00090459
14810.0 0.00092696
14830.0 0.00095109
14850.0 0.00097459
14870.0 0.00099648
14890.0 0.0010176
14910.0 0.0010375
14930.0 0.0010544
14950.0 0.0010685
14970.0 0.0010803
14990.0 0.0010889
15010.0 0.0010942
15030.0 0.0010971
15050.0 0.0010977
15070.0 0.0010965
15090.0 0.0010942
15110.0 0.0010911
15130.0 0.0010876
15150.0 0.001084
15170.0 0.0010801
15190.0 0.0010762
15210.0 0.0010723
15230.0 0.0010685
15250.0 0.0010646
15270.0 0.0010607
15290.0 0.001057
15310.0 0.0010532
15330.0 0.0010494
15350.0 0.0010457
15370.0 0.001042
15390.0 0.0010382
15410.0 0.0010345
15430.0 0.0010308
15450.0 0.0010271
15470.0 0.0010234
15490.0 0.0010198
15510.0 0.0010163
15530.0 0.0010126
15550.0 0.001009
15570.0 0.0010055
15590.0 0.0010019
15610.0 0.00099828
15630.0 0.00099481
15650.0 0.00099132
15670.0 0.00098776
15690.0 0.00098427
15710.0 0.00098089
15730.0 0.00097738
15750.0 0.00097389
15770.0 0.0009705
15790.0 0.00096711
15810.0 0.00096358
15830.0 0.00096019
15850.0 0.00095687
15870.0 0.00095347
15890.0 0.00095006
15910.0 0.00094678
15930.0 0.00094345
15950.0 0.00094002
15970.0 0.00093671
15990.0 0.00093345
16010.0 0.00093009
16030.0 0.00092671
16050.0 0.00092351
16070.0 0.00092024
16090.0 0.00091691
16110.0 0.00091366
16130.0 0.00091049
16150.0 0.00090713
16170.0 0.00090383
16190.0 0.00090065
16210.0 0.00089742
16230.0 0.00089411
16250.0 0.00089092
16270.0 0.00088777
16290.0 0.00088449
16310.0 0.00088126
16330.0 0.00087811
16350.0 0.00087491
16370.0 0.00087157
16390.0 0.00086843
16410.0 0.00086528
16430.0 0.00086204
16450.0 0.00085882
16470.0 0.00085573
16490.0 0.00085251
16510.0 0.00084926
16530.0 0.00084611
16550.0 0.00084297
16570.0 0.0008397
16590.0 0.00083648
16610.0 0.00083339
16630.0 0.0008302
16650.0 0.00082696
16670.0 0.00082384
16690.0 0.00082071
16710.0 0.00081741
16730.0 0.00081422
16750.0 0.0008111
16770.0 0.00080789
16790.0 0.00080462
16810.0 0.0008015
16830.0 0.00079835
16850.0 0.0007951
16870.0 0.00079191
16890.0 0.00078879
16910.0 0.00078554
16930.0 0.00078224
16950.0 0.00077911
16970.0 0.00077593
16990.0 0.00077265
17010.0 0.00076945
17030.0 0.00076633
17050.0 0.00076306
17070.0 0.00075979
17090.0 0.00075663
17110.0 0.00075342
17130.0 0.00075008
17150.0 0.00074686
17170.0 0.00074369
17190.0 0.00074042
17210.0 0.00073714
17230.0 0.00073398
17250.0 0.00073074
17270.0 0.00072739
17290.0 0.00072415
17310.0 0.00072095
17330.0 0.00071763
17350.0 0.0007143
17370.0 0.00071112
17390.0 0.00070786
17410.0 0.00070453
17430.0 0.00070128
17450.0 0.00069807
17470.0 0.00069468
17490.0 0.00069135
17510.0 0.00068812
17530.0 0.00068483
17550.0 0.00068146
17570.0 0.0006782
17590.0 0.00067496
17610.0 0.00067159
17630.0 0.00066826
17650.0 0.00066502
17670.0 0.0006617
17690.0 0.00065824
17710.0 0.00065499
17730.0 0.00065171
17750.0 0.00064834
17770.0 0.000645
17790.0 0.00064177
17810.0 0.0006384
17830.0 0.00063499
17850.0 0.0006317
17870.0 0.0006284
17890.0 0.00062498
17910.0 0.00062161
17930.0 0.00061836
17950.0 0.00061501
17970.0 0.00061162
17990.0 0.00060833
18010.0 0.00060504
18030.0 0.00060158
18050.0 0.00059823
18070.0 0.00059495
18090.0 0.00059157
18110.0 0.00058816
18130.0 0.00058489
18150.0 0.00058158
18170.0 0.00057817
18190.0 0.00057483
18210.0 0.00057156
18230.0 0.00056816
18250.0 0.00056473
18270.0 0.00056146
18290.0 0.00055814
18310.0 0.00055474
18330.0 0.00055142
18350.0 0.00054817
18370.0 0.00054478
18390.0 0.00054141
18410.0 0.00053814
18430.0 0.00053482
18450.0 0.00053139
18470.0 0.00052809
18490.0 0.00052484
18510.0 0.00052148
18530.0 0.00051814
18550.0 0.00051491
18570.0 0.0005116
18590.0 0.0005082
18610.0 0.00050493
18630.0 0.00050168
18650.0 0.00049833
18670.0 0.00049498
18690.0 0.00049179
18710.0 0.00048851
18730.0 0.00048517
18750.0 0.00048193
18770.0 0.00047873
18790.0 0.00047536
18810.0 0.00047207
18830.0 0.00046888
18850.0 0.00046562
18870.0 0.00046231
18890.0 0.00045912
18910.0 0.00045594
18930.0 0.00045264
18950.0 0.00044941
18970.0 0.00044625
18990.0 0.00044302
19010.0 0.00043969
19030.0 0.00043655
19050.0 0.0004334
19070.0 0.00043016
19090.0 0.00042697
19110.0 0.00042389
19130.0 0.00042066
19150.0 0.00041743
19170.0 0.00041432
19190.0 0.00041119
19210.0 0.00040797
19230.0 0.0004048
19250.0 0.00040176
19270.0 0.00039861
19290.0 0.00039545
19310.0 0.0003924
19330.0 0.00038933
19350.0 0.00038611
19370.0 0.00038303
19390.0 0.00038
19410.0 0.00037689
19430.0 0.00037376
19450.0 0.00037077
19470.0 0.00036774
19490.0 0.00036463
19510.0 0.0003616
19530.0 0.00035863
19550.0 0.00035554
19570.0 0.00035245
19590.0 0.00034951
19610.0 0.00034652
19630.0 0.00034346
19650.0 0.0003405
19670.0 0.00033759
19690.0 0.00033456
19710.0 0.00033155
19730.0 0.00032865
19750.0 0.00032571
19770.0 0.00032266
19790.0 0.00031975
19810.0 0.00031688
19830.0 0.00031391
19850.0 0.00031094
19870.0 0.00030804
19890.0 0.00030497
19910.0 0.00030165
19930.0 0.0002982
19950.0 0.00029438
19970.0 0.00028989
19990.0 0.00028474
20010.0 0.00027917
20030.0 0.00027276
20050.0 0.00026568
20070.0 0.00025846
20090.0 0.00025118
20110.0 0.00024352
20130.0 0.00023639
20150.0 0.00022988
20170.0 0.00022369
20190.0 0.00021798
20210.0 0.00021308
20230.0 0.00020873
20250.0 0.00020479
20270.0 0.00020152
20290.0 0.00019885
20310.0 0.00019663
20330.0 0.00019488
20350.0 0.00019371
20370.0 0.00019297
20390.0 0.00019266
20410.0 0.00019281
20430.0 0.00019336
20450.0 0.00019438
20470.0 0.00019587
20490.0 0.00019772
20510.0 0.0002
20530.0 0.00020281
20550.0 0.00020596
20570.0 0.00020933
20590.0 0.00021317
20610.0 0.0002173
20630.0 0.00022149
20650.0 0.00022585
20670.0 0.00023051
20690.0 0.00023494
20710.0 0.00023921
20730.0 0.00024347
20750.0 0.00024755
20770.0 0.0002512
20790.0 0.0002547
20810.0 0.00025806
20830.0 0.00026109
20850.0 0.00026389
20870.0 0.0002667
20890.0 0.00026941
20910.0 0.00027195
20930.0 0.00027456
20950.0 0.00027726
20970.0 0.00027992
20990.0 0.00028255
21010.0 0.00028532
21030.0 0.000288
21050.0 0.00029049
21070.0 0.00029287
21090.0 0.00029508
21110.0 0.00029688
21130.0 0.00029834
21150.0 0.00029947
21170.0 0.00030019
21190.0 0.00030048
21210.0 0.00030038
21230.0 0.00029985
21250.0 0.00029897
21270.0 0.00029775
21290.0 0.00029617
21310.0 0.0002943
21330.0 0.00029229
21350.0 0.00029001
21370.0 0.00028752
21390.0 0.00028499
21410.0 0.00028238
21430.0 0.00027956
21450.0 0.00027682
21470.0 0.00027417
21490.0 0.0002715
21510.0 0.00026888
21530.0 0.00026648
21550.0 0.00026421
21570.0 0.00026202
21590.0 0.0002601
21610.0 0.00025845
21630.0 0.00025701
21650.0 0.00025583
21670.0 0.00025503
21690.0 0.00025452
21710.0 0.00025435
21730.0 0.00025454
21750.0 0.00025505
21770.0 0.00025596
21790.0 0.00025725
21810.0 0.00025885
21830.0 0.00026079
21850.0 0.00026316
21870.0 0.00026578
21890.0 0.00026858
21910.0 0.00027178
21930.0 0.00027522
21950.0 0.00027873
21970.0 0.00028246
21990.0 0.00028652
22010.0 0.00029047
22030.0 0.00029441
22050.0 0.00029849
22070.0 0.00030254
22090.0 0.0003063
22110.0 0.00031004
22130.0 0.00031368
22150.0 0.00031696
22170.0 0.00031993
22190.0 0.0003227
22210.0 0.00032506
22230.0 0.00032688
22250.0 0.00032829
22270.0 0.00032922
22290.0 0.0003296
22310.0 0.00032944
22330.0 0.00032868
22350.0 0.00032733
22370.0 0.00032544
22390.0 0.00032293
22410.0 0.00031974
22430.0 0.00031615
22450.0 0.00031208
22470.0 0.00030738
22490.0 0.00030227
22510.0 0.00029697
22530.0 0.0002911
22550.0 0.00028481
22570.0 0.00027856
22590.0 0.00027213
22610.0 0.00026536
22630.0 0.0002586
22650.0 0.00025211
22670.0 0.0002454
22690.0 0.0002387
22710.0 0.00023235
22730.0 0.00022617
22750.0 0.00021985
22770.0 0.00021402
22790.0 0.00020861
22810.0 0.00020335
22830.0 0.00019837
22850.0 0.00019396
22870.0 0.00018988
22890.0 0.00018607
22910.0 0.00018282
22930.0 0.00018009
22950.0 0.00017777
22970.0 0.00017593
22990.0 0.00017473
23010.0 0.00017401
23030.0 0.00017382
23050.0 0.00017418
23070.0 0.00017502
23090.0 0.00017642
23110.0 0.00017832
23130.0 0.00018059
23150.0 0.00018327
23170.0 0.0001864
23190.0 0.00018972
23210.0 0.00019315
23230.0 0.00019687
