#lamb flux
1010.0 1.3493e-05
1030.0 1.6798e-05
1050.0 2.0463e-05
1070.0 2.4413e-05
1090.0 2.8684e-05
1110.0 3.275e-05
1130.0 3.6454e-05
1150.0 3.9573e-05
1170.0 4.2292e-05
1190.0 4.4431e-05
1210.0 4.9265e-05
1230.0 5.434e-05
1250.0 5.9395e-05
1270.0 6.4336e-05
1290.0 6.9465e-05
1310.0 7.4483e-05
1330.0 7.9146e-05
1350.0 8.3625e-05
1370.0 8.7964e-05
1390.0 9.1869e-05
1410.0 9.5301e-05
1430.0 9.8571e-05
1450.0 0.00010149
1470.0 0.00010394
1490.0 0.00010615
1510.0 0.0001148
1530.0 0.00012612
1550.0 0.0001375
1570.0 0.0001476
1590.0 0.00015783
1610.0 0.00016785
1630.0 0.00017797
1650.0 0.00018811
1670.0 0.00019791
1690.0 0.00020741
1710.0 0.00021691
1730.0 0.0002262
1750.0 0.00023488
1770.0 0.00024349
1790.0 0.00025198
1810.0 0.00026004
1830.0 0.00026776
1850.0 0.00027565
1870.0 0.00028318
1890.0 0.00029031
1910.0 0.00029739
1930.0 0.00030447
1950.0 0.0003111
1970.0 0.00031752
1990.0 0.00032404
2010.0 0.00033033
2030.0 0.00033628
2050.0 0.00034231
2070.0 0.00034841
2090.0 0.00035405
2110.0 0.00035961
2130.0 0.00036527
2150.0 0.00037077
2170.0 0.00037595
2190.0 0.00038133
2210.0 0.00038673
2230.0 0.00039187
2250.0 0.00039699
2270.0 0.0004024
2290.0 0.00040765
2310.0 0.0004127
2330.0 0.00041798
2350.0 0.00042337
2370.0 0.00042856
2390.0 0.00043387
2410.0 0.00043953
2430.0 0.00044517
2450.0 0.00045098
2470.0 0.00045759
2490.0 0.00046552
2510.0 0.00047488
2530.0 0.00048729
2550.0 0.00050476
2570.0 0.00052839
2590.0 0.00055966
2610.0 0.00060433
2630.0 0.00066322
2650.0 0.00073467
2670.0 0.00082216
2690.0 0.00092706
2710.0 0.0010406
2730.0 0.0011584
2750.0 0.0012841
2770.0 0.0014067
2790.0 0.0015184
2810.0 0.0016207
2830.0 0.0017139
2850.0 0.0017886
2870.0 0.0018515
2890.0 0.0019069
2910.0 0.0019554
2930.0 0.0019983
2950.0 0.0020403
2970.0 0.0020819
2990.0 0.0021219
3010.0 0.0021615
3030.0 0.002202
3050.0 0.0022421
3070.0 0.0022798
3090.0 0.0023177
3110.0 0.0023561
3130.0 0.0023959
3150.0 0.0024483
3170.0 0.0025197
3190.0 0.0026207
3210.0 0.0027594
3230.0 0.0029481
3250.0 0.0031779
3270.0 0.0033594
3290.0 0.0037073
3310.0 0.0045411
3330.0 0.0047184
3350.0 0.0047331
3370.0 0.0047375
3390.0 0.0047413
3410.0 0.0047474
3430.0 0.0047553
3450.0 0.0047642
3470.0 0.0047724
3490.0 0.0047802
3510.0 0.0047939
3530.0 0.0046962
3550.0 0.0044981
3570.0 0.0044471
3590.0 0.0045853
3610.0 0.0048976
3630.0 0.0049018
3650.0 0.0046225
3670.0 0.0042328
3690.0 0.0040363
3710.0 0.0041009
3730.0 0.0042144
3750.0 0.004269
3770.0 0.004409
3790.0 0.0045757
3810.0 0.004498
3830.0 0.0042223
3850.0 0.0040042
3870.0 0.0039289
3890.0 0.0039037
3910.0 0.0038483
3930.0 0.0038644
3950.0 0.0040368
3970.0 0.0042416
3990.0 0.004386
4010.0 0.0043084
4030.0 0.00418
4050.0 0.0041439
4070.0 0.0041308
4090.0 0.0041352
4110.0 0.0040962
4130.0 0.0039726
4150.0 0.0038454
4170.0 0.0038187
4190.0 0.0036731
4210.0 0.0034472
4230.0 0.0031946
4250.0 0.0029453
4270.0 0.0027756
4290.0 0.0026491
4310.0 0.0026225
4330.0 0.0027127
4350.0 0.0027984
4370.0 0.002923
4390.0 0.0031198
4410.0 0.0032935
4430.0 0.0032654
4450.0 0.0030615
4470.0 0.0028847
4490.0 0.0028091
4510.0 0.0027837
4530.0 0.0028026
4550.0 0.0028251
4570.0 0.0028749
4590.0 0.0029706
4610.0 0.003129
4630.0 0.0032426
4650.0 0.003325
4670.0 0.0032826
4690.0 0.003125
4710.0 0.0029568
4730.0 0.0028543
4750.0 0.0027908
4770.0 0.0028255
4790.0 0.0028162
4810.0 0.0027553
4830.0 0.0027916
4850.0 0.0028412
4870.0 0.0028894
4890.0 0.0027953
4910.0 0.0026854
4930.0 0.0025048
4950.0 0.0022842
4970.0 0.0021042
4990.0 0.0019563
5010.0 0.0019165
5030.0 0.0019583
5050.0 0.0019581
5070.0 0.0020023
5090.0 0.0020873
5110.0 0.0020825
5130.0 0.0020677
5150.0 0.0020652
5170.0 0.0020585
5190.0 0.0020817
5210.0 0.0020457
5230.0 0.0019958
5250.0 0.001969
5270.0 0.0019481
5290.0 0.0019231
5310.0 0.00189
5330.0 0.0018243
5350.0 0.0017833
5370.0 0.0017377
5390.0 0.0016858
5410.0 0.001651
5430.0 0.0016219
5450.0 0.0016396
5470.0 0.0016548
5490.0 0.0016652
5510.0 0.0017058
5530.0 0.0017147
5550.0 0.0017352
5570.0 0.0017257
5590.0 0.0016765
5610.0 0.0016596
5630.0 0.0016739
5650.0 0.0016522
5670.0 0.001619
5690.0 0.00157
5710.0 0.0015785
5730.0 0.0015986
5750.0 0.0015383
5770.0 0.0014713
5790.0 0.0013526
5810.0 0.0011848
5830.0 0.0012951
5850.0 0.0014617
5870.0 0.0015158
5890.0 0.0015425
5910.0 0.0015675
5930.0 0.001588
5950.0 0.0015793
5970.0 0.0015829
5990.0 0.001579
6010.0 0.0015558
6030.0 0.0015234
6050.0 0.0015231
6070.0 0.001547
6090.0 0.0015445
6110.0 0.0015139
6130.0 0.0014883
6150.0 0.0014502
6170.0 0.0014093
6190.0 0.0013766
6210.0 0.0013481
6230.0 0.001346
6250.0 0.0013376
6270.0 0.00133
6290.0 0.0013349
6310.0 0.0013396
6330.0 0.0013275
6350.0 0.0013028
6370.0 0.0012922
6390.0 0.001287
6410.0 0.0012634
6430.0 0.0012453
6450.0 0.0012284
6470.0 0.0012118
6490.0 0.0012034
6510.0 0.0011975
6530.0 0.0011749
6550.0 0.0011567
6570.0 0.0011488
6590.0 0.0011499
6610.0 0.0011474
6630.0 0.0011127
6650.0 0.0010873
6670.0 0.0010798
6690.0 0.0010645
6710.0 0.0010406
6730.0 0.0010326
6750.0 0.00104
6770.0 0.0011044
6790.0 0.0012466
6810.0 0.0011748
6830.0 0.0010191
6850.0 0.00097764
6870.0 0.00095728
6890.0 0.00095208
6910.0 0.00094866
6930.0 0.00094488
6950.0 0.00093304
6970.0 0.00090215
6990.0 0.0008862
7010.0 0.00089057
7030.0 0.00088404
7050.0 0.00086216
7070.0 0.00084924
7090.0 0.00084929
7110.0 0.00086071
7130.0 0.0008513
7150.0 0.00084271
7170.0 0.00083685
7190.0 0.00084069
7210.0 0.00083401
7230.0 0.00082702
7250.0 0.00082762
7270.0 0.00082236
7290.0 0.00082201
7310.0 0.0008288
7330.0 0.00081178
7350.0 0.0007839
7370.0 0.00075841
7390.0 0.00074159
7410.0 0.00073989
7430.0 0.00073773
7450.0 0.00073121
7470.0 0.00072682
7490.0 0.00071004
7510.0 0.00069407
7530.0 0.00069035
7550.0 0.00071205
7570.0 0.00070371
7590.0 0.00065082
7610.0 0.00063187
7630.0 0.00066158
7650.0 0.00066293
7670.0 0.00066521
7690.0 0.00069248
7710.0 0.00070151
7730.0 0.00069383
7750.0 0.00072576
7770.0 0.00069133
7790.0 0.00066377
7810.0 0.00069946
7830.0 0.00071483
7850.0 0.0007299
7870.0 0.00073238
7890.0 0.00073315
7910.0 0.00072015
7930.0 0.00072221
7950.0 0.00075216
7970.0 0.00074178
7990.0 0.00068055
8010.0 0.00067896
8030.0 0.00067043
8050.0 0.0006579
8070.0 0.00064205
8090.0 0.00058395
8110.0 0.00058459
8130.0 0.00063318
8150.0 0.00065983
8170.0 0.00066839
8190.0 0.00068931
8210.0 0.00067401
8230.0 0.00066572
8250.0 0.00066471
8270.0 0.00065291
8290.0 0.00063969
8310.0 0.00060906
8330.0 0.00060766
8350.0 0.00061868
8370.0 0.00062286
8390.0 0.00061783
8410.0 0.00060941
8430.0 0.00059749
8450.0 0.00059502
8470.0 0.00062134
8490.0 0.00062747
8510.0 0.00060017
8530.0 0.00058055
8550.0 0.00057693
8570.0 0.00055784
8590.0 0.00055051
8610.0 0.00056032
8630.0 0.00056343
8650.0 0.00055992
8670.0 0.00055656
8690.0 0.00054916
8710.0 0.00052582
8730.0 0.00052298
8750.0 0.00051181
8770.0 0.00051336
8790.0 0.00051099
8810.0 0.00049568
8830.0 0.0004965
8850.0 0.00050248
8870.0 0.0004784
8890.0 0.00045769
8910.0 0.00044373
8930.0 0.0004259
8950.0 0.00041216
8970.0 0.00039495
8990.0 0.0003882
9010.0 0.00037311
9030.0 0.00036866
9050.0 0.00036646
9070.0 0.00036436
9090.0 0.00036224
9110.0 0.00036006
9130.0 0.00035789
9150.0 0.00035575
9170.0 0.00035359
9190.0 0.00035141
9210.0 0.00034921
9230.0 0.00034701
9250.0 0.00034479
9270.0 0.00034256
9290.0 0.00034032
9310.0 0.00033814
9330.0 0.00033602
9350.0 0.0003339
9370.0 0.00033178
9390.0 0.00032966
9410.0 0.00032753
9430.0 0.0003254
9450.0 0.00032327
9470.0 0.00032135
9490.0 0.00031931
9510.0 0.00031708
9530.0 0.00031488
9550.0 0.00031272
9570.0 0.00031059
9590.0 0.00030847
9610.0 0.00030642
9630.0 0.00030441
9650.0 0.00030239
9670.0 0.00030037
9690.0 0.00029838
9710.0 0.0002964
9730.0 0.00029441
9750.0 0.00029244
9770.0 0.00029049
9790.0 0.00028855
9810.0 0.00028661
9830.0 0.00028469
9850.0 0.00028261
9870.0 0.00028049
9890.0 0.00027878
9910.0 0.00027703
9930.0 0.00027495
9950.0 0.00027311
9970.0 0.00027143
9990.0 0.00026971
10010.0 0.000268
10030.0 0.00026626
10050.0 0.00026452
10070.0 0.00026279
10090.0 0.00026109
10110.0 0.00025938
10130.0 0.00025768
10150.0 0.00025603
10170.0 0.00025438
10190.0 0.00025274
10210.0 0.00025114
10230.0 0.00024956
10250.0 0.00024798
10270.0 0.00024643
10290.0 0.00024491
10310.0 0.00024339
10330.0 0.00024188
10350.0 0.0002404
10370.0 0.00023895
10390.0 0.00023749
10410.0 0.00023593
10430.0 0.00023437
10450.0 0.00023313
10470.0 0.00023183
10490.0 0.00023054
10510.0 0.00022925
10530.0 0.00022793
10550.0 0.00022664
10570.0 0.0002254
10590.0 0.00022414
10610.0 0.00022289
10630.0 0.00022169
10650.0 0.00022051
10670.0 0.0002193
10690.0 0.00021814
10710.0 0.00021701
10730.0 0.00021587
10750.0 0.00021473
10770.0 0.00021366
10790.0 0.00021259
10810.0 0.00021151
10830.0 0.00021047
10850.0 0.00020946
10870.0 0.00020843
10890.0 0.00020741
10910.0 0.00020643
10930.0 0.00020546
10950.0 0.00020446
10970.0 0.00020347
10990.0 0.00020251
11010.0 0.00020655
11030.0 0.00020549
11050.0 0.00020447
11070.0 0.00020342
11090.0 0.00020229
11110.0 0.00020122
11130.0 0.00020014
11150.0 0.00019901
11170.0 0.00019785
11190.0 0.00019674
11210.0 0.00019558
11230.0 0.00019439
11250.0 0.00019324
11270.0 0.00019214
11290.0 0.000191
11310.0 0.00018991
11330.0 0.00018894
11350.0 0.00018799
11370.0 0.00018708
11390.0 0.00018627
11410.0 0.00018553
11430.0 0.00018479
11450.0 0.00018412
11470.0 0.00018352
11490.0 0.00018293
11510.0 0.00018233
11530.0 0.00018177
11550.0 0.00018122
11570.0 0.00018063
11590.0 0.00018002
11610.0 0.00017942
11630.0 0.00017877
11650.0 0.00017805
11670.0 0.00017735
11690.0 0.00017662
11710.0 0.00017583
11730.0 0.00017503
11750.0 0.00017425
11770.0 0.00017341
11790.0 0.00017255
11810.0 0.00017173
11830.0 0.00017091
11850.0 0.00017004
11870.0 0.00016922
11890.0 0.00016846
11910.0 0.0001677
11930.0 0.00016697
11950.0 0.00016631
11970.0 0.0001657
11990.0 0.00016509
12010.0 0.00016457
12030.0 0.00016412
12050.0 0.0001637
12070.0 0.00016332
12090.0 0.00016303
12110.0 0.00016278
12130.0 0.00016257
12150.0 0.0001624
12170.0 0.00016227
12190.0 0.00016215
12210.0 0.00016204
12230.0 0.00016194
12250.0 0.00016183
12270.0 0.00016168
12290.0 0.0001615
12310.0 0.00016128
12330.0 0.00016099
12350.0 0.00016063
12370.0 0.00016021
12390.0 0.00015971
12410.0 0.00015907
12430.0 0.0001584
12450.0 0.00015766
12470.0 0.0001568
12490.0 0.00015587
12510.0 0.00015493
12530.0 0.0001539
12550.0 0.00015277
12570.0 0.00015165
12590.0 0.00015051
12610.0 0.00014928
12630.0 0.00014804
12650.0 0.00014686
12670.0 0.00014565
12690.0 0.00014441
12710.0 0.00014324
12730.0 0.00014212
12750.0 0.00014095
12770.0 0.00013985
12790.0 0.00013884
12810.0 0.00013785
12830.0 0.00013689
12850.0 0.00013604
12870.0 0.00013526
12890.0 0.0001345
12910.0 0.00013383
12930.0 0.00013326
12950.0 0.00013273
12970.0 0.00013226
12990.0 0.0001319
13010.0 0.00013161
13030.0 0.00013138
13050.0 0.00013123
13070.0 0.00013114
13090.0 0.0001311
13110.0 0.0001311
13130.0 0.00013112
13150.0 0.00013116
13170.0 0.00013119
13190.0 0.00013119
13210.0 0.00013116
13230.0 0.00013107
13250.0 0.00013092
13270.0 0.00013069
13290.0 0.00013039
13310.0 0.00012998
13330.0 0.00012949
13350.0 0.00012893
13370.0 0.00012827
13390.0 0.0001275
13410.0 0.00012671
13430.0 0.00012583
13450.0 0.00012486
13470.0 0.00012384
13490.0 0.00012281
13510.0 0.00012166
13530.0 0.00012047
13550.0 0.00011929
13570.0 0.00011806
13590.0 0.00011677
13610.0 0.00011549
13630.0 0.00011422
13650.0 0.00011289
13670.0 0.00011155
13690.0 0.00011025
13710.0 0.00010893
13730.0 0.00010756
13750.0 0.00010627
13770.0 0.000105
13790.0 0.00010371
13810.0 0.00010246
13830.0 0.00010128
13850.0 0.0001001
13870.0 9.8931e-05
13890.0 9.7836e-05
13910.0 9.6785e-05
13930.0 9.5732e-05
13950.0 9.4723e-05
13970.0 9.3794e-05
13990.0 9.2873e-05
14010.0 9.1973e-05
14030.0 9.1132e-05
14050.0 9.0328e-05
14070.0 8.9518e-05
14090.0 8.8759e-05
14110.0 8.8049e-05
14130.0 8.7353e-05
14150.0 8.6673e-05
14170.0 8.6047e-05
14190.0 8.5445e-05
14210.0 8.4847e-05
14230.0 8.4277e-05
14250.0 8.3737e-05
14270.0 8.3194e-05
14290.0 8.2657e-05
14310.0 8.2151e-05
14330.0 8.165e-05
14350.0 8.1146e-05
14370.0 8.0655e-05
14390.0 8.0182e-05
14410.0 7.9699e-05
14430.0 7.922e-05
14450.0 7.8757e-05
14470.0 7.8295e-05
14490.0 7.7821e-05
14510.0 7.736e-05
14530.0 7.6911e-05
14550.0 7.645e-05
14570.0 7.5987e-05
14590.0 7.5536e-05
14610.0 7.5078e-05
14630.0 7.4604e-05
14650.0 7.4139e-05
14670.0 7.3676e-05
14690.0 7.3199e-05
14710.0 7.2713e-05
14730.0 7.2244e-05
14750.0 7.1764e-05
14770.0 7.1269e-05
14790.0 7.0779e-05
14810.0 7.0293e-05
14830.0 6.9778e-05
14850.0 6.9264e-05
14870.0 6.876e-05
14890.0 6.8249e-05
14910.0 6.7729e-05
14930.0 6.7232e-05
14950.0 6.6758e-05
14970.0 6.6291e-05
14990.0 6.5856e-05
15010.0 6.5464e-05
15030.0 6.5098e-05
15050.0 6.4753e-05
15070.0 6.4446e-05
15090.0 6.4157e-05
15110.0 6.3875e-05
15130.0 6.3603e-05
15150.0 6.3342e-05
15170.0 6.3078e-05
15190.0 6.2814e-05
15210.0 6.2556e-05
15230.0 6.2301e-05
15250.0 6.204e-05
15270.0 6.1782e-05
15290.0 6.1533e-05
15310.0 6.1279e-05
15330.0 6.1025e-05
15350.0 6.0777e-05
15370.0 6.0531e-05
15390.0 6.0278e-05
15410.0 6.003e-05
15430.0 5.9788e-05
15450.0 5.9543e-05
15470.0 5.9297e-05
15490.0 5.9059e-05
15510.0 5.8821e-05
15530.0 5.858e-05
15550.0 5.8343e-05
15570.0 5.8111e-05
15590.0 5.7875e-05
15610.0 5.7637e-05
15630.0 5.7409e-05
15650.0 5.718e-05
15670.0 5.6949e-05
15690.0 5.6722e-05
15710.0 5.6501e-05
15730.0 5.6275e-05
15750.0 5.605e-05
15770.0 5.5831e-05
15790.0 5.5613e-05
15810.0 5.5389e-05
15830.0 5.5173e-05
15850.0 5.4961e-05
15870.0 5.4746e-05
15890.0 5.4532e-05
15910.0 5.4325e-05
15930.0 5.4116e-05
15950.0 5.3904e-05
15970.0 5.3698e-05
15990.0 5.3495e-05
16010.0 5.329e-05
16030.0 5.3084e-05
16050.0 5.2887e-05
16070.0 5.2689e-05
16090.0 5.2488e-05
16110.0 5.2293e-05
16130.0 5.2102e-05
16150.0 5.1904e-05
16170.0 5.171e-05
16190.0 5.1522e-05
16210.0 5.1333e-05
16230.0 5.1141e-05
16250.0 5.0956e-05
16270.0 5.0774e-05
16290.0 5.0588e-05
16310.0 5.0404e-05
16330.0 5.0226e-05
16350.0 5.0046e-05
16370.0 4.9861e-05
16390.0 4.9686e-05
16410.0 4.9512e-05
16430.0 4.9335e-05
16450.0 4.9161e-05
16470.0 4.8993e-05
16490.0 4.8821e-05
16510.0 4.8648e-05
16530.0 4.8481e-05
16550.0 4.8315e-05
16570.0 4.8145e-05
16590.0 4.7978e-05
16610.0 4.7819e-05
16630.0 4.7655e-05
16650.0 4.7491e-05
16670.0 4.7333e-05
16690.0 4.7177e-05
16710.0 4.7013e-05
16730.0 4.6855e-05
16750.0 4.6702e-05
16770.0 4.6546e-05
16790.0 4.6388e-05
16810.0 4.6238e-05
16830.0 4.6088e-05
16850.0 4.5934e-05
16870.0 4.5784e-05
16890.0 4.5639e-05
16910.0 4.5488e-05
16930.0 4.5337e-05
16950.0 4.5194e-05
16970.0 4.5049e-05
16990.0 4.4902e-05
17010.0 4.4759e-05
17030.0 4.462e-05
17050.0 4.4476e-05
17070.0 4.4333e-05
17090.0 4.4195e-05
17110.0 4.4057e-05
17130.0 4.3913e-05
17150.0 4.3775e-05
17170.0 4.3642e-05
17190.0 4.3504e-05
17210.0 4.3367e-05
17230.0 4.3236e-05
17250.0 4.3102e-05
17270.0 4.2964e-05
17290.0 4.2832e-05
17310.0 4.2702e-05
17330.0 4.2568e-05
17350.0 4.2434e-05
17370.0 4.2308e-05
17390.0 4.2179e-05
17410.0 4.2048e-05
17430.0 4.1921e-05
17450.0 4.1796e-05
17470.0 4.1664e-05
17490.0 4.1535e-05
17510.0 4.1412e-05
17530.0 4.1287e-05
17550.0 4.1158e-05
17570.0 4.1035e-05
17590.0 4.0914e-05
17610.0 4.0787e-05
17630.0 4.0663e-05
17650.0 4.0543e-05
17670.0 4.0421e-05
17690.0 4.0292e-05
17710.0 4.0174e-05
17730.0 4.0055e-05
17750.0 3.9931e-05
17770.0 3.981e-05
17790.0 3.9695e-05
17810.0 3.9573e-05
17830.0 3.945e-05
17850.0 3.9333e-05
17870.0 3.9216e-05
17890.0 3.9093e-05
17910.0 3.8973e-05
17930.0 3.886e-05
17950.0 3.8741e-05
17970.0 3.8622e-05
17990.0 3.8507e-05
18010.0 3.8392e-05
18030.0 3.827e-05
18050.0 3.8153e-05
18070.0 3.804e-05
18090.0 3.7922e-05
18110.0 3.7803e-05
18130.0 3.769e-05
18150.0 3.7576e-05
18170.0 3.7458e-05
18190.0 3.7343e-05
18210.0 3.7231e-05
18230.0 3.7113e-05
18250.0 3.6993e-05
18270.0 3.6882e-05
18290.0 3.6768e-05
18310.0 3.665e-05
18330.0 3.6536e-05
18350.0 3.6425e-05
18370.0 3.6308e-05
18390.0 3.6191e-05
18410.0 3.6079e-05
18430.0 3.5966e-05
18450.0 3.5846e-05
18470.0 3.5732e-05
18490.0 3.5621e-05
18510.0 3.5505e-05
18530.0 3.5389e-05
18550.0 3.5278e-05
18570.0 3.5163e-05
18590.0 3.5044e-05
18610.0 3.4931e-05
18630.0 3.4818e-05
18650.0 3.4701e-05
18670.0 3.4583e-05
18690.0 3.4473e-05
18710.0 3.4358e-05
18730.0 3.424e-05
18750.0 3.4126e-05
18770.0 3.4015e-05
18790.0 3.3894e-05
18810.0 3.3776e-05
18830.0 3.3664e-05
18850.0 3.3548e-05
18870.0 3.3429e-05
18890.0 3.3315e-05
18910.0 3.3202e-05
18930.0 3.3082e-05
18950.0 3.2965e-05
18970.0 3.2852e-05
18990.0 3.2734e-05
19010.0 3.2611e-05
19030.0 3.2497e-05
19050.0 3.2382e-05
19070.0 3.2261e-05
19090.0 3.2143e-05
19110.0 3.203e-05
19130.0 3.191e-05
19150.0 3.1788e-05
19170.0 3.1672e-05
19190.0 3.1554e-05
19210.0 3.1431e-05
19230.0 3.1311e-05
19250.0 3.1196e-05
19270.0 3.1075e-05
19290.0 3.0953e-05
19310.0 3.0836e-05
19330.0 3.0717e-05
19350.0 3.0591e-05
19370.0 3.047e-05
19390.0 3.0352e-05
19410.0 3.0229e-05
19430.0 3.0104e-05
19450.0 2.9986e-05
19470.0 2.9865e-05
19490.0 2.9739e-05
19510.0 2.9617e-05
19530.0 2.9497e-05
19550.0 2.937e-05
19570.0 2.9243e-05
19590.0 2.9123e-05
19610.0 2.8999e-05
19630.0 2.8871e-05
19650.0 2.8748e-05
19670.0 2.8627e-05
19690.0 2.8498e-05
19710.0 2.8371e-05
19730.0 2.8248e-05
19750.0 2.8122e-05
19770.0 2.7989e-05
19790.0 2.7864e-05
19810.0 2.774e-05
19830.0 2.7611e-05
19850.0 2.7482e-05
19870.0 2.736e-05
19890.0 2.7234e-05
19910.0 2.7106e-05
19930.0 2.699e-05
19950.0 2.6881e-05
19970.0 2.6778e-05
19990.0 2.669e-05
20010.0 2.6621e-05
20030.0 2.6564e-05
20050.0 2.6522e-05
20070.0 2.6494e-05
20090.0 2.6476e-05
20110.0 2.6464e-05
20130.0 2.6456e-05
20150.0 2.6453e-05
20170.0 2.6448e-05
20190.0 2.6443e-05
20210.0 2.6439e-05
20230.0 2.6432e-05
20250.0 2.6423e-05
20270.0 2.6412e-05
20290.0 2.64e-05
20310.0 2.6385e-05
20330.0 2.6366e-05
20350.0 2.6348e-05
20370.0 2.6327e-05
20390.0 2.6302e-05
20410.0 2.6276e-05
20430.0 2.6251e-05
20450.0 2.6221e-05
20470.0 2.6189e-05
20490.0 2.616e-05
20510.0 2.6129e-05
20530.0 2.6097e-05
20550.0 2.6067e-05
20570.0 2.6039e-05
20590.0 2.601e-05
20610.0 2.5982e-05
20630.0 2.5957e-05
20650.0 2.5933e-05
20670.0 2.5906e-05
20690.0 2.5882e-05
20710.0 2.5859e-05
20730.0 2.5832e-05
20750.0 2.5804e-05
20770.0 2.5776e-05
20790.0 2.5744e-05
20810.0 2.5707e-05
20830.0 2.5667e-05
20850.0 2.5624e-05
20870.0 2.5573e-05
20890.0 2.5517e-05
20910.0 2.546e-05
20930.0 2.5397e-05
20950.0 2.5328e-05
20970.0 2.5258e-05
20990.0 2.5187e-05
21010.0 2.5109e-05
21030.0 2.503e-05
21050.0 2.4954e-05
21070.0 2.4876e-05
21090.0 2.4795e-05
21110.0 2.4719e-05
21130.0 2.4645e-05
21150.0 2.4569e-05
21170.0 2.4494e-05
21190.0 2.4424e-05
21210.0 2.4351e-05
21230.0 2.4275e-05
21250.0 2.4204e-05
21270.0 2.4132e-05
21290.0 2.4056e-05
21310.0 2.3979e-05
21330.0 2.3904e-05
21350.0 2.3824e-05
21370.0 2.374e-05
21390.0 2.3656e-05
21410.0 2.3571e-05
21430.0 2.3476e-05
21450.0 2.3382e-05
21470.0 2.3288e-05
21490.0 2.3189e-05
21510.0 2.3085e-05
21530.0 2.2985e-05
21550.0 2.2882e-05
21570.0 2.2772e-05
21590.0 2.2664e-05
21610.0 2.2559e-05
21630.0 2.2448e-05
21650.0 2.2334e-05
21670.0 2.2228e-05
21690.0 2.212e-05
21710.0 2.2009e-05
21730.0 2.1901e-05
21750.0 2.1797e-05
21770.0 2.1686e-05
21790.0 2.1576e-05
21810.0 2.1471e-05
21830.0 2.1365e-05
21850.0 2.1254e-05
21870.0 2.1147e-05
21890.0 2.1044e-05
21910.0 2.0936e-05
21930.0 2.0829e-05
21950.0 2.0727e-05
21970.0 2.0624e-05
21990.0 2.0516e-05
22010.0 2.0417e-05
22030.0 2.0322e-05
22050.0 2.0225e-05
22070.0 2.0132e-05
22090.0 2.0049e-05
22110.0 1.9966e-05
22130.0 1.9885e-05
22150.0 1.9813e-05
22170.0 1.9745e-05
22190.0 1.9679e-05
22210.0 1.9617e-05
22230.0 1.9564e-05
22250.0 1.9513e-05
22270.0 1.9463e-05
22290.0 1.9419e-05
22310.0 1.9378e-05
22330.0 1.9336e-05
22350.0 1.9297e-05
22370.0 1.926e-05
22390.0 1.9223e-05
22410.0 1.9184e-05
22430.0 1.9148e-05
22450.0 1.9112e-05
22470.0 1.9073e-05
22490.0 1.9034e-05
22510.0 1.8997e-05
22530.0 1.8956e-05
22550.0 1.8914e-05
22570.0 1.8874e-05
22590.0 1.8835e-05
22610.0 1.8793e-05
22630.0 1.8754e-05
22650.0 1.8717e-05
22670.0 1.868e-05
22690.0 1.8644e-05
22710.0 1.8613e-05
22730.0 1.8583e-05
22750.0 1.8554e-05
22770.0 1.853e-05
22790.0 1.851e-05
22810.0 1.8493e-05
22830.0 1.8478e-05
