#lamb flux
1010.0 5.5855e-06
1030.0 5.8385e-06
1050.0 6.1321e-06
1070.0 6.4634e-06
1090.0 6.8401e-06
1110.0 7.2283e-06
1130.0 7.6211e-06
1150.0 8.0346e-06
1170.0 8.4637e-06
1190.0 8.8739e-06
1210.0 9.2927e-06
1230.0 9.7283e-06
1250.0 1.0159e-05
1270.0 1.0582e-05
1290.0 1.1032e-05
1310.0 1.1485e-05
1330.0 1.1926e-05
1350.0 1.2376e-05
1370.0 1.2845e-05
1390.0 1.3308e-05
1410.0 1.3764e-05
1430.0 1.4244e-05
1450.0 1.4729e-05
1470.0 1.5206e-05
1490.0 1.5692e-05
1510.0 1.6208e-05
1530.0 1.6705e-05
1550.0 1.72e-05
1570.0 1.7714e-05
1590.0 1.8231e-05
1610.0 1.8731e-05
1630.0 1.9246e-05
1650.0 1.9774e-05
1670.0 2.0286e-05
1690.0 2.0791e-05
1710.0 2.1311e-05
1730.0 2.1829e-05
1750.0 2.2314e-05
1770.0 2.2806e-05
1790.0 2.3299e-05
1810.0 2.3768e-05
1830.0 2.4219e-05
1850.0 2.4685e-05
1870.0 2.5127e-05
1890.0 2.554e-05
1910.0 2.5947e-05
1930.0 2.635e-05
1950.0 2.6717e-05
1970.0 2.7064e-05
1990.0 2.7412e-05
2010.0 2.7737e-05
2030.0 2.8033e-05
2050.0 2.8329e-05
2070.0 2.8624e-05
2090.0 2.8883e-05
2110.0 2.9133e-05
2130.0 2.939e-05
2150.0 2.9634e-05
2170.0 2.986e-05
2190.0 3.0103e-05
2210.0 3.0353e-05
2230.0 3.0595e-05
2250.0 3.0846e-05
2270.0 3.1129e-05
2290.0 3.1417e-05
2310.0 3.1711e-05
2330.0 3.2041e-05
2350.0 3.2403e-05
2370.0 3.278e-05
2390.0 3.3197e-05
2410.0 3.3669e-05
2430.0 3.4171e-05
2450.0 3.4707e-05
2470.0 3.5298e-05
2490.0 3.5946e-05
2510.0 3.6642e-05
2530.0 3.7472e-05
2550.0 3.8582e-05
2570.0 4.0151e-05
2590.0 4.2418e-05
2610.0 4.5948e-05
2630.0 5.1014e-05
2650.0 5.7525e-05
2670.0 6.5674e-05
2690.0 7.5373e-05
2710.0 8.5603e-05
2730.0 9.5821e-05
2750.0 0.0001062
2770.0 0.00011603
2790.0 0.00012507
2810.0 0.00013384
2830.0 0.00014276
2850.0 0.00015142
2870.0 0.0001603
2890.0 0.00016978
2910.0 0.00017972
2930.0 0.00018987
2950.0 0.00020072
2970.0 0.00021222
2990.0 0.00022395
3010.0 0.00044481
3030.0 0.00046869
3050.0 0.00049265
3070.0 0.00051481
3090.0 0.00053416
3110.0 0.00054619
3130.0 0.00054544
3150.0 0.00052579
3170.0 0.00047491
3190.0 0.00039119
3210.0 0.00027551
3230.0 0.00014454
3250.0 0.0002836
3270.0 0.00011754
3290.0 0.00044135
3310.0 8.1433e-05
3330.0 8.0377e-05
3350.0 0.00012606
3370.0 0.0001788
3390.0 0.00023513
3410.0 0.00029126
3430.0 0.00035008
3450.0 0.00040881
3470.0 0.00046253
3490.0 0.00049775
3510.0 0.00062625
3530.0 0.00086419
3550.0 0.00085057
3570.0 0.00069237
3590.0 0.0010056
3610.0 0.00060472
3630.0 0.0010458
3650.0 0.0012135
3670.0 0.0015846
3690.0 0.001488
3710.0 0.00099514
3730.0 0.0013542
3750.0 0.0014047
3770.0 0.001461
3790.0 0.0013279
3810.0 0.0012013
3830.0 0.0017877
3850.0 0.0020124
3870.0 0.0025166
3890.0 0.0023614
3910.0 0.0020876
3930.0 0.0022084
3950.0 0.002472
3970.0 0.0031588
3990.0 0.0023796
4010.0 0.0014311
4030.0 0.0021146
4050.0 0.0024496
4070.0 0.0028008
4090.0 0.0023403
4110.0 0.0015114
4130.0 0.0021274
4150.0 0.0019819
4170.0 0.0020653
4190.0 0.0020269
4210.0 0.0026174
4230.0 0.0017769
4250.0 0.0021154
4270.0 0.0021109
4290.0 0.0021127
4310.0 0.0026384
4330.0 0.0027184
4350.0 0.0020597
4370.0 0.0017357
4390.0 0.0021907
4410.0 0.0022755
4430.0 0.0017258
4450.0 0.0017255
4470.0 0.0020491
4490.0 0.0014814
4510.0 0.0018684
4530.0 0.0019985
4550.0 0.002656
4570.0 0.0039183
4590.0 0.003717
4610.0 0.002355
4630.0 0.0039826
4650.0 0.0058303
4670.0 0.0053698
4690.0 0.0030857
4710.0 0.0034099
4730.0 0.0045203
4750.0 0.0040197
4770.0 0.0030137
4790.0 0.0020024
4810.0 0.0029762
4830.0 0.0034623
4850.0 0.0029978
4870.0 0.00085749
4890.0 0.0032353
4910.0 0.0046082
4930.0 0.0049488
4950.0 0.0048213
4970.0 0.0028317
4990.0 0.0033139
5010.0 0.0040125
5030.0 0.0045119
5050.0 0.0045001
5070.0 0.0032126
5090.0 0.0026041
5110.0 0.0024357
5130.0 0.0021692
5150.0 0.0024645
5170.0 0.0021269
5190.0 0.0026733
5210.0 0.0026726
5230.0 0.0029371
5250.0 0.0037158
5270.0 0.0030419
5290.0 0.0029678
5310.0 0.004503
5330.0 0.0052509
5350.0 0.004326
5370.0 0.0037151
5390.0 0.0043193
5410.0 0.0055191
5430.0 0.0060967
5450.0 0.0064899
5470.0 0.0064251
5490.0 0.0062184
5510.0 0.0073302
5530.0 0.007608
5550.0 0.0082019
5570.0 0.0087699
5590.0 0.0086988
5610.0 0.0081864
5630.0 0.0078814
5650.0 0.0080622
5670.0 0.0079621
5690.0 0.0067323
5710.0 0.0065315
5730.0 0.0066917
5750.0 0.0073561
5770.0 0.0063285
5790.0 0.005768
5810.0 0.0058273
5830.0 0.0061557
5850.0 0.0056043
5870.0 0.0056751
5890.0 0.0068628
5910.0 0.0065107
5930.0 0.0052496
5950.0 0.0045217
5970.0 0.004918
5990.0 0.0045481
6010.0 0.0043097
6030.0 0.0044377
6050.0 0.0041344
6070.0 0.0030422
6090.0 0.0027176
6110.0 0.0036115
6130.0 0.0042072
6150.0 0.0044122
6170.0 0.0042398
6190.0 0.003916
6210.0 0.0038356
6230.0 0.0045577
6250.0 0.0042129
6270.0 0.0038582
6290.0 0.0035697
6310.0 0.0033838
6330.0 0.0032182
6350.0 0.0027978
6370.0 0.0027697
6390.0 0.0032941
6410.0 0.0041182
6430.0 0.004733
6450.0 0.0044059
6470.0 0.0042736
6490.0 0.0054158
6510.0 0.0062872
6530.0 0.0059278
6550.0 0.0056602
6570.0 0.0057506
6590.0 0.0055769
6610.0 0.0060903
6630.0 0.0056956
6650.0 0.0049674
6670.0 0.0044649
6690.0 0.0043776
6710.0 0.0054822
6730.0 0.0049982
6750.0 0.004192
6770.0 0.0037095
6790.0 0.003904
6810.0 0.0044004
6830.0 0.0043067
6850.0 0.0038793
6870.0 0.0040465
6890.0 0.0039978
6910.0 0.0037665
6930.0 0.0043535
6950.0 0.0039969
6970.0 0.00369
6990.0 0.0036607
7010.0 0.0035164
7030.0 0.0033319
7050.0 0.003246
7070.0 0.0035946
7090.0 0.0034227
7110.0 0.0029336
7130.0 0.0023475
7150.0 0.0021414
7170.0 0.0029044
7190.0 0.0031725
7210.0 0.0030278
7230.0 0.0031316
7250.0 0.0028838
7270.0 0.0027265
7290.0 0.0030527
7310.0 0.0034621
7330.0 0.0034129
7350.0 0.0031875
7370.0 0.0030095
7390.0 0.0031259
7410.0 0.0036595
7430.0 0.0040139
7450.0 0.0042427
7470.0 0.0041375
7490.0 0.0043094
7510.0 0.0041649
7530.0 0.0041338
7550.0 0.0041115
7570.0 0.0036259
7590.0 0.0035962
7610.0 0.0034805
7630.0 0.0031856
7650.0 0.0034695
7670.0 0.0037873
7690.0 0.0041114
7710.0 0.0046233
7730.0 0.0049182
7750.0 0.0051367
7770.0 0.0051634
7790.0 0.005671
7810.0 0.0058384
7830.0 0.0053256
7850.0 0.0053676
7870.0 0.0051172
7890.0 0.0053791
7910.0 0.0051021
7930.0 0.0051519
7950.0 0.0044929
7970.0 0.0046051
7990.0 0.0044053
8010.0 0.0044795
8030.0 0.0044592
8050.0 0.0046988
8070.0 0.0045165
8090.0 0.0045331
8110.0 0.0044364
8130.0 0.004437
8150.0 0.0042319
8170.0 0.0041225
8190.0 0.0040791
8210.0 0.0041135
8230.0 0.0036293
8250.0 0.0033173
8270.0 0.0029203
8290.0 0.0024491
8310.0 0.0021272
8330.0 0.0017044
8350.0 0.0014218
8370.0 0.0014408
8390.0 0.0014415
8410.0 0.0015144
8430.0 0.0018811
8450.0 0.0020213
8470.0 0.0021466
8490.0 0.0024813
8510.0 0.0027022
8530.0 0.0031066
8550.0 0.0036747
8570.0 0.0040728
8590.0 0.0043401
8610.0 0.0047534
8630.0 0.0052781
8650.0 0.0053758
8670.0 0.0054488
8690.0 0.0056712
8710.0 0.0055945
8730.0 0.0055064
8750.0 0.00517
8770.0 0.0051775
8790.0 0.0051121
8810.0 0.0047124
8830.0 0.004725
8850.0 0.004419
8870.0 0.0042442
8890.0 0.003854
8910.0 0.004175
8930.0 0.0038025
8950.0 0.0037563
8970.0 0.003785
8990.0 0.0036606
9010.0 0.0037411
9030.0 0.003578
9050.0 0.0035587
9070.0 0.0035559
9090.0 0.0035523
9110.0 0.0035502
9130.0 0.0035454
9150.0 0.0035392
9170.0 0.003524
9190.0 0.0034945
9210.0 0.0035399
9230.0 0.0035212
9250.0 0.0035084
9270.0 0.0034964
9290.0 0.003485
9310.0 0.003474
9330.0 0.003463
9350.0 0.0034518
9370.0 0.0034404
9390.0 0.0034286
9410.0 0.0034165
9430.0 0.003404
9450.0 0.0033912
9470.0 0.0033781
9490.0 0.0033649
9510.0 0.0033514
9530.0 0.0033376
9550.0 0.0033237
9570.0 0.0033095
9590.0 0.0032952
9610.0 0.0032807
9630.0 0.0032662
9650.0 0.0032515
9670.0 0.0032367
9690.0 0.0032219
9710.0 0.0032071
9730.0 0.0031922
9750.0 0.0031773
9770.0 0.0031624
9790.0 0.0031476
9810.0 0.0031328
9830.0 0.003118
9850.0 0.0031034
9870.0 0.0030887
9890.0 0.0030742
9910.0 0.0030599
9930.0 0.0030455
9950.0 0.0030238
9970.0 0.0030121
9990.0 0.0030001
10010.0 0.002988
10030.0 0.0029754
10050.0 0.0029619
10070.0 0.0029448
10090.0 0.0029337
10110.0 0.0029222
10130.0 0.0029107
10150.0 0.0028992
10170.0 0.0028875
10190.0 0.0028755
10210.0 0.0028641
10230.0 0.002853
10250.0 0.0028418
10270.0 0.0028308
10290.0 0.0028205
10310.0 0.0028101
10330.0 0.0027996
10350.0 0.0027899
10370.0 0.0027804
10390.0 0.0027709
10410.0 0.0027617
10430.0 0.0027531
10450.0 0.0027445
10470.0 0.002736
10490.0 0.002728
10510.0 0.0027204
10530.0 0.0027125
10550.0 0.0027051
10570.0 0.0026983
10590.0 0.0026914
10610.0 0.0026847
10630.0 0.0026786
10650.0 0.0026727
10670.0 0.0026666
10690.0 0.002661
10710.0 0.0026559
10730.0 0.0026507
10750.0 0.0026456
10770.0 0.0026412
10790.0 0.0026369
10810.0 0.0026325
10830.0 0.0026285
10850.0 0.0026247
10870.0 0.0026203
10890.0 0.0026152
10910.0 0.0026091
10930.0 0.0026006
10950.0 0.0025878
10970.0 0.0025702
10990.0 0.0025473
11010.0 0.0025331
11030.0 0.0024955
11050.0 0.0024516
11070.0 0.0024008
11090.0 0.002342
11110.0 0.0022831
11130.0 0.002224
11150.0 0.002163
11170.0 0.002103
11190.0 0.0020477
11210.0 0.0019932
11230.0 0.0019401
11250.0 0.0018919
11270.0 0.0018475
11290.0 0.0018046
11310.0 0.0017651
11330.0 0.0017311
11350.0 0.001699
11370.0 0.0016688
11390.0 0.0016419
11410.0 0.0016171
11430.0 0.0015921
11450.0 0.0015685
11470.0 0.0015459
11490.0 0.0015227
11510.0 0.0014981
11530.0 0.0014739
11550.0 0.001449
11570.0 0.0014217
11590.0 0.0013935
11610.0 0.0013651
11630.0 0.0013344
11650.0 0.0013017
11670.0 0.0012699
11690.0 0.0012377
11710.0 0.001204
11730.0 0.0011708
11750.0 0.0011395
11770.0 0.0011076
11790.0 0.0010762
11810.0 0.0010472
11830.0 0.0010197
11850.0 0.00099199
11870.0 0.00096685
11890.0 0.00094413
11910.0 0.00092201
11930.0 0.00090098
11950.0 0.00088214
11970.0 0.00086414
11990.0 0.0008462
12010.0 0.00082969
12030.0 0.00081435
12050.0 0.00079907
12070.0 0.00078404
12090.0 0.0007708
12110.0 0.00075797
12130.0 0.00074548
12150.0 0.00073432
12170.0 0.00072466
12190.0 0.00071556
12210.0 0.00070824
12230.0 0.00070317
12250.0 0.00070005
12270.0 0.00069916
12290.0 0.00070101
12310.0 0.00070547
12330.0 0.00071272
12350.0 0.0007228
12370.0 0.00073519
12390.0 0.00075002
12410.0 0.00076767
12430.0 0.00078628
12450.0 0.00080588
12470.0 0.00082675
12490.0 0.00084788
12510.0 0.0008681
12530.0 0.00088822
12550.0 0.00090777
12570.0 0.00092562
12590.0 0.00094196
12610.0 0.00095719
12630.0 0.00097067
12650.0 0.00098208
12670.0 0.00099209
12690.0 0.0010006
12710.0 0.0010074
12730.0 0.0010129
12750.0 0.001017
12770.0 0.0010198
12790.0 0.0010215
12810.0 0.0010219
12830.0 0.001021
12850.0 0.0010192
12870.0 0.0010165
12890.0 0.0010123
12910.0 0.0010071
12930.0 0.0010011
12950.0 0.00099366
12970.0 0.00098474
12990.0 0.00097534
13010.0 0.00096489
13030.0 0.00095291
13050.0 0.00094023
13070.0 0.00092742
13090.0 0.00091328
13110.0 0.0008985
13130.0 0.00088414
13150.0 0.0008698
13170.0 0.00085492
13190.0 0.00084134
13210.0 0.0008292
13230.0 0.00081782
13250.0 0.00080789
13270.0 0.00080012
13290.0 0.00079398
13310.0 0.00078942
13330.0 0.00078693
13350.0 0.00078611
13370.0 0.00078657
13390.0 0.00078812
13410.0 0.00079031
13430.0 0.00079269
13450.0 0.00079485
13470.0 0.00079636
13490.0 0.00079694
13510.0 0.00079613
13530.0 0.00079382
13550.0 0.00079015
13570.0 0.00078494
13590.0 0.00077808
13610.0 0.00077029
13630.0 0.00076186
13650.0 0.00075234
13670.0 0.0007425
13690.0 0.00073293
13710.0 0.00072331
13730.0 0.00071351
13750.0 0.00070476
13770.0 0.00069656
13790.0 0.00068859
13810.0 0.00068117
13830.0 0.00067449
13850.0 0.0006679
13870.0 0.00066145
13890.0 0.00065538
13910.0 0.00064944
13930.0 0.00064329
13950.0 0.00063719
13970.0 0.00063139
13990.0 0.00062546
14010.0 0.00061953
14030.0 0.00061394
14050.0 0.00060862
14070.0 0.00060336
14090.0 0.00059864
14110.0 0.00059448
14130.0 0.00059074
14150.0 0.00058752
14170.0 0.00058497
14190.0 0.00058297
14210.0 0.00058153
14230.0 0.00058069
14250.0 0.00058038
14270.0 0.00058067
14290.0 0.00058157
14310.0 0.00058288
14330.0 0.00058466
14350.0 0.00058698
14370.0 0.0005896
14390.0 0.00059232
14410.0 0.00059541
14430.0 0.0005986
14450.0 0.00060159
14470.0 0.00060449
14490.0 0.00060742
14510.0 0.00060994
14530.0 0.00061209
14550.0 0.00061414
14570.0 0.00061603
14590.0 0.00061768
14610.0 0.00061941
14630.0 0.00062144
14650.0 0.00062366
14670.0 0.00062623
14690.0 0.00062958
14710.0 0.00063379
14730.0 0.00063843
14750.0 0.00064411
14770.0 0.00065101
14790.0 0.00065863
14810.0 0.00066689
14830.0 0.00067675
14850.0 0.00068718
14870.0 0.00069764
14890.0 0.00070856
14910.0 0.00071974
14930.0 0.00072987
14950.0 0.0007387
14970.0 0.00074653
14990.0 0.00075228
15010.0 0.0007557
15030.0 0.0007572
15050.0 0.00075691
15070.0 0.0007549
15090.0 0.00075184
15110.0 0.00074804
15130.0 0.00074378
15150.0 0.00073931
15170.0 0.00073469
15190.0 0.00072998
15210.0 0.00072529
15230.0 0.0007206
15250.0 0.00071586
15270.0 0.00071114
15290.0 0.00070648
15310.0 0.00070179
15330.0 0.00069708
15350.0 0.00069243
15370.0 0.00068779
15390.0 0.00068309
15410.0 0.00067844
15430.0 0.00067384
15450.0 0.00066922
15470.0 0.00066458
15490.0 0.00066003
15510.0 0.00065548
15530.0 0.0006509
15550.0 0.00064637
15570.0 0.00064188
15590.0 0.00063737
15610.0 0.00063286
15630.0 0.00062843
15650.0 0.00062401
15670.0 0.00061957
15690.0 0.00061518
15710.0 0.00061085
15730.0 0.00060649
15750.0 0.00060216
15770.0 0.00059789
15790.0 0.00059363
15810.0 0.00058934
15830.0 0.00058513
15850.0 0.00058097
15870.0 0.0005768
15890.0 0.00057265
15910.0 0.00056857
15930.0 0.0005645
15950.0 0.00056042
15970.0 0.0005564
15990.0 0.00055243
16010.0 0.00054845
16030.0 0.00054449
16050.0 0.00054062
16070.0 0.00053675
16090.0 0.00053288
16110.0 0.00052908
16130.0 0.00052533
16150.0 0.00052154
16170.0 0.0005178
16190.0 0.00051413
16210.0 0.00051047
16230.0 0.00050682
16250.0 0.00050323
16270.0 0.00049969
16290.0 0.00049613
16310.0 0.00049262
16330.0 0.00048917
16350.0 0.00048572
16370.0 0.00048226
16390.0 0.0004789
16410.0 0.00047557
16430.0 0.00047223
16450.0 0.00046894
16470.0 0.00046571
16490.0 0.00046247
16510.0 0.00045925
16530.0 0.0004561
16550.0 0.00045298
16570.0 0.00044984
16590.0 0.00044675
16610.0 0.00044374
16630.0 0.00044072
16650.0 0.00043772
16670.0 0.00043478
16690.0 0.00043187
16710.0 0.00042894
16730.0 0.00042606
16750.0 0.00042324
16770.0 0.00042042
16790.0 0.00041762
16810.0 0.00041489
16830.0 0.00041217
16850.0 0.00040946
16870.0 0.00040679
16890.0 0.00040417
16910.0 0.00040154
16930.0 0.00039892
16950.0 0.00039638
16970.0 0.00039385
16990.0 0.00039132
17010.0 0.00038884
17030.0 0.00038642
17050.0 0.00038397
17070.0 0.00038155
17090.0 0.00037919
17110.0 0.00037684
17130.0 0.00037448
17150.0 0.00037218
17170.0 0.00036992
17190.0 0.00036766
17210.0 0.00036542
17230.0 0.00036323
17250.0 0.00036105
17270.0 0.00035886
17290.0 0.00035673
17310.0 0.00035463
17330.0 0.00035252
17350.0 0.00035043
17370.0 0.00034841
17390.0 0.00034639
17410.0 0.00034437
17430.0 0.0003424
17450.0 0.00034046
17470.0 0.00033849
17490.0 0.00033655
17510.0 0.00033468
17530.0 0.0003328
17550.0 0.00033092
17570.0 0.00032909
17590.0 0.00032729
17610.0 0.00032547
17630.0 0.00032369
17650.0 0.00032194
17670.0 0.0003202
17690.0 0.00031844
17710.0 0.00031675
17730.0 0.00031507
17750.0 0.00031339
17770.0 0.00031173
17790.0 0.00031013
17810.0 0.0003085
17830.0 0.00030688
17850.0 0.0003053
17870.0 0.00030375
17890.0 0.00030217
17910.0 0.00030063
17930.0 0.00029914
17950.0 0.00029763
17970.0 0.00029613
17990.0 0.00029468
18010.0 0.00029323
18030.0 0.00029176
18050.0 0.00029033
18070.0 0.00028894
18090.0 0.00028753
18110.0 0.00028613
18130.0 0.00028478
18150.0 0.00028344
18170.0 0.00028208
18190.0 0.00028075
18210.0 0.00027946
18230.0 0.00027814
18250.0 0.00027683
18270.0 0.00027558
18290.0 0.00027432
18310.0 0.00027305
18330.0 0.00027182
18350.0 0.00027062
18370.0 0.00026939
18390.0 0.00026818
18410.0 0.00026701
18430.0 0.00026584
18450.0 0.00026464
18470.0 0.00026349
18490.0 0.00026237
18510.0 0.00026123
18530.0 0.0002601
18550.0 0.00025901
18570.0 0.00025791
18590.0 0.00025679
18610.0 0.00025572
18630.0 0.00025467
18650.0 0.00025359
18670.0 0.00025253
18690.0 0.00025152
18710.0 0.00025049
18730.0 0.00024945
18750.0 0.00024845
18770.0 0.00024747
18790.0 0.00024644
18810.0 0.00024545
18830.0 0.0002445
18850.0 0.00024353
18870.0 0.00024255
18890.0 0.00024162
18910.0 0.0002407
18930.0 0.00023974
18950.0 0.00023882
18970.0 0.00023792
18990.0 0.00023701
19010.0 0.00023607
19030.0 0.0002352
19050.0 0.00023432
19070.0 0.00023343
19090.0 0.00023256
19110.0 0.00023172
19130.0 0.00023085
19150.0 0.00022998
19170.0 0.00022915
19190.0 0.00022832
19210.0 0.00022747
19230.0 0.00022664
19250.0 0.00022585
19270.0 0.00022504
19290.0 0.00022422
19310.0 0.00022344
19330.0 0.00022266
19350.0 0.00022184
19370.0 0.00022106
19390.0 0.0002203
19410.0 0.00021953
19430.0 0.00021874
19450.0 0.00021801
19470.0 0.00021726
19490.0 0.0002165
19510.0 0.00021576
19530.0 0.00021504
19550.0 0.00021429
19570.0 0.00021354
19590.0 0.00021284
19610.0 0.00021213
19630.0 0.0002114
19650.0 0.0002107
19670.0 0.00021001
19690.0 0.0002093
19710.0 0.00020859
19730.0 0.00020792
19750.0 0.00020723
19770.0 0.00020652
19790.0 0.00020585
19810.0 0.00020519
19830.0 0.0002045
19850.0 0.00020381
19870.0 0.00020314
19890.0 0.0002024
19910.0 0.00020157
19930.0 0.00020066
19950.0 0.00019959
19970.0 0.00019821
19990.0 0.0001965
20010.0 0.00019454
20030.0 0.00019213
20050.0 0.00018931
20070.0 0.00018627
20090.0 0.00018304
20110.0 0.00017942
20130.0 0.00017582
20150.0 0.00017231
20170.0 0.00016873
20190.0 0.00016515
20210.0 0.00016183
20230.0 0.00015864
20250.0 0.00015547
20270.0 0.00015258
20290.0 0.00014999
20310.0 0.00014756
20330.0 0.00014535
20350.0 0.0001436
20370.0 0.00014212
20390.0 0.00014092
20410.0 0.0001401
20430.0 0.00013963
20450.0 0.00013948
20470.0 0.0001397
20490.0 0.00014024
20510.0 0.00014109
20530.0 0.00014228
20550.0 0.00014373
20570.0 0.00014536
20590.0 0.00014726
20610.0 0.00014934
20630.0 0.00015148
20650.0 0.00015371
20670.0 0.0001561
20690.0 0.00015838
20710.0 0.00016057
20730.0 0.00016273
20750.0 0.00016477
20770.0 0.00016656
20790.0 0.00016822
20810.0 0.0001697
20830.0 0.00017094
20850.0 0.00017195
20870.0 0.00017279
20890.0 0.00017341
20910.0 0.00017382
20930.0 0.00017406
20950.0 0.00017414
20970.0 0.00017407
20990.0 0.00017388
21010.0 0.00017355
21030.0 0.00017311
21050.0 0.00017259
21070.0 0.00017197
21090.0 0.00017124
21110.0 0.00017047
21130.0 0.00016965
21150.0 0.00016874
21170.0 0.0001678
21190.0 0.00016688
21210.0 0.00016592
21230.0 0.00016494
21250.0 0.00016405
21270.0 0.0001632
21290.0 0.00016239
21310.0 0.00016167
21330.0 0.00016108
21350.0 0.00016058
21370.0 0.00016019
21390.0 0.00015995
21410.0 0.00015985
21430.0 0.00015987
21450.0 0.00016004
21470.0 0.00016034
21490.0 0.00016077
21510.0 0.00016134
21530.0 0.000162
21550.0 0.00016276
21570.0 0.00016365
21590.0 0.00016461
21610.0 0.00016563
21630.0 0.00016675
21650.0 0.00016797
21670.0 0.00016917
21690.0 0.00017044
21710.0 0.00017181
21730.0 0.0001732
21750.0 0.00017459
21770.0 0.00017612
21790.0 0.00017769
21810.0 0.00017925
21830.0 0.00018088
21850.0 0.00018261
21870.0 0.00018434
21890.0 0.00018606
21910.0 0.00018788
21930.0 0.00018973
21950.0 0.00019153
21970.0 0.00019336
21990.0 0.00019527
22010.0 0.00019707
22030.0 0.00019881
22050.0 0.00020053
22070.0 0.00020217
22090.0 0.00020364
22110.0 0.00020502
22130.0 0.00020628
22150.0 0.00020733
22170.0 0.00020818
22190.0 0.00020885
22210.0 0.00020926
22230.0 0.00020942
22250.0 0.00020933
22270.0 0.00020895
22290.0 0.00020832
22310.0 0.00020744
22330.0 0.00020622
22350.0 0.00020474
22370.0 0.00020306
22390.0 0.00020109
22410.0 0.00019882
22430.0 0.00019645
22450.0 0.00019392
22470.0 0.00019113
22490.0 0.00018824
22510.0 0.00018535
22530.0 0.00018225
22550.0 0.00017905
22570.0 0.00017596
22590.0 0.00017288
22610.0 0.00016973
22630.0 0.00016667
22650.0 0.00016381
22670.0 0.00016093
22690.0 0.00015812
22710.0 0.00015553
22730.0 0.00015307
22750.0 0.0001506
22770.0 0.00014836
22790.0 0.00014633
22810.0 0.00014437
22830.0 0.00014253
22850.0 0.0001409
22870.0 0.00013937
22890.0 0.00013793
22910.0 0.00013665
22930.0 0.00013552
22950.0 0.00013448
22970.0 0.00013354
22990.0 0.00013279
23010.0 0.00013214
23030.0 0.0001316
23050.0 0.00013119
