#lamb flux
1010.0 2.3274e-06
1030.0 2.5203e-06
1050.0 2.7924e-06
1070.0 3.0987e-06
1090.0 3.4329e-06
1110.0 3.7784e-06
1130.0 4.1283e-06
1150.0 4.4958e-06
1170.0 4.8744e-06
1190.0 5.2308e-06
1210.0 5.5876e-06
1230.0 5.9498e-06
1250.0 6.2993e-06
1270.0 6.6284e-06
1290.0 6.966e-06
1310.0 7.2915e-06
1330.0 7.5906e-06
1350.0 7.8835e-06
1370.0 8.179e-06
1390.0 8.4593e-06
1410.0 8.7259e-06
1430.0 9.0072e-06
1450.0 9.2907e-06
1470.0 9.5683e-06
1490.0 9.8579e-06
1510.0 1.0177e-05
1530.0 1.0491e-05
1550.0 1.0816e-05
1570.0 1.1169e-05
1590.0 1.1541e-05
1610.0 1.1919e-05
1630.0 1.2332e-05
1650.0 1.2775e-05
1670.0 1.3227e-05
1690.0 1.3696e-05
1710.0 1.4196e-05
1730.0 1.4716e-05
1750.0 1.5228e-05
1770.0 1.5761e-05
1790.0 1.6308e-05
1810.0 1.6846e-05
1830.0 1.7375e-05
1850.0 1.7917e-05
1870.0 1.8435e-05
1890.0 1.8919e-05
1910.0 1.9385e-05
1930.0 1.9828e-05
1950.0 2.0217e-05
1970.0 2.056e-05
1990.0 2.0873e-05
2010.0 2.1134e-05
2030.0 2.1334e-05
2050.0 2.15e-05
2070.0 2.1629e-05
2090.0 2.1696e-05
2110.0 2.1724e-05
2130.0 2.1729e-05
2150.0 2.1701e-05
2170.0 2.1636e-05
2190.0 2.1568e-05
2210.0 2.1493e-05
2230.0 2.1401e-05
2250.0 2.131e-05
2270.0 2.124e-05
2290.0 2.1172e-05
2310.0 2.1107e-05
2330.0 2.1071e-05
2350.0 2.1059e-05
2370.0 2.106e-05
2390.0 2.1093e-05
2410.0 2.1172e-05
2430.0 2.1279e-05
2450.0 2.1422e-05
2470.0 2.1622e-05
2490.0 2.1885e-05
2510.0 2.2198e-05
2530.0 2.2625e-05
2550.0 2.3257e-05
2570.0 2.4181e-05
2590.0 2.552e-05
2610.0 2.7615e-05
2630.0 3.0568e-05
2650.0 3.4272e-05
2670.0 3.8804e-05
2690.0 4.404e-05
2710.0 4.9292e-05
2730.0 5.4165e-05
2750.0 5.8603e-05
2770.0 6.2075e-05
2790.0 6.4454e-05
2810.0 6.5927e-05
2830.0 6.6595e-05
2850.0 6.668e-05
2870.0 6.6455e-05
2890.0 6.604e-05
2910.0 6.5594e-05
2930.0 6.5255e-05
2950.0 6.4966e-05
2970.0 6.4768e-05
2990.0 6.4741e-05
3010.0 8.6816e-05
3030.0 8.7083e-05
3050.0 8.7513e-05
3070.0 8.8158e-05
3090.0 8.8841e-05
3110.0 8.9511e-05
3130.0 9.0154e-05
3150.0 9.1011e-05
3170.0 9.1382e-05
3190.0 0.00010558
3210.0 0.00016755
3230.0 0.00026721
3250.0 0.00031672
3270.0 0.00028457
3290.0 0.00022871
3310.0 0.00019871
3330.0 0.00018815
3350.0 0.00018975
3370.0 0.00019487
3390.0 0.00020081
3410.0 0.00020625
3430.0 0.00020669
3450.0 0.00020997
3470.0 0.00021454
3490.0 0.00022924
3510.0 0.00025691
3530.0 0.00028945
3550.0 0.00034769
3570.0 0.00041858
3590.0 0.00045603
3610.0 0.00046387
3630.0 0.00046516
3650.0 0.0004708
3670.0 0.00051184
3690.0 0.00060862
3710.0 0.00071396
3730.0 0.00078733
3750.0 0.00084439
3770.0 0.00084739
3790.0 0.00080387
3810.0 0.00074216
3830.0 0.00065869
3850.0 0.00059146
3870.0 0.00056482
3890.0 0.0006277
3910.0 0.00074942
3930.0 0.00087345
3950.0 0.00097256
3970.0 0.0010242
3990.0 0.0010346
4010.0 0.0010202
4030.0 0.00091316
4050.0 0.00076029
4070.0 0.0006791
4090.0 0.00068764
4110.0 0.00073824
4130.0 0.0007626
4150.0 0.00076726
4170.0 0.00076521
4190.0 0.00077569
4210.0 0.0007817
4230.0 0.00080842
4250.0 0.00083251
4270.0 0.0008537
4290.0 0.00086344
4310.0 0.00088046
4330.0 0.00090169
4350.0 0.00091393
4370.0 0.00088334
4390.0 0.00081043
4410.0 0.00071319
4430.0 0.00062201
4450.0 0.00056835
4470.0 0.00057249
4490.0 0.00061781
4510.0 0.00069389
4530.0 0.00080964
4550.0 0.00098846
4570.0 0.0011987
4590.0 0.0014423
4610.0 0.001684
4630.0 0.0018321
4650.0 0.0018767
4670.0 0.0018498
4690.0 0.0017231
4710.0 0.001506
4730.0 0.0012597
4750.0 0.0010551
4770.0 0.00092524
4790.0 0.00089897
4810.0 0.00092747
4830.0 0.00097698
4850.0 0.0010464
4870.0 0.0011291
4890.0 0.0011777
4910.0 0.0012238
4930.0 0.0013153
4950.0 0.001414
4970.0 0.0014406
4990.0 0.0013692
5010.0 0.0012232
5030.0 0.0010465
5050.0 0.00090688
5070.0 0.00082119
5090.0 0.00077984
5110.0 0.00077633
5130.0 0.00078051
5150.0 0.00077891
5170.0 0.00078774
5190.0 0.00082726
5210.0 0.00091487
5230.0 0.0010345
5250.0 0.0011869
5270.0 0.0013504
5290.0 0.0014824
5310.0 0.0015891
5330.0 0.0016926
5350.0 0.0017601
5370.0 0.001763
5390.0 0.0017443
5410.0 0.0017651
5430.0 0.001875
5450.0 0.0020816
5470.0 0.0023101
5490.0 0.0024663
5510.0 0.0025287
5530.0 0.0025322
5550.0 0.0025009
5570.0 0.002447
5590.0 0.0023959
5610.0 0.0023581
5630.0 0.0023344
5650.0 0.0022804
5670.0 0.0021586
5690.0 0.0020159
5710.0 0.0019037
5730.0 0.0018152
5750.0 0.0017936
5770.0 0.0018466
5790.0 0.0019122
5810.0 0.0019478
5830.0 0.0019745
5850.0 0.0019808
5870.0 0.0019559
5890.0 0.0019598
5910.0 0.0019863
5930.0 0.0019471
5950.0 0.001828
5970.0 0.0016612
5990.0 0.0014898
6010.0 0.0013606
6030.0 0.0013088
6050.0 0.0013471
6070.0 0.001408
6090.0 0.001402
6110.0 0.0013652
6130.0 0.0013794
6150.0 0.0014429
6170.0 0.0015038
6190.0 0.0015354
6210.0 0.001533
6230.0 0.0014713
6250.0 0.0013465
6270.0 0.0011949
6290.0 0.0010732
6310.0 0.0010431
6330.0 0.0010971
6350.0 0.0011748
6370.0 0.0012533
6390.0 0.0013781
6410.0 0.0015533
6430.0 0.0016927
6450.0 0.0017653
6470.0 0.0018145
6490.0 0.0018562
6510.0 0.0018751
6530.0 0.0018842
6550.0 0.0019087
6570.0 0.0019212
6590.0 0.0019127
6610.0 0.0018716
6630.0 0.0017906
6650.0 0.0016769
6670.0 0.001565
6690.0 0.0014912
6710.0 0.0014363
6730.0 0.0013754
6750.0 0.0013417
6770.0 0.0013635
6790.0 0.0013948
6810.0 0.0013957
6830.0 0.0013716
6850.0 0.0013371
6870.0 0.0013025
6890.0 0.0012731
6910.0 0.0012746
6930.0 0.0012861
6950.0 0.0012871
6970.0 0.0012861
6990.0 0.0012714
7010.0 0.0012333
7030.0 0.001163
7050.0 0.0010658
7070.0 0.00099078
7090.0 0.0009824
7110.0 0.0010065
7130.0 0.00099408
7150.0 0.00095617
7170.0 0.00096133
7190.0 0.0010256
7210.0 0.0011007
7230.0 0.0011598
7250.0 0.0011914
7270.0 0.0011697
7290.0 0.001122
7310.0 0.001092
7330.0 0.0011058
7350.0 0.0011408
7370.0 0.0011657
7390.0 0.0012069
7410.0 0.0012812
7430.0 0.0013546
7450.0 0.0014038
7470.0 0.0014122
7490.0 0.0013457
7510.0 0.0012546
7530.0 0.0012082
7550.0 0.0011513
7570.0 0.0010936
7590.0 0.0010638
7610.0 0.0010543
7630.0 0.0010701
7650.0 0.0011236
7670.0 0.0011958
7690.0 0.001261
7710.0 0.0013023
7730.0 0.0013349
7750.0 0.0013609
7770.0 0.0013746
7790.0 0.0013875
7810.0 0.0013792
7830.0 0.0013261
7850.0 0.0012673
7870.0 0.001225
7890.0 0.0012012
7910.0 0.0011898
7930.0 0.0011552
7950.0 0.0011133
7970.0 0.0010671
7990.0 0.0010303
8010.0 0.00096586
8030.0 0.00095768
8050.0 0.00094697
8070.0 0.00092716
8090.0 0.00091039
8110.0 0.00089337
8130.0 0.00088729
8150.0 0.00087445
8170.0 0.00085446
8190.0 0.00082339
8210.0 0.00078394
8230.0 0.00074822
8250.0 0.00073138
8270.0 0.00068906
8290.0 0.00060568
8310.0 0.00051636
8330.0 0.00045557
8350.0 0.00043554
8370.0 0.00046693
8390.0 0.00051889
8410.0 0.00054982
8430.0 0.00057119
8450.0 0.00060802
8470.0 0.00064917
8490.0 0.00070178
8510.0 0.00076003
8530.0 0.00081849
8550.0 0.00086247
8570.0 0.00089274
8590.0 0.00091364
8610.0 0.00092494
8630.0 0.00091747
8650.0 0.00089507
8670.0 0.00089032
8690.0 0.00092565
8710.0 0.00097481
8730.0 0.00099193
8750.0 0.00097576
8770.0 0.00097614
8790.0 0.00096967
8810.0 0.00092607
8830.0 0.00085258
8850.0 0.0007638
8870.0 0.0006969
8890.0 0.00067245
8910.0 0.00065225
8930.0 0.00060539
8950.0 0.000558
8970.0 0.00053752
8990.0 0.00053723
9010.0 0.00052948
9030.0 0.00052125
9050.0 0.00051656
9070.0 0.00051388
9090.0 0.0005115
9110.0 0.00050917
9130.0 0.00050686
9150.0 0.00050459
9170.0 0.00050228
9190.0 0.00050026
9210.0 0.00049873
9230.0 0.00049623
9250.0 0.00049389
9270.0 0.00049167
9290.0 0.00048953
9310.0 0.00048742
9330.0 0.00048536
9350.0 0.00048337
9370.0 0.0004814
9390.0 0.00047943
9410.0 0.0004775
9430.0 0.00047549
9450.0 0.00047291
9470.0 0.00047056
9490.0 0.00046934
9510.0 0.00046782
9530.0 0.00046625
9550.0 0.00046458
9570.0 0.00046287
9590.0 0.00046119
9610.0 0.0004595
9630.0 0.00045779
9650.0 0.0004561
9670.0 0.00045447
9690.0 0.00045281
9710.0 0.00045116
9730.0 0.00044956
9750.0 0.00044796
9770.0 0.00044631
9790.0 0.00044471
9810.0 0.00044315
9830.0 0.00044155
9850.0 0.00043993
9870.0 0.00043839
9890.0 0.00043684
9910.0 0.00043525
9930.0 0.00043367
9950.0 0.000431
9970.0 0.00042974
9990.0 0.00042839
10010.0 0.00042706
10030.0 0.00042561
10050.0 0.00042408
10070.0 0.00042255
10090.0 0.00042104
10110.0 0.00041929
10130.0 0.00041701
10150.0 0.00041551
10170.0 0.00041408
10190.0 0.00041245
10210.0 0.00041089
10230.0 0.00040931
10250.0 0.00040755
10270.0 0.00040578
10290.0 0.00040411
10310.0 0.00040228
10330.0 0.00040033
10350.0 0.00039851
10370.0 0.00039668
10390.0 0.00039469
10410.0 0.00039269
10430.0 0.00039083
10450.0 0.0003888
10470.0 0.00038668
10490.0 0.00038464
10510.0 0.00038259
10530.0 0.0003803
10550.0 0.00037806
10570.0 0.00037592
10590.0 0.00037363
10610.0 0.00037123
10630.0 0.00036895
10650.0 0.00036661
10670.0 0.00036406
10690.0 0.00036155
10710.0 0.00035909
10730.0 0.00035648
10750.0 0.0003537
10770.0 0.00035112
10790.0 0.00034845
10810.0 0.0003456
10830.0 0.00034278
10850.0 0.00034005
10870.0 0.00033702
10890.0 0.00033396
10910.0 0.00033101
10930.0 0.00032796
10950.0 0.00032472
10970.0 0.00032153
10990.0 0.00031844
11010.0 0.00033338
11030.0 0.00032995
11050.0 0.00032667
11070.0 0.00032337
11090.0 0.00031988
11110.0 0.00031664
11130.0 0.00031349
11150.0 0.00031026
11170.0 0.00030706
11190.0 0.00030409
11210.0 0.00030108
11230.0 0.00029804
11250.0 0.00029518
11270.0 0.00029245
11290.0 0.00028967
11310.0 0.00028697
11330.0 0.00028452
11350.0 0.00028205
11370.0 0.00027956
11390.0 0.00027717
11410.0 0.00027481
11430.0 0.00027226
11450.0 0.00026967
11470.0 0.00026705
11490.0 0.00026423
11510.0 0.00026114
11530.0 0.00025799
11550.0 0.00025469
11570.0 0.00025107
11590.0 0.00024729
11610.0 0.00024348
11630.0 0.00023939
11650.0 0.00023506
11670.0 0.00023082
11690.0 0.00022651
11710.0 0.00022199
11730.0 0.00021748
11750.0 0.0002131
11770.0 0.00020854
11790.0 0.0002039
11810.0 0.0001994
11830.0 0.00019489
11850.0 0.00019016
11870.0 0.00018558
11890.0 0.00018115
11910.0 0.00017664
11930.0 0.00017214
11950.0 0.00016788
11970.0 0.00016368
11990.0 0.00015946
12010.0 0.00015548
12030.0 0.00015175
12050.0 0.0001481
12070.0 0.0001446
12090.0 0.00014149
12110.0 0.00013856
12130.0 0.0001358
12150.0 0.00013336
12170.0 0.00013122
12190.0 0.00012926
12210.0 0.00012762
12230.0 0.00012631
12250.0 0.00012527
12270.0 0.00012451
12290.0 0.00012406
12310.0 0.00012385
12330.0 0.00012391
12350.0 0.0001242
12370.0 0.00012465
12390.0 0.00012527
12410.0 0.00012611
12430.0 0.00012696
12450.0 0.00012786
12470.0 0.00012884
12490.0 0.00012983
12510.0 0.00013073
12530.0 0.00013163
12550.0 0.0001325
12570.0 0.00013323
12590.0 0.00013383
12610.0 0.00013435
12630.0 0.0001347
12650.0 0.00013483
12670.0 0.00013479
12690.0 0.00013455
12710.0 0.00013407
12730.0 0.00013337
12750.0 0.00013244
12770.0 0.00013128
12790.0 0.00012994
12810.0 0.00012839
12830.0 0.00012664
12850.0 0.0001248
12870.0 0.00012287
12890.0 0.00012081
12910.0 0.00011873
12930.0 0.00011667
12950.0 0.00011457
12970.0 0.00011247
12990.0 0.00011048
13010.0 0.00010854
13030.0 0.00010662
13050.0 0.00010479
13070.0 0.00010308
13090.0 0.00010138
13110.0 9.9732e-05
13130.0 9.8189e-05
13150.0 9.6704e-05
13170.0 9.5231e-05
13190.0 9.3851e-05
13210.0 9.2555e-05
13230.0 9.1287e-05
13250.0 9.0067e-05
13270.0 8.8931e-05
13290.0 8.7833e-05
13310.0 8.6755e-05
13330.0 8.574e-05
13350.0 8.4776e-05
13370.0 8.3827e-05
13390.0 8.29e-05
13410.0 8.2033e-05
13430.0 8.1179e-05
13450.0 8.0331e-05
13470.0 7.9512e-05
13490.0 7.8721e-05
13510.0 7.7911e-05
13530.0 7.7116e-05
13550.0 7.6346e-05
13570.0 7.5575e-05
13590.0 7.4792e-05
13610.0 7.4029e-05
13630.0 7.3282e-05
13650.0 7.2517e-05
13670.0 7.1759e-05
13690.0 7.1024e-05
13710.0 7.0287e-05
13730.0 6.9532e-05
13750.0 6.8817e-05
13770.0 6.8116e-05
13790.0 6.741e-05
13810.0 6.6719e-05
13830.0 6.6065e-05
13850.0 6.5409e-05
13870.0 6.4762e-05
13890.0 6.415e-05
13910.0 6.3561e-05
13930.0 6.2973e-05
13950.0 6.2408e-05
13970.0 6.1885e-05
13990.0 6.1365e-05
14010.0 6.0854e-05
14030.0 6.0369e-05
14050.0 5.9897e-05
14070.0 5.9411e-05
14090.0 5.894e-05
14110.0 5.8485e-05
14130.0 5.8023e-05
14150.0 5.7555e-05
14170.0 5.7112e-05
14190.0 5.6677e-05
14210.0 5.6239e-05
14230.0 5.5822e-05
14250.0 5.5436e-05
14270.0 5.5057e-05
14290.0 5.4699e-05
14310.0 5.4386e-05
14330.0 5.4099e-05
14350.0 5.3834e-05
14370.0 5.3603e-05
14390.0 5.3406e-05
14410.0 5.3225e-05
14430.0 5.3064e-05
14450.0 5.2926e-05
14470.0 5.28e-05
14490.0 5.2678e-05
14510.0 5.2567e-05
14530.0 5.2465e-05
14550.0 5.2361e-05
14570.0 5.226e-05
14590.0 5.217e-05
14610.0 5.2085e-05
14630.0 5.2008e-05
14650.0 5.1958e-05
14670.0 5.1939e-05
14690.0 5.1959e-05
14710.0 5.2036e-05
14730.0 5.2181e-05
14750.0 5.2408e-05
14770.0 5.274e-05
14790.0 5.3179e-05
14810.0 5.373e-05
14830.0 5.4453e-05
14850.0 5.5318e-05
14870.0 5.6296e-05
14890.0 5.7418e-05
14910.0 5.8678e-05
14930.0 5.9963e-05
14950.0 6.1234e-05
14970.0 6.2503e-05
14990.0 6.3648e-05
15010.0 6.4614e-05
15030.0 6.5426e-05
15050.0 6.6084e-05
15070.0 6.6568e-05
15090.0 6.6948e-05
15110.0 6.7259e-05
15130.0 6.7523e-05
15150.0 6.7763e-05
15170.0 6.7995e-05
15190.0 6.8224e-05
15210.0 6.8456e-05
15230.0 6.8692e-05
15250.0 6.8932e-05
15270.0 6.9177e-05
15290.0 6.9428e-05
15310.0 6.9682e-05
15330.0 6.9942e-05
15350.0 7.0206e-05
15370.0 7.0475e-05
15390.0 7.0748e-05
15410.0 7.1026e-05
15430.0 7.1308e-05
15450.0 7.1595e-05
15470.0 7.1885e-05
15490.0 7.2181e-05
15510.0 7.248e-05
15530.0 7.2783e-05
15550.0 7.3091e-05
15570.0 7.3402e-05
15590.0 7.3718e-05
15610.0 7.4036e-05
15630.0 7.4359e-05
15650.0 7.4686e-05
15670.0 7.5015e-05
15690.0 7.5349e-05
15710.0 7.5685e-05
15730.0 7.6025e-05
15750.0 7.6368e-05
15770.0 7.6715e-05
15790.0 7.7064e-05
15810.0 7.7416e-05
15830.0 7.777e-05
15850.0 7.8128e-05
15870.0 7.8488e-05
15890.0 7.8851e-05
15910.0 7.9216e-05
15930.0 7.9583e-05
15950.0 7.9952e-05
15970.0 8.0324e-05
15990.0 8.0697e-05
16010.0 8.1073e-05
16030.0 8.1449e-05
16050.0 8.1828e-05
16070.0 8.2208e-05
16090.0 8.2589e-05
16110.0 8.2971e-05
16130.0 8.3355e-05
16150.0 8.3739e-05
16170.0 8.4124e-05
16190.0 8.451e-05
16210.0 8.4897e-05
16230.0 8.5283e-05
16250.0 8.5671e-05
16270.0 8.6058e-05
16290.0 8.6445e-05
16310.0 8.6832e-05
16330.0 8.7219e-05
16350.0 8.7606e-05
16370.0 8.7991e-05
16390.0 8.8377e-05
16410.0 8.8761e-05
16430.0 8.9144e-05
16450.0 8.9526e-05
16470.0 8.9907e-05
16490.0 9.0287e-05
16510.0 9.0664e-05
16530.0 9.104e-05
16550.0 9.1415e-05
16570.0 9.1787e-05
16590.0 9.2156e-05
16610.0 9.2524e-05
16630.0 9.2889e-05
16650.0 9.3252e-05
16670.0 9.3611e-05
16690.0 9.3968e-05
16710.0 9.4322e-05
16730.0 9.4672e-05
16750.0 9.5019e-05
16770.0 9.5363e-05
16790.0 9.5702e-05
16810.0 9.6038e-05
16830.0 9.637e-05
16850.0 9.6698e-05
16870.0 9.7021e-05
16890.0 9.7341e-05
16910.0 9.7655e-05
16930.0 9.7965e-05
16950.0 9.827e-05
16970.0 9.857e-05
16990.0 9.8865e-05
17010.0 9.9155e-05
17030.0 9.944e-05
17050.0 9.9718e-05
17070.0 9.9991e-05
17090.0 0.00010026
17110.0 0.00010052
17130.0 0.00010078
17150.0 0.00010103
17170.0 0.00010127
17190.0 0.00010151
17210.0 0.00010174
17230.0 0.00010196
17250.0 0.00010218
17270.0 0.00010239
17290.0 0.00010259
17310.0 0.00010279
17330.0 0.00010298
17350.0 0.00010316
17370.0 0.00010333
17390.0 0.0001035
17410.0 0.00010366
17430.0 0.00010381
17450.0 0.00010396
17470.0 0.0001041
17490.0 0.00010423
17510.0 0.00010435
17530.0 0.00010446
17550.0 0.00010457
17570.0 0.00010467
17590.0 0.00010476
17610.0 0.00010484
17630.0 0.00010491
17650.0 0.00010498
17670.0 0.00010504
17690.0 0.00010509
17710.0 0.00010513
17730.0 0.00010516
17750.0 0.00010519
17770.0 0.0001052
17790.0 0.00010521
17810.0 0.00010521
17830.0 0.0001052
17850.0 0.00010519
17870.0 0.00010516
17890.0 0.00010513
17910.0 0.00010509
17930.0 0.00010504
17950.0 0.00010498
17970.0 0.00010491
17990.0 0.00010484
18010.0 0.00010475
18030.0 0.00010466
18050.0 0.00010456
18070.0 0.00010445
18090.0 0.00010434
18110.0 0.00010421
18130.0 0.00010408
18150.0 0.00010394
18170.0 0.00010379
18190.0 0.00010364
18210.0 0.00010348
18230.0 0.0001033
18250.0 0.00010313
18270.0 0.00010294
18290.0 0.00010275
18310.0 0.00010254
18330.0 0.00010234
18350.0 0.00010212
18370.0 0.0001019
18390.0 0.00010167
18410.0 0.00010143
18430.0 0.00010118
18450.0 0.00010093
18470.0 0.00010068
18490.0 0.00010041
18510.0 0.00010014
18530.0 9.9862e-05
18550.0 9.9578e-05
18570.0 9.9287e-05
18590.0 9.899e-05
18610.0 9.8688e-05
18630.0 9.8379e-05
18650.0 9.8064e-05
18670.0 9.7744e-05
18690.0 9.7418e-05
18710.0 9.7087e-05
18730.0 9.675e-05
18750.0 9.6407e-05
18770.0 9.606e-05
18790.0 9.5707e-05
18810.0 9.535e-05
18830.0 9.4987e-05
18850.0 9.462e-05
18870.0 9.4248e-05
18890.0 9.3872e-05
18910.0 9.3491e-05
18930.0 9.3106e-05
18950.0 9.2717e-05
18970.0 9.2324e-05
18990.0 9.1926e-05
19010.0 9.1525e-05
19030.0 9.1121e-05
19050.0 9.0712e-05
19070.0 9.0301e-05
19090.0 8.9885e-05
19110.0 8.9467e-05
19130.0 8.9046e-05
19150.0 8.8621e-05
19170.0 8.8194e-05
19190.0 8.7764e-05
19210.0 8.7331e-05
19230.0 8.6896e-05
19250.0 8.6459e-05
19270.0 8.6019e-05
19290.0 8.5577e-05
19310.0 8.5133e-05
19330.0 8.4687e-05
19350.0 8.4238e-05
19370.0 8.3789e-05
19390.0 8.3337e-05
19410.0 8.2884e-05
19430.0 8.243e-05
19450.0 8.1974e-05
19470.0 8.1517e-05
19490.0 8.1059e-05
19510.0 8.06e-05
19530.0 8.014e-05
19550.0 7.9679e-05
19570.0 7.9218e-05
19590.0 7.8756e-05
19610.0 7.8293e-05
19630.0 7.783e-05
19650.0 7.7366e-05
19670.0 7.6903e-05
19690.0 7.6439e-05
19710.0 7.5975e-05
19730.0 7.5511e-05
19750.0 7.5047e-05
19770.0 7.4583e-05
19790.0 7.4119e-05
19810.0 7.3655e-05
19830.0 7.3191e-05
19850.0 7.2723e-05
19870.0 7.225e-05
19890.0 7.1764e-05
19910.0 7.1251e-05
19930.0 7.07e-05
19950.0 7.009e-05
19970.0 6.9389e-05
19990.0 6.8579e-05
20010.0 6.7675e-05
20030.0 6.664e-05
20050.0 6.5482e-05
20070.0 6.4259e-05
20090.0 6.2983e-05
20110.0 6.1612e-05
20130.0 6.0254e-05
20150.0 5.8931e-05
20170.0 5.7599e-05
20190.0 5.6278e-05
20210.0 5.5029e-05
20230.0 5.3816e-05
20250.0 5.2611e-05
20270.0 5.1472e-05
20290.0 5.0402e-05
20310.0 4.9362e-05
20330.0 4.8357e-05
20350.0 4.7452e-05
20370.0 4.6594e-05
20390.0 4.5776e-05
20410.0 4.5024e-05
20430.0 4.434e-05
20450.0 4.3687e-05
20470.0 4.3089e-05
20490.0 4.255e-05
20510.0 4.2052e-05
20530.0 4.1591e-05
20550.0 4.1173e-05
20570.0 4.0791e-05
20590.0 4.0435e-05
20610.0 4.0105e-05
20630.0 3.9798e-05
20650.0 3.9506e-05
20670.0 3.9227e-05
20690.0 3.8957e-05
20710.0 3.8692e-05
20730.0 3.8427e-05
20750.0 3.8159e-05
20770.0 3.7885e-05
20790.0 3.7604e-05
20810.0 3.731e-05
20830.0 3.7005e-05
20850.0 3.6688e-05
20870.0 3.6353e-05
20890.0 3.6003e-05
20910.0 3.5643e-05
20930.0 3.5267e-05
20950.0 3.4875e-05
20970.0 3.4477e-05
20990.0 3.4071e-05
21010.0 3.3649e-05
21030.0 3.3223e-05
21050.0 3.2798e-05
21070.0 3.2368e-05
21090.0 3.193e-05
21110.0 3.1503e-05
21130.0 3.108e-05
21150.0 3.0655e-05
21170.0 3.0236e-05
21190.0 2.9832e-05
21210.0 2.9427e-05
21230.0 2.9026e-05
21250.0 2.8643e-05
21270.0 2.8269e-05
21290.0 2.7899e-05
21310.0 2.7542e-05
21330.0 2.7203e-05
21350.0 2.687e-05
21370.0 2.6547e-05
21390.0 2.624e-05
21410.0 2.5946e-05
21430.0 2.5658e-05
21450.0 2.5387e-05
21470.0 2.5131e-05
21490.0 2.4884e-05
21510.0 2.4649e-05
21530.0 2.4429e-05
21550.0 2.4218e-05
21570.0 2.4016e-05
21590.0 2.3824e-05
21610.0 2.3642e-05
21630.0 2.3466e-05
21650.0 2.3296e-05
21670.0 2.3132e-05
21690.0 2.2973e-05
21710.0 2.2818e-05
21730.0 2.2665e-05
21750.0 2.2516e-05
21770.0 2.2368e-05
21790.0 2.2222e-05
21810.0 2.2078e-05
21830.0 2.1935e-05
21850.0 2.1793e-05
21870.0 2.1653e-05
21890.0 2.1514e-05
21910.0 2.1375e-05
21930.0 2.1238e-05
21950.0 2.1101e-05
21970.0 2.0965e-05
21990.0 2.0829e-05
22010.0 2.0692e-05
22030.0 2.0555e-05
22050.0 2.0417e-05
22070.0 2.0277e-05
22090.0 2.0136e-05
22110.0 1.9992e-05
22130.0 1.9844e-05
22150.0 1.9695e-05
22170.0 1.9543e-05
22190.0 1.9385e-05
22210.0 1.9225e-05
22230.0 1.9063e-05
22250.0 1.8896e-05
22270.0 1.8725e-05
22290.0 1.8552e-05
22310.0 1.8376e-05
22330.0 1.8193e-05
22350.0 1.8007e-05
22370.0 1.7819e-05
22390.0 1.7625e-05
22410.0 1.7422e-05
22430.0 1.722e-05
22450.0 1.7014e-05
22470.0 1.6798e-05
22490.0 1.6579e-05
22510.0 1.636e-05
22530.0 1.6131e-05
22550.0 1.5895e-05
22570.0 1.5662e-05
22590.0 1.5427e-05
22610.0 1.5185e-05
22630.0 1.4944e-05
22650.0 1.4711e-05
22670.0 1.4474e-05
22690.0 1.4237e-05
22710.0 1.401e-05
22730.0 1.3789e-05
22750.0 1.3564e-05
22770.0 1.3353e-05
