#lamb flux
1010.0 1.2625e-08
1030.0 1.4078e-08
1050.0 1.5748e-08
1070.0 1.7629e-08
1090.0 1.9764e-08
1110.0 2.1955e-08
1130.0 2.416e-08
1150.0 2.647e-08
1170.0 2.8852e-08
1190.0 3.1111e-08
1210.0 3.3401e-08
1230.0 3.5767e-08
1250.0 3.8085e-08
1270.0 4.0336e-08
1290.0 4.2715e-08
1310.0 4.5092e-08
1330.0 4.7371e-08
1350.0 4.9676e-08
1370.0 5.2056e-08
1390.0 5.4376e-08
1410.0 5.6626e-08
1430.0 5.8979e-08
1450.0 6.1331e-08
1470.0 6.3605e-08
1490.0 6.5902e-08
1510.0 6.8328e-08
1530.0 7.0626e-08
1550.0 7.2892e-08
1570.0 7.5236e-08
1590.0 7.758e-08
1610.0 7.9819e-08
1630.0 8.2125e-08
1650.0 8.4491e-08
1670.0 8.6776e-08
1690.0 8.903e-08
1710.0 9.1367e-08
1730.0 9.3714e-08
1750.0 9.5915e-08
1770.0 9.8176e-08
1790.0 1.0048e-07
1810.0 1.027e-07
1830.0 1.0487e-07
1850.0 1.0717e-07
1870.0 1.0939e-07
1890.0 1.1153e-07
1910.0 1.1369e-07
1930.0 1.1589e-07
1950.0 1.1797e-07
1970.0 1.2e-07
1990.0 1.2209e-07
2010.0 1.2411e-07
2030.0 1.2603e-07
2050.0 1.2797e-07
2070.0 1.2994e-07
2090.0 1.3173e-07
2110.0 1.3348e-07
2130.0 1.3524e-07
2150.0 1.3691e-07
2170.0 1.3842e-07
2190.0 1.3996e-07
2210.0 1.4144e-07
2230.0 1.4277e-07
2250.0 1.4402e-07
2270.0 1.4529e-07
2290.0 1.4641e-07
2310.0 1.4736e-07
2330.0 1.483e-07
2350.0 1.4918e-07
2370.0 1.4992e-07
2390.0 1.5067e-07
2410.0 1.5158e-07
2430.0 1.5257e-07
2450.0 1.5375e-07
2470.0 1.5538e-07
2490.0 1.5759e-07
2510.0 1.6015e-07
2530.0 1.6355e-07
2550.0 1.6847e-07
2570.0 1.7545e-07
2590.0 1.8549e-07
2610.0 2.0168e-07
2630.0 2.2512e-07
2650.0 2.5504e-07
2670.0 2.9238e-07
2690.0 3.3615e-07
2710.0 3.8004e-07
2730.0 4.2044e-07
2750.0 4.5744e-07
2770.0 4.8645e-07
2790.0 5.0631e-07
2810.0 5.1932e-07
2830.0 5.2696e-07
2850.0 5.2915e-07
2870.0 5.284e-07
2890.0 5.261e-07
2910.0 5.2268e-07
2930.0 5.1851e-07
2950.0 5.1431e-07
2970.0 5.1018e-07
2990.0 5.0597e-07
3010.0 1.4258e-05
3030.0 1.4148e-05
3050.0 1.4039e-05
3070.0 1.3923e-05
3090.0 1.3802e-05
3110.0 1.3662e-05
3130.0 1.3487e-05
3150.0 1.3267e-05
3170.0 1.298e-05
3190.0 1.2632e-05
3210.0 1.2247e-05
3230.0 1.1842e-05
3250.0 1.1452e-05
3270.0 1.1166e-05
3290.0 1.0977e-05
3310.0 1.0955e-05
3330.0 1.1067e-05
3350.0 1.1298e-05
3370.0 1.1652e-05
3390.0 1.2112e-05
3410.0 1.2623e-05
3430.0 1.3206e-05
3450.0 1.3885e-05
3470.0 1.4631e-05
3490.0 1.543e-05
3510.0 1.6337e-05
3530.0 1.7321e-05
3550.0 1.836e-05
3570.0 1.9495e-05
3590.0 2.0776e-05
3610.0 2.2185e-05
3630.0 2.3628e-05
3650.0 2.516e-05
3670.0 2.6569e-05
3690.0 2.7641e-05
3710.0 2.822e-05
3730.0 2.803e-05
3750.0 2.7049e-05
3770.0 2.6537e-05
3790.0 2.5003e-05
3810.0 2.0314e-05
3830.0 1.8454e-05
3850.0 2.1498e-05
3870.0 1.7584e-05
3890.0 1.6681e-05
3910.0 2.2142e-05
3930.0 2.8503e-05
3950.0 3.0827e-05
3970.0 3.5077e-05
3990.0 3.1738e-05
4010.0 4.6157e-05
4030.0 4.3175e-05
4050.0 3.9029e-05
4070.0 4.1652e-05
4090.0 3.9972e-05
4110.0 4.2708e-05
4130.0 5.0425e-05
4150.0 6.0094e-05
4170.0 5.1875e-05
4190.0 4.8019e-05
4210.0 5.1313e-05
4230.0 6.197e-05
4250.0 7.0815e-05
4270.0 7.5314e-05
4290.0 7.1017e-05
4310.0 6.7566e-05
4330.0 7.0295e-05
4350.0 8.7281e-05
4370.0 0.00010328
4390.0 8.7529e-05
4410.0 5.8438e-05
4430.0 4.5213e-05
4450.0 4.0037e-05
4470.0 3.3668e-05
4490.0 4.501e-05
4510.0 6.9747e-05
4530.0 8.2038e-05
4550.0 8.5067e-05
4570.0 8.6017e-05
4590.0 9.7954e-05
4610.0 0.00016017
4630.0 0.00021273
4650.0 0.00020545
4670.0 0.00018623
4690.0 0.00019721
4710.0 0.00020919
4730.0 0.00017096
4750.0 0.0001128
4770.0 8.4849e-05
4790.0 8.9747e-05
4810.0 8.8962e-05
4830.0 8.632e-05
4850.0 9.6011e-05
4870.0 0.00012656
4890.0 0.00014745
4910.0 0.00011709
4930.0 0.00010817
4950.0 0.000123
4970.0 0.00016619
4990.0 0.00022182
5010.0 0.00024823
5030.0 0.00019897
5050.0 0.00012118
5070.0 8.5085e-05
5090.0 7.0028e-05
5110.0 6.903e-05
5130.0 7.8241e-05
5150.0 7.7857e-05
5170.0 7.5349e-05
5190.0 7.0538e-05
5210.0 7.2433e-05
5230.0 8.3299e-05
5250.0 9.4063e-05
5270.0 9.4797e-05
5290.0 0.00010621
5310.0 0.00013161
5330.0 0.00013678
5350.0 0.00013536
5370.0 0.00015115
5390.0 0.00017939
5410.0 0.00016033
5430.0 0.00012673
5450.0 0.00012256
5470.0 0.00014141
5490.0 0.00018073
5510.0 0.00022691
5530.0 0.00025933
5550.0 0.00023942
5570.0 0.00021415
5590.0 0.00018127
5610.0 0.0001776
5630.0 0.00018692
5650.0 0.0001808
5670.0 0.00017069
5690.0 0.00014535
5710.0 0.00014453
5730.0 0.00013794
5750.0 8.1303e-05
5770.0 6.4399e-05
5790.0 7.6783e-05
5810.0 8.8056e-05
5830.0 0.00011873
5850.0 0.00014448
5870.0 0.00015141
5890.0 0.00014405
5910.0 0.00013853
5930.0 0.00013637
5950.0 0.00014202
5970.0 0.00016707
5990.0 0.00014484
6010.0 0.00011491
6030.0 9.4001e-05
6050.0 8.2496e-05
6070.0 9.191e-05
6090.0 0.00010478
6110.0 0.00011034
6130.0 0.00010236
6150.0 8.5743e-05
6170.0 8.0316e-05
6190.0 9.9103e-05
6210.0 0.00013842
6230.0 0.00018303
6250.0 0.00018986
6270.0 0.00015439
6290.0 0.00012997
6310.0 0.0001008
6330.0 7.6192e-05
6350.0 7.1653e-05
6370.0 7.5905e-05
6390.0 9.1493e-05
6410.0 0.00011253
6430.0 0.00013371
6450.0 0.00016159
6470.0 0.00018116
6490.0 0.00022127
6510.0 0.00024801
6530.0 0.00024108
6550.0 0.00022131
6570.0 0.0001949
6590.0 0.0001887
6610.0 0.00016059
6630.0 0.00015691
6650.0 0.00014758
6670.0 0.00014013
6690.0 0.00012321
6710.0 0.00011465
6730.0 7.7884e-05
6750.0 8.0667e-05
6770.0 9.8269e-05
6790.0 0.00012222
6810.0 0.00010237
6830.0 0.00010505
6850.0 9.5499e-05
6870.0 9.0984e-05
6890.0 8.3285e-05
6910.0 8.8835e-05
6930.0 8.298e-05
6950.0 9.257e-05
6970.0 9.3714e-05
6990.0 0.00010432
7010.0 0.00010714
7030.0 0.00010922
7050.0 9.7972e-05
7070.0 8.9164e-05
7090.0 8.8523e-05
7110.0 8.7544e-05
7130.0 9.5207e-05
7150.0 0.00010566
7170.0 0.00011576
7190.0 0.00011931
7210.0 0.00010938
7230.0 0.0001112
7250.0 0.00012348
7270.0 0.00013951
7290.0 0.00016178
7310.0 0.00016327
7330.0 0.00014718
7350.0 0.00013116
7370.0 0.00010779
7390.0 0.0001113
7410.0 0.00012898
7430.0 0.00014394
7450.0 0.00015516
7470.0 0.00015468
7490.0 0.00015078
7510.0 0.00019852
7530.0 0.00018003
7550.0 0.00015881
7570.0 0.00011376
7590.0 6.5194e-05
7610.0 5.2956e-05
7630.0 6.5257e-05
7650.0 8.0534e-05
7670.0 0.00010987
7690.0 0.00012436
7710.0 0.00012108
7730.0 0.00012109
7750.0 0.00014193
7770.0 0.00014319
7790.0 0.00013428
7810.0 0.00012087
7830.0 0.00012391
7850.0 0.00012408
7870.0 0.00011751
7890.0 9.7804e-05
7910.0 7.3184e-05
7930.0 6.8942e-05
7950.0 6.2009e-05
7970.0 5.6178e-05
7990.0 5.4219e-05
8010.0 5.4133e-05
8030.0 5.2779e-05
8050.0 5.4536e-05
8070.0 5.5824e-05
8090.0 6.072e-05
8110.0 5.696e-05
8130.0 4.3799e-05
8150.0 4.194e-05
8170.0 3.3843e-05
8190.0 3.0487e-05
8210.0 3.9556e-05
8230.0 4.4008e-05
8250.0 3.3221e-05
8270.0 2.9006e-05
8290.0 2.8816e-05
8310.0 2.1267e-05
8330.0 1.3471e-05
8350.0 1.0258e-05
8370.0 7.6303e-06
8390.0 1.1959e-05
8410.0 1.4803e-05
8430.0 1.831e-05
8450.0 2.0403e-05
8470.0 2.6212e-05
8490.0 2.3847e-05
8510.0 2.1925e-05
8530.0 1.9016e-05
8550.0 3.0662e-05
8570.0 4.1737e-05
8590.0 3.957e-05
8610.0 5.1504e-05
8630.0 5.8244e-05
8650.0 5.0329e-05
8670.0 5.6317e-05
8690.0 6.5444e-05
8710.0 5.9479e-05
8730.0 5.9706e-05
8750.0 5.1838e-05
8770.0 4.8507e-05
8790.0 5.0313e-05
8810.0 5.0381e-05
8830.0 3.6504e-05
8850.0 2.5863e-05
8870.0 2.0804e-05
8890.0 2.5773e-05
8910.0 3.2337e-05
8930.0 3.7896e-05
8950.0 4.305e-05
8970.0 4.2789e-05
8990.0 3.773e-05
9010.0 3.086e-05
9030.0 2.8421e-05
9050.0 2.9031e-05
9070.0 2.9574e-05
9090.0 2.9994e-05
9110.0 3.0451e-05
9130.0 3.0799e-05
9150.0 3.1071e-05
9170.0 3.136e-05
9190.0 3.1669e-05
9210.0 3.1993e-05
9230.0 3.2336e-05
9250.0 3.2689e-05
9270.0 3.3056e-05
9290.0 3.3433e-05
9310.0 3.3819e-05
9330.0 3.4214e-05
9350.0 3.4621e-05
9370.0 3.5037e-05
9390.0 3.546e-05
9410.0 3.5895e-05
9430.0 3.6341e-05
9450.0 3.6793e-05
9470.0 3.7254e-05
9490.0 3.7727e-05
9510.0 3.8208e-05
9530.0 3.8697e-05
9550.0 3.9197e-05
9570.0 3.9707e-05
9590.0 4.0223e-05
9610.0 4.0749e-05
9630.0 4.1285e-05
9650.0 4.1829e-05
9670.0 4.2379e-05
9690.0 4.2939e-05
9710.0 4.3508e-05
9730.0 4.4083e-05
9750.0 4.4666e-05
9770.0 4.5259e-05
9790.0 4.5857e-05
9810.0 4.6461e-05
9830.0 4.7073e-05
9850.0 4.7693e-05
9870.0 4.8316e-05
9890.0 4.8946e-05
9910.0 4.9583e-05
9930.0 5.0225e-05
9950.0 5.087e-05
9970.0 5.1522e-05
9990.0 5.2179e-05
10010.0 4.8929e-05
10030.0 4.9529e-05
10050.0 5.0132e-05
10070.0 5.0731e-05
10090.0 5.1339e-05
10110.0 5.195e-05
10130.0 5.2562e-05
10150.0 5.3173e-05
10170.0 5.3784e-05
10190.0 5.4397e-05
10210.0 5.5007e-05
10230.0 5.5617e-05
10250.0 5.6226e-05
10270.0 5.6833e-05
10290.0 5.7436e-05
10310.0 5.8038e-05
10330.0 5.8638e-05
10350.0 5.9233e-05
10370.0 5.9823e-05
10390.0 6.041e-05
10410.0 6.0991e-05
10430.0 6.1566e-05
10450.0 6.2136e-05
10470.0 6.27e-05
10490.0 6.3257e-05
10510.0 6.3805e-05
10530.0 6.4348e-05
10550.0 6.4881e-05
10570.0 6.5405e-05
10590.0 6.5921e-05
10610.0 6.6427e-05
10630.0 6.6923e-05
10650.0 6.7408e-05
10670.0 6.7884e-05
10690.0 6.8348e-05
10710.0 6.88e-05
10730.0 6.9241e-05
10750.0 6.967e-05
10770.0 7.0085e-05
10790.0 7.0488e-05
10810.0 7.0877e-05
10830.0 7.1249e-05
10850.0 7.1601e-05
10870.0 7.1925e-05
10890.0 7.2204e-05
10910.0 7.2415e-05
10930.0 7.2524e-05
10950.0 7.2469e-05
10970.0 7.2212e-05
10990.0 7.1734e-05
11010.0 7.1779e-05
11030.0 7.0686e-05
11050.0 6.9351e-05
11070.0 6.7745e-05
11090.0 6.5801e-05
11110.0 6.3784e-05
11130.0 6.1675e-05
11150.0 5.94e-05
11170.0 5.7059e-05
11190.0 5.4799e-05
11210.0 5.248e-05
11230.0 5.0124e-05
11250.0 4.7899e-05
11270.0 4.5786e-05
11290.0 4.3695e-05
11310.0 4.1739e-05
11330.0 4.0033e-05
11350.0 3.8435e-05
11370.0 3.6965e-05
11390.0 3.5693e-05
11410.0 3.4573e-05
11430.0 3.3518e-05
11450.0 3.2586e-05
11470.0 3.1752e-05
11490.0 3.0947e-05
11510.0 3.014e-05
11530.0 2.9363e-05
11550.0 2.8571e-05
11570.0 2.7716e-05
11590.0 2.6826e-05
11610.0 2.5921e-05
11630.0 2.4945e-05
11650.0 2.3913e-05
11670.0 2.2906e-05
11690.0 2.1897e-05
11710.0 2.087e-05
11730.0 1.9884e-05
11750.0 1.8977e-05
11770.0 1.8094e-05
11790.0 1.727e-05
11810.0 1.6544e-05
11830.0 1.5891e-05
11850.0 1.5287e-05
11870.0 1.4772e-05
11890.0 1.4332e-05
11910.0 1.3933e-05
11930.0 1.3576e-05
11950.0 1.3261e-05
11970.0 1.2964e-05
11990.0 1.2669e-05
12010.0 1.2384e-05
12030.0 1.21e-05
12050.0 1.1802e-05
12070.0 1.1489e-05
12090.0 1.1185e-05
12110.0 1.0874e-05
12130.0 1.0558e-05
12150.0 1.0257e-05
12170.0 9.9808e-06
12190.0 9.7187e-06
12210.0 9.496e-06
12230.0 9.3227e-06
12250.0 9.1975e-06
12270.0 9.1287e-06
12290.0 9.1207e-06
12310.0 9.1686e-06
12330.0 9.2809e-06
12350.0 9.452e-06
12370.0 9.6656e-06
12390.0 9.9272e-06
12410.0 1.0247e-05
12430.0 1.0576e-05
12450.0 1.0918e-05
12470.0 1.1283e-05
12490.0 1.1647e-05
12510.0 1.1981e-05
12530.0 1.2308e-05
12550.0 1.2616e-05
12570.0 1.2876e-05
12590.0 1.3092e-05
12610.0 1.3274e-05
12630.0 1.3403e-05
12650.0 1.3471e-05
12670.0 1.3493e-05
12690.0 1.3465e-05
12710.0 1.3385e-05
12730.0 1.3262e-05
12750.0 1.3092e-05
12770.0 1.2883e-05
12790.0 1.2646e-05
12810.0 1.2376e-05
12830.0 1.2075e-05
12850.0 1.1765e-05
12870.0 1.1441e-05
12890.0 1.1096e-05
12910.0 1.0746e-05
12930.0 1.0399e-05
12950.0 1.0038e-05
12970.0 9.6674e-06
12990.0 9.3118e-06
13010.0 8.9567e-06
13030.0 8.594e-06
13050.0 8.2402e-06
13070.0 7.9032e-06
13090.0 7.5617e-06
13110.0 7.2273e-06
13130.0 6.9144e-06
13150.0 6.6151e-06
13170.0 6.3205e-06
13190.0 6.0553e-06
13210.0 5.8193e-06
13230.0 5.6022e-06
13250.0 5.4129e-06
13270.0 5.2599e-06
13290.0 5.1365e-06
13310.0 5.0447e-06
13330.0 4.9903e-06
13350.0 4.97e-06
13370.0 4.9841e-06
13390.0 5.0337e-06
13410.0 5.1083e-06
13430.0 5.2106e-06
13450.0 5.3405e-06
13470.0 5.4859e-06
13490.0 5.6401e-06
13510.0 5.8154e-06
13530.0 5.9928e-06
13550.0 6.1619e-06
13570.0 6.3286e-06
13590.0 6.4911e-06
13610.0 6.6347e-06
13630.0 6.7588e-06
13650.0 6.8717e-06
13670.0 6.9636e-06
13690.0 7.0319e-06
13710.0 7.0819e-06
13730.0 7.1139e-06
13750.0 7.1229e-06
13770.0 7.1143e-06
13790.0 7.0892e-06
13810.0 7.0478e-06
13830.0 6.9938e-06
13850.0 6.9261e-06
13870.0 6.8452e-06
13890.0 6.756e-06
13910.0 6.6586e-06
13930.0 6.5495e-06
13950.0 6.4335e-06
13970.0 6.3174e-06
13990.0 6.1939e-06
14010.0 6.0655e-06
14030.0 5.9396e-06
14050.0 5.8148e-06
14070.0 5.6857e-06
14090.0 5.5636e-06
14110.0 5.4504e-06
14130.0 5.3421e-06
14150.0 5.2416e-06
14170.0 5.1565e-06
14190.0 5.0837e-06
14210.0 5.0228e-06
14230.0 4.9783e-06
14250.0 4.9501e-06
14270.0 4.9374e-06
14290.0 4.9422e-06
14310.0 4.9627e-06
14330.0 4.9982e-06
14350.0 5.0501e-06
14370.0 5.1145e-06
14390.0 5.1879e-06
14410.0 5.275e-06
14430.0 5.3718e-06
14450.0 5.4722e-06
14470.0 5.5785e-06
14490.0 5.6947e-06
14510.0 5.8099e-06
14530.0 5.924e-06
14550.0 6.044e-06
14570.0 6.1665e-06
14590.0 6.2861e-06
14610.0 6.4105e-06
14630.0 6.5439e-06
14650.0 6.6782e-06
14670.0 6.8167e-06
14690.0 6.9682e-06
14710.0 7.1323e-06
14730.0 7.2978e-06
14750.0 7.4786e-06
14770.0 7.6774e-06
14790.0 7.8841e-06
14810.0 8.0976e-06
14830.0 8.3367e-06
14850.0 8.5822e-06
14870.0 8.8251e-06
14890.0 9.0743e-06
14910.0 9.3267e-06
14930.0 9.56e-06
14950.0 9.7711e-06
14970.0 9.9651e-06
14990.0 1.0124e-05
15010.0 1.0245e-05
15030.0 1.0334e-05
15050.0 1.0392e-05
15070.0 1.0423e-05
15090.0 1.0436e-05
15110.0 1.0437e-05
15130.0 1.0431e-05
15150.0 1.0421e-05
15170.0 1.0409e-05
15190.0 1.0396e-05
15210.0 1.0384e-05
15230.0 1.0371e-05
15250.0 1.0358e-05
15270.0 1.0345e-05
15290.0 1.0334e-05
15310.0 1.0322e-05
15330.0 1.031e-05
15350.0 1.0299e-05
15370.0 1.0288e-05
15390.0 1.0275e-05
15410.0 1.0264e-05
15430.0 1.0253e-05
15450.0 1.0242e-05
15470.0 1.023e-05
15490.0 1.022e-05
15510.0 1.0209e-05
15530.0 1.0198e-05
15550.0 1.0187e-05
15570.0 1.0177e-05
15590.0 1.0166e-05
15610.0 1.0155e-05
15630.0 1.0144e-05
15650.0 1.0134e-05
15670.0 1.0123e-05
15690.0 1.0112e-05
15710.0 1.0102e-05
15730.0 1.0091e-05
15750.0 1.0079e-05
15770.0 1.0069e-05
15790.0 1.0058e-05
15810.0 1.0046e-05
15830.0 1.0035e-05
15850.0 1.0024e-05
15870.0 1.0012e-05
15890.0 1.0001e-05
15910.0 9.9896e-06
15930.0 9.9779e-06
15950.0 9.9651e-06
15970.0 9.9531e-06
15990.0 9.9414e-06
16010.0 9.9285e-06
16030.0 9.9152e-06
16050.0 9.9033e-06
16070.0 9.8905e-06
16090.0 9.8768e-06
16110.0 9.8637e-06
16130.0 9.851e-06
16150.0 9.8363e-06
16170.0 9.8219e-06
16190.0 9.8083e-06
16210.0 9.794e-06
16230.0 9.7786e-06
16250.0 9.7641e-06
16270.0 9.7497e-06
16290.0 9.7338e-06
16310.0 9.7179e-06
16330.0 9.7027e-06
16350.0 9.6866e-06
16370.0 9.669e-06
16390.0 9.6529e-06
16410.0 9.6364e-06
16430.0 9.6188e-06
16450.0 9.6011e-06
16470.0 9.5843e-06
16490.0 9.566e-06
16510.0 9.5471e-06
16530.0 9.5288e-06
16550.0 9.5103e-06
16570.0 9.4904e-06
16590.0 9.4705e-06
16610.0 9.4516e-06
16630.0 9.4315e-06
16650.0 9.4106e-06
16670.0 9.3905e-06
16690.0 9.37e-06
16710.0 9.3477e-06
16730.0 9.326e-06
16750.0 9.3048e-06
16770.0 9.2823e-06
16790.0 9.2591e-06
16810.0 9.237e-06
16830.0 9.2143e-06
16850.0 9.1903e-06
16870.0 9.1666e-06
16890.0 9.1433e-06
16910.0 9.1185e-06
16930.0 9.093e-06
16950.0 9.0687e-06
16970.0 9.0437e-06
16990.0 9.0175e-06
17010.0 8.9918e-06
17030.0 8.9665e-06
17050.0 8.9396e-06
17070.0 8.9124e-06
17090.0 8.8859e-06
17110.0 8.8588e-06
17130.0 8.8301e-06
17150.0 8.8023e-06
17170.0 8.7749e-06
17190.0 8.7461e-06
17210.0 8.717e-06
17230.0 8.6888e-06
17250.0 8.6595e-06
17270.0 8.629e-06
17290.0 8.5994e-06
17310.0 8.5698e-06
17330.0 8.5389e-06
17350.0 8.5076e-06
17370.0 8.4776e-06
17390.0 8.4466e-06
17410.0 8.4146e-06
17430.0 8.3833e-06
17450.0 8.3522e-06
17470.0 8.319e-06
17490.0 8.2862e-06
17510.0 8.2543e-06
17530.0 8.2214e-06
17550.0 8.1877e-06
17570.0 8.1548e-06
17590.0 8.122e-06
17610.0 8.0877e-06
17630.0 8.0536e-06
17650.0 8.0202e-06
17670.0 7.9858e-06
17690.0 7.95e-06
17710.0 7.9159e-06
17730.0 7.8815e-06
17750.0 7.8459e-06
17770.0 7.8105e-06
17790.0 7.7761e-06
17810.0 7.7401e-06
17830.0 7.7037e-06
17850.0 7.6682e-06
17870.0 7.6324e-06
17890.0 7.5954e-06
17910.0 7.5587e-06
17930.0 7.5231e-06
17950.0 7.4863e-06
17970.0 7.4491e-06
17990.0 7.4128e-06
18010.0 7.3762e-06
18030.0 7.3379e-06
18050.0 7.3007e-06
18070.0 7.2639e-06
18090.0 7.2261e-06
18110.0 7.1879e-06
18130.0 7.1509e-06
18150.0 7.1135e-06
18170.0 7.075e-06
18190.0 7.0372e-06
18210.0 6.9999e-06
18230.0 6.9612e-06
18250.0 6.9223e-06
18270.0 6.8847e-06
18290.0 6.8467e-06
18310.0 6.8077e-06
18330.0 6.7695e-06
18350.0 6.7319e-06
18370.0 6.6929e-06
18390.0 6.654e-06
18410.0 6.616e-06
18430.0 6.5775e-06
18450.0 6.5379e-06
18470.0 6.4995e-06
18490.0 6.4615e-06
18510.0 6.4225e-06
18530.0 6.3836e-06
18550.0 6.3457e-06
18570.0 6.307e-06
18590.0 6.2675e-06
18610.0 6.229e-06
18630.0 6.1908e-06
18650.0 6.1517e-06
18670.0 6.1125e-06
18690.0 6.0748e-06
18710.0 6.0363e-06
18730.0 5.9972e-06
18750.0 5.959e-06
18770.0 5.9212e-06
18790.0 5.8817e-06
18810.0 5.843e-06
18830.0 5.8053e-06
18850.0 5.7669e-06
18870.0 5.728e-06
18890.0 5.6903e-06
18910.0 5.6527e-06
18930.0 5.614e-06
18950.0 5.5758e-06
18970.0 5.5384e-06
18990.0 5.5004e-06
19010.0 5.4614e-06
19030.0 5.4243e-06
19050.0 5.387e-06
19070.0 5.3489e-06
19090.0 5.3113e-06
19110.0 5.2748e-06
19130.0 5.237e-06
19150.0 5.1991e-06
19170.0 5.1623e-06
19190.0 5.1255e-06
19210.0 5.0878e-06
19230.0 5.0507e-06
19250.0 5.0147e-06
19270.0 4.9778e-06
19290.0 4.9408e-06
19310.0 4.9049e-06
19330.0 4.8688e-06
19350.0 4.8315e-06
19370.0 4.7953e-06
19390.0 4.7598e-06
19410.0 4.7236e-06
19430.0 4.6872e-06
19450.0 4.6521e-06
19470.0 4.6168e-06
19490.0 4.5807e-06
19510.0 4.5454e-06
19530.0 4.5108e-06
19550.0 4.4751e-06
19570.0 4.4394e-06
19590.0 4.4052e-06
19610.0 4.3705e-06
19630.0 4.3354e-06
19650.0 4.3011e-06
19670.0 4.2674e-06
19690.0 4.2326e-06
19710.0 4.1981e-06
19730.0 4.1646e-06
19750.0 4.1308e-06
19770.0 4.0962e-06
19790.0 4.0628e-06
19810.0 4.0299e-06
19830.0 3.9961e-06
19850.0 3.9625e-06
19870.0 3.9295e-06
19890.0 3.8952e-06
19910.0 3.8588e-06
19930.0 3.8215e-06
19950.0 3.7813e-06
19970.0 3.7351e-06
19990.0 3.6831e-06
20010.0 3.6349e-06
20030.0 3.5699e-06
20050.0 3.497e-06
20070.0 3.4205e-06
20090.0 3.3405e-06
20110.0 3.2526e-06
20130.0 3.1655e-06
20150.0 3.0807e-06
20170.0 2.9943e-06
20190.0 2.9082e-06
20210.0 2.8275e-06
20230.0 2.7496e-06
20250.0 2.6723e-06
20270.0 2.6007e-06
20290.0 2.5353e-06
20310.0 2.4732e-06
20330.0 2.415e-06
20350.0 2.366e-06
20370.0 2.3222e-06
20390.0 2.2833e-06
20410.0 2.2511e-06
20430.0 2.2256e-06
20450.0 2.2048e-06
20470.0 2.19e-06
20490.0 2.1808e-06
20510.0 2.1766e-06
20530.0 2.1773e-06
20550.0 2.1822e-06
20570.0 2.1906e-06
20590.0 2.2029e-06
20610.0 2.2185e-06
20630.0 2.236e-06
20650.0 2.2559e-06
20670.0 2.2792e-06
20690.0 2.3029e-06
20710.0 2.3273e-06
20730.0 2.3538e-06
20750.0 2.3813e-06
20770.0 2.4078e-06
20790.0 2.4355e-06
20810.0 2.4645e-06
20830.0 2.4928e-06
20850.0 2.5208e-06
20870.0 2.5504e-06
20890.0 2.5803e-06
20910.0 2.6085e-06
20930.0 2.6376e-06
20950.0 2.6677e-06
20970.0 2.6966e-06
20990.0 2.7251e-06
21010.0 2.7551e-06
21030.0 2.7844e-06
21050.0 2.8123e-06
21070.0 2.8403e-06
21090.0 2.8687e-06
21110.0 2.8947e-06
21130.0 2.9193e-06
21150.0 2.9438e-06
21170.0 2.9665e-06
21190.0 2.9866e-06
21210.0 3.0057e-06
21230.0 3.0229e-06
21250.0 3.0367e-06
21270.0 3.0478e-06
21290.0 3.0562e-06
21310.0 3.061e-06
21330.0 3.0617e-06
21350.0 3.0586e-06
21370.0 3.0509e-06
21390.0 3.0387e-06
21410.0 3.0219e-06
21430.0 2.999e-06
21450.0 2.9713e-06
21470.0 2.9394e-06
21490.0 2.9018e-06
21510.0 2.8588e-06
21530.0 2.8134e-06
21550.0 2.7641e-06
21570.0 2.7099e-06
21590.0 2.6545e-06
21610.0 2.5991e-06
21630.0 2.5417e-06
21650.0 2.4832e-06
21670.0 2.4299e-06
21690.0 2.3783e-06
21710.0 2.3287e-06
21730.0 2.2843e-06
21750.0 2.246e-06
21770.0 2.2112e-06
21790.0 2.183e-06
21810.0 2.162e-06
21830.0 2.1472e-06
21850.0 2.139e-06
21870.0 2.1377e-06
21890.0 2.1424e-06
21910.0 2.1535e-06
21930.0 2.1705e-06
21950.0 2.1921e-06
21970.0 2.2187e-06
21990.0 2.2515e-06
22010.0 2.2866e-06
22030.0 2.3244e-06
22050.0 2.3662e-06
22070.0 2.4105e-06
22090.0 2.4541e-06
22110.0 2.5001e-06
22130.0 2.5479e-06
22150.0 2.5942e-06
22170.0 2.6393e-06
22190.0 2.6857e-06
22210.0 2.7302e-06
22230.0 2.7704e-06
22250.0 2.8093e-06
22270.0 2.846e-06
22290.0 2.8781e-06
22310.0 2.9063e-06
22330.0 2.9318e-06
22350.0 2.9521e-06
22370.0 2.9671e-06
22390.0 2.9775e-06
22410.0 2.9828e-06
22430.0 2.9821e-06
22450.0 2.9762e-06
22470.0 2.9644e-06
22490.0 2.9469e-06
22510.0 2.9245e-06
22530.0 2.8954e-06
22550.0 2.8599e-06
22570.0 2.8203e-06
22590.0 2.7755e-06
22610.0 2.724e-06
