#lamb flux
1010.0 3.3396e-05
1030.0 3.5952e-05
1050.0 4.0274e-05
1070.0 4.5135e-05
1090.0 5.0297e-05
1110.0 5.5646e-05
1130.0 6.1066e-05
1150.0 6.6761e-05
1170.0 7.2616e-05
1190.0 7.8091e-05
1210.0 8.3525e-05
1230.0 8.8983e-05
1250.0 9.4196e-05
1270.0 9.9003e-05
1290.0 0.00010384
1310.0 0.00010839
1330.0 0.00011245
1350.0 0.00011632
1370.0 0.00012018
1390.0 0.00012376
1410.0 0.00012715
1430.0 0.00013077
1450.0 0.0001345
1470.0 0.00013824
1490.0 0.0001423
1510.0 0.00014695
1530.0 0.00015172
1550.0 0.00015688
1570.0 0.00016268
1590.0 0.00016903
1610.0 0.00017574
1630.0 0.00018332
1650.0 0.00019163
1670.0 0.00020037
1690.0 0.00020962
1710.0 0.00021962
1730.0 0.00023016
1750.0 0.00024077
1770.0 0.00025188
1790.0 0.00026333
1810.0 0.00027468
1830.0 0.00028588
1850.0 0.00029724
1870.0 0.00030808
1890.0 0.00031818
1910.0 0.0003277
1930.0 0.00033653
1950.0 0.00034407
1970.0 0.00035042
1990.0 0.00035581
2010.0 0.00035983
2030.0 0.00036233
2050.0 0.00036375
2070.0 0.00036408
2090.0 0.00036289
2110.0 0.00036062
2130.0 0.0003576
2150.0 0.00035367
2170.0 0.00034889
2190.0 0.00034384
2210.0 0.00033853
2230.0 0.00033288
2250.0 0.00032724
2270.0 0.00032196
2290.0 0.00031682
2310.0 0.00031191
2330.0 0.00030764
2350.0 0.00030398
2370.0 0.00030082
2390.0 0.00029845
2410.0 0.00029712
2430.0 0.00029662
2450.0 0.00029707
2470.0 0.00029886
2490.0 0.00030211
2510.0 0.00030659
2530.0 0.00031322
2550.0 0.00032331
2570.0 0.00033796
2590.0 0.00035887
2610.0 0.00039095
2630.0 0.00043561
2650.0 0.00049129
2670.0 0.00055935
2690.0 0.00063824
2710.0 0.00071836
2730.0 0.00079445
2750.0 0.00086659
2770.0 0.00092789
2790.0 0.00097691
2810.0 0.0010173
2830.0 0.0010518
2850.0 0.0010815
2870.0 0.0011105
2890.0 0.0011412
2910.0 0.0011745
2930.0 0.0012104
2950.0 0.0012502
2970.0 0.0012941
2990.0 0.0013413
3010.0 0.0017145
3030.0 0.0017823
3050.0 0.001854
3070.0 0.001927
3090.0 0.002001
3110.0 0.0020719
3130.0 0.0021344
3150.0 0.0021878
3170.0 0.0022205
3190.0 0.0023674
3210.0 0.0029562
3230.0 0.003892
3250.0 0.004327
3270.0 0.0039851
3290.0 0.0034083
3310.0 0.0031041
3330.0 0.0029833
3350.0 0.0029791
3370.0 0.0030095
3390.0 0.0030571
3410.0 0.0030902
3430.0 0.0030065
3450.0 0.0029862
3470.0 0.0029896
3490.0 0.0033036
3510.0 0.0041629
3530.0 0.0050163
3550.0 0.005818
3570.0 0.0067068
3590.0 0.0072018
3610.0 0.0072221
3630.0 0.0071483
3650.0 0.0073766
3670.0 0.0082307
3690.0 0.0096304
3710.0 0.011033
3730.0 0.0121
3750.0 0.012992
3770.0 0.012921
3790.0 0.01211
3810.0 0.011185
3830.0 0.010129
3850.0 0.0094937
3870.0 0.009552
3890.0 0.010551
3910.0 0.011967
3930.0 0.013462
3950.0 0.015084
3970.0 0.016103
3990.0 0.015877
4010.0 0.014979
4030.0 0.013277
4050.0 0.011644
4070.0 0.010802
4090.0 0.010688
4110.0 0.011134
4130.0 0.011307
4150.0 0.011366
4170.0 0.011589
4190.0 0.012087
4210.0 0.012101
4230.0 0.012203
4250.0 0.012393
4270.0 0.012764
4290.0 0.013216
4310.0 0.01368
4330.0 0.013607
4350.0 0.013033
4370.0 0.012175
4390.0 0.011029
4410.0 0.0097128
4430.0 0.0088497
4450.0 0.008579
4470.0 0.0087935
4490.0 0.0094224
4510.0 0.010686
4530.0 0.013034
4550.0 0.016602
4570.0 0.01971
4590.0 0.022532
4610.0 0.025959
4630.0 0.02837
4650.0 0.028165
4670.0 0.026002
4690.0 0.023043
4710.0 0.020158
4730.0 0.017585
4750.0 0.015333
4770.0 0.013799
4790.0 0.013857
4810.0 0.014677
4830.0 0.01526
4850.0 0.015534
4870.0 0.016327
4890.0 0.017264
4910.0 0.018141
4930.0 0.019124
4950.0 0.019834
4970.0 0.019562
4990.0 0.018187
5010.0 0.016248
5030.0 0.014273
5050.0 0.012828
5070.0 0.011911
5090.0 0.011358
5110.0 0.011248
5130.0 0.011267
5150.0 0.011343
5170.0 0.011853
5190.0 0.01286
5210.0 0.014342
5230.0 0.01583
5250.0 0.017371
5270.0 0.019018
5290.0 0.020462
5310.0 0.02141
5330.0 0.021849
5350.0 0.021736
5370.0 0.021439
5390.0 0.021522
5410.0 0.02223
5430.0 0.023467
5450.0 0.02506
5470.0 0.02646
5490.0 0.027028
5510.0 0.026885
5530.0 0.026427
5550.0 0.025795
5570.0 0.024956
5590.0 0.024115
5610.0 0.023287
5630.0 0.022323
5650.0 0.020986
5670.0 0.019423
5690.0 0.018128
5710.0 0.017205
5730.0 0.016324
5750.0 0.015832
5770.0 0.015825
5790.0 0.015947
5810.0 0.015848
5830.0 0.015726
5850.0 0.015539
5870.0 0.015058
5890.0 0.014651
5910.0 0.01427
5930.0 0.013374
5950.0 0.01213
5970.0 0.010931
5990.0 0.0099817
6010.0 0.009368
6030.0 0.0090381
6050.0 0.0090727
6070.0 0.009458
6090.0 0.0097217
6110.0 0.0097478
6130.0 0.0097514
6150.0 0.0098508
6170.0 0.0099864
6190.0 0.010025
6210.0 0.0098475
6230.0 0.0093099
6250.0 0.0085781
6270.0 0.0078942
6290.0 0.0073728
6310.0 0.0073627
6330.0 0.0078832
6350.0 0.0085718
6370.0 0.009145
6390.0 0.0098056
6410.0 0.010668
6430.0 0.011335
6450.0 0.011724
6470.0 0.012041
6490.0 0.012334
6510.0 0.012502
6530.0 0.012574
6550.0 0.012702
6570.0 0.012653
6590.0 0.012382
6610.0 0.012009
6630.0 0.011541
6650.0 0.010917
6670.0 0.010254
6690.0 0.0097836
6710.0 0.0094646
6730.0 0.0091172
6750.0 0.0088976
6770.0 0.0089676
6790.0 0.0090731
6810.0 0.0089934
6830.0 0.0088229
6850.0 0.008743
6870.0 0.0086628
6890.0 0.0084889
6910.0 0.0084598
6930.0 0.0084713
6950.0 0.0083866
6970.0 0.0082657
6990.0 0.0080988
7010.0 0.0078752
7030.0 0.0075249
7050.0 0.0069936
7070.0 0.0065164
7090.0 0.0064515
7110.0 0.0066562
7130.0 0.0067483
7150.0 0.0067239
7170.0 0.0068519
7190.0 0.0071532
7210.0 0.0073782
7230.0 0.0075561
7250.0 0.0077294
7270.0 0.0076249
7290.0 0.0073973
7310.0 0.0073086
7330.0 0.0074726
7350.0 0.0077595
7370.0 0.0079504
7390.0 0.0081617
7410.0 0.0084801
7430.0 0.0087096
7450.0 0.0087922
7470.0 0.0087388
7490.0 0.0083511
7510.0 0.0079229
7530.0 0.0078089
7550.0 0.007644
7570.0 0.0074745
7590.0 0.00745
7610.0 0.0074766
7630.0 0.0076097
7650.0 0.0080098
7670.0 0.0085416
7690.0 0.0090463
7710.0 0.0094105
7730.0 0.0097331
7750.0 0.010036
7770.0 0.0103
7790.0 0.010549
7810.0 0.010635
7830.0 0.010377
7850.0 0.010027
7870.0 0.0097384
7890.0 0.0095363
7910.0 0.0094968
7930.0 0.0093489
7950.0 0.0091425
7970.0 0.0088899
7990.0 0.0087325
8010.0 0.0082354
8030.0 0.0082329
8050.0 0.0082117
8070.0 0.0081234
8090.0 0.0080521
8110.0 0.008012
8130.0 0.0080421
8150.0 0.0080107
8170.0 0.0079239
8190.0 0.007709
8210.0 0.0073598
8230.0 0.0070427
8250.0 0.0069179
8270.0 0.0066215
8290.0 0.0059968
8310.0 0.0053368
8330.0 0.0048987
8350.0 0.0047431
8370.0 0.0050093
8390.0 0.0055095
8410.0 0.005894
8430.0 0.0062312
8450.0 0.0067105
8470.0 0.0071919
8490.0 0.0077591
8510.0 0.0083607
8530.0 0.0089618
8550.0 0.0094401
8570.0 0.0097975
8590.0 0.010075
8610.0 0.010299
8630.0 0.010333
8650.0 0.010165
8670.0 0.0102
8690.0 0.010641
8710.0 0.011222
8730.0 0.011454
8750.0 0.011332
8770.0 0.011393
8790.0 0.011407
8810.0 0.011046
8830.0 0.010253
8850.0 0.0092665
8870.0 0.0085395
8890.0 0.0082952
8910.0 0.0080568
8930.0 0.0075247
8950.0 0.007018
8970.0 0.0068413
8990.0 0.0069104
9010.0 0.0068748
9030.0 0.0067837
9050.0 0.0067254
9070.0 0.0066893
9090.0 0.0066566
9110.0 0.0066247
9130.0 0.0065929
9150.0 0.0065616
9170.0 0.0065301
9190.0 0.0065011
9210.0 0.0064764
9230.0 0.0064435
9250.0 0.0064122
9270.0 0.0063819
9290.0 0.0063525
9310.0 0.0063234
9330.0 0.0062948
9350.0 0.0062669
9370.0 0.0062392
9390.0 0.0062117
9410.0 0.0061846
9430.0 0.0061566
9450.0 0.006122
9470.0 0.0060901
9490.0 0.0060713
9510.0 0.006049
9530.0 0.0060263
9550.0 0.0060023
9570.0 0.0059779
9590.0 0.0059539
9610.0 0.0059298
9630.0 0.0059054
9650.0 0.0058813
9670.0 0.0058581
9690.0 0.0058344
9710.0 0.0058107
9730.0 0.0057878
9750.0 0.0057649
9770.0 0.0057413
9790.0 0.0057185
9810.0 0.0056961
9830.0 0.0056732
9850.0 0.0056498
9870.0 0.0056279
9890.0 0.0056057
9910.0 0.005583
9930.0 0.0055607
9950.0 0.0055292
9970.0 0.0055093
9990.0 0.0054886
10010.0 0.0054678
10030.0 0.0054463
10050.0 0.0054244
10070.0 0.0054027
10090.0 0.005381
10110.0 0.0053563
10130.0 0.0053234
10150.0 0.0053023
10170.0 0.0052828
10190.0 0.0052604
10210.0 0.0052388
10230.0 0.0052169
10250.0 0.0051926
10270.0 0.0051682
10290.0 0.0051449
10310.0 0.0051199
10330.0 0.0050932
10350.0 0.0050682
10370.0 0.0050432
10390.0 0.0050161
10410.0 0.0049891
10430.0 0.0049638
10450.0 0.0049364
10470.0 0.0049079
10490.0 0.0048806
10510.0 0.004853
10530.0 0.0048225
10550.0 0.0047927
10570.0 0.0047642
10590.0 0.0047339
10610.0 0.0047023
10630.0 0.0046721
10650.0 0.0046413
10670.0 0.0046078
10690.0 0.004575
10710.0 0.0045429
10730.0 0.0045088
10750.0 0.0044728
10770.0 0.0044393
10790.0 0.0044046
10810.0 0.0043679
10830.0 0.0043315
10850.0 0.0042963
10870.0 0.0042575
10890.0 0.0042183
10910.0 0.0041806
10930.0 0.0041418
10950.0 0.0041008
10970.0 0.0040606
10990.0 0.0040218
11010.0 0.0040839
11030.0 0.0040406
11050.0 0.0039997
11070.0 0.003959
11090.0 0.0039164
11110.0 0.0038773
11130.0 0.0038398
11150.0 0.0038018
11170.0 0.0037648
11190.0 0.0037308
11210.0 0.003697
11230.0 0.0036634
11250.0 0.0036324
11270.0 0.0036032
11290.0 0.0035741
11310.0 0.0035463
11330.0 0.0035214
11350.0 0.0034968
11370.0 0.0034723
11390.0 0.003449
11410.0 0.0034261
11430.0 0.0034013
11450.0 0.0033763
11470.0 0.0033508
11490.0 0.0033232
11510.0 0.0032927
11530.0 0.0032615
11550.0 0.0032284
11570.0 0.0031918
11590.0 0.0031532
11610.0 0.0031139
11630.0 0.0030712
11650.0 0.0030255
11670.0 0.0029801
11690.0 0.0029333
11710.0 0.0028836
11730.0 0.0028331
11750.0 0.0027833
11770.0 0.0027305
11790.0 0.002676
11810.0 0.0026221
11830.0 0.0025675
11850.0 0.0025094
11870.0 0.0024522
11890.0 0.0023966
11910.0 0.0023393
11930.0 0.0022818
11950.0 0.0022271
11970.0 0.0021731
11990.0 0.0021184
12010.0 0.0020669
12030.0 0.0020185
12050.0 0.001971
12070.0 0.0019253
12090.0 0.0018847
12110.0 0.0018463
12130.0 0.0018099
12150.0 0.0017775
12170.0 0.0017488
12190.0 0.0017222
12210.0 0.0016995
12230.0 0.0016809
12250.0 0.0016656
12270.0 0.0016537
12290.0 0.0016456
12310.0 0.0016407
12330.0 0.001639
12350.0 0.0016401
12370.0 0.0016434
12390.0 0.0016488
12410.0 0.0016566
12430.0 0.0016651
12450.0 0.0016741
12470.0 0.0016842
12490.0 0.0016946
12510.0 0.0017041
12530.0 0.0017137
12550.0 0.0017231
12570.0 0.0017311
12590.0 0.0017378
12610.0 0.0017437
12630.0 0.0017479
12650.0 0.0017495
12670.0 0.0017493
12690.0 0.0017469
12710.0 0.0017417
12730.0 0.001734
12750.0 0.0017235
12770.0 0.0017102
12790.0 0.0016947
12810.0 0.0016767
12830.0 0.0016562
12850.0 0.0016346
12870.0 0.0016118
12890.0 0.0015874
12910.0 0.0015627
12930.0 0.0015384
12950.0 0.0015135
12970.0 0.0014886
12990.0 0.0014651
13010.0 0.0014423
13030.0 0.0014198
13050.0 0.0013984
13070.0 0.0013785
13090.0 0.0013588
13110.0 0.0013398
13130.0 0.0013221
13150.0 0.0013052
13170.0 0.0012884
13190.0 0.0012728
13210.0 0.0012582
13230.0 0.001244
13250.0 0.0012303
13270.0 0.0012177
13290.0 0.0012054
13310.0 0.0011934
13330.0 0.0011821
13350.0 0.0011713
13370.0 0.0011605
13390.0 0.0011499
13410.0 0.0011397
13430.0 0.0011295
13450.0 0.0011191
13470.0 0.0011088
13490.0 0.0010987
13510.0 0.0010879
13530.0 0.0010771
13550.0 0.0010665
13570.0 0.0010556
13590.0 0.0010443
13610.0 0.0010333
13630.0 0.0010223
13650.0 0.001011
13670.0 0.00099981
13690.0 0.00098892
13710.0 0.00097798
13730.0 0.0009667
13750.0 0.00095606
13770.0 0.00094563
13790.0 0.00093508
13810.0 0.00092474
13830.0 0.00091497
13850.0 0.00090513
13870.0 0.00089539
13890.0 0.0008862
13910.0 0.00087739
13930.0 0.00086861
13950.0 0.00086026
13970.0 0.00085263
13990.0 0.00084516
14010.0 0.00083796
14030.0 0.00083131
14050.0 0.00082501
14070.0 0.00081871
14090.0 0.00081281
14110.0 0.00080726
14130.0 0.00080179
14150.0 0.00079639
14170.0 0.00079138
14190.0 0.00078652
14210.0 0.00078168
14230.0 0.00077709
14250.0 0.00077281
14270.0 0.00076857
14290.0 0.00076449
14310.0 0.00076082
14330.0 0.00075734
14350.0 0.00075397
14370.0 0.00075086
14390.0 0.00074804
14410.0 0.00074526
14430.0 0.00074261
14450.0 0.00074018
14470.0 0.00073784
14490.0 0.00073543
14510.0 0.00073318
14530.0 0.00073102
14550.0 0.00072878
14570.0 0.00072653
14590.0 0.00072438
14610.0 0.0007222
14630.0 0.00071997
14650.0 0.00071795
14670.0 0.0007162
14690.0 0.00071473
14710.0 0.00071379
14730.0 0.00071366
14750.0 0.00071443
14770.0 0.00071641
14790.0 0.00071979
14810.0 0.00072466
14830.0 0.00073168
14850.0 0.00074068
14870.0 0.00075135
14890.0 0.000764
14910.0 0.00077858
14930.0 0.00079373
14950.0 0.00080889
14970.0 0.00082415
14990.0 0.000838
15010.0 0.00084968
15030.0 0.00085949
15050.0 0.00086739
15070.0 0.00087313
15090.0 0.00087755
15110.0 0.0008811
15130.0 0.00088406
15150.0 0.00088671
15170.0 0.00088924
15190.0 0.00089174
15210.0 0.00089426
15230.0 0.00089683
15250.0 0.00089944
15270.0 0.0009021
15290.0 0.00090482
15310.0 0.00090759
15330.0 0.00091041
15350.0 0.00091329
15370.0 0.00091622
15390.0 0.00091919
15410.0 0.00092222
15430.0 0.0009253
15450.0 0.00092842
15470.0 0.00093159
15490.0 0.00093481
15510.0 0.00093808
15530.0 0.00094139
15550.0 0.00094475
15570.0 0.00094815
15590.0 0.00095159
15610.0 0.00095507
15630.0 0.0009586
15650.0 0.00096217
15670.0 0.00096578
15690.0 0.00096943
15710.0 0.00097311
15730.0 0.00097683
15750.0 0.00098059
15770.0 0.00098438
15790.0 0.00098821
15810.0 0.00099207
15830.0 0.00099596
15850.0 0.00099988
15870.0 0.0010038
15890.0 0.0010078
15910.0 0.0010118
15930.0 0.0010159
15950.0 0.0010199
15970.0 0.001024
15990.0 0.0010281
16010.0 0.0010322
16030.0 0.0010364
16050.0 0.0010405
16070.0 0.0010447
16090.0 0.0010489
16110.0 0.0010531
16130.0 0.0010574
16150.0 0.0010616
16170.0 0.0010659
16190.0 0.0010701
16210.0 0.0010744
16230.0 0.0010787
16250.0 0.0010829
16270.0 0.0010872
16290.0 0.0010915
16310.0 0.0010958
16330.0 0.0011001
16350.0 0.0011043
16370.0 0.0011086
16390.0 0.0011129
16410.0 0.0011172
16430.0 0.0011214
16450.0 0.0011257
16470.0 0.0011299
16490.0 0.0011341
16510.0 0.0011383
16530.0 0.0011425
16550.0 0.0011467
16570.0 0.0011508
16590.0 0.0011549
16610.0 0.001159
16630.0 0.0011631
16650.0 0.0011671
16670.0 0.0011712
16690.0 0.0011752
16710.0 0.0011791
16730.0 0.001183
16750.0 0.0011869
16770.0 0.0011908
16790.0 0.0011946
16810.0 0.0011984
16830.0 0.0012021
16850.0 0.0012058
16870.0 0.0012094
16890.0 0.0012131
16910.0 0.0012166
16930.0 0.0012201
16950.0 0.0012236
16970.0 0.001227
16990.0 0.0012303
17010.0 0.0012336
17030.0 0.0012368
17050.0 0.00124
17070.0 0.0012431
17090.0 0.0012462
17110.0 0.0012492
17130.0 0.0012521
17150.0 0.0012549
17170.0 0.0012577
17190.0 0.0012605
17210.0 0.0012631
17230.0 0.0012657
17250.0 0.0012682
17270.0 0.0012707
17290.0 0.001273
17310.0 0.0012753
17330.0 0.0012775
17350.0 0.0012797
17370.0 0.0012817
17390.0 0.0012837
17410.0 0.0012856
17430.0 0.0012874
17450.0 0.0012892
17470.0 0.0012908
17490.0 0.0012924
17510.0 0.0012938
17530.0 0.0012952
17550.0 0.0012965
17570.0 0.0012978
17590.0 0.0012989
17610.0 0.0012999
17630.0 0.0013009
17650.0 0.0013018
17670.0 0.0013025
17690.0 0.0013032
17710.0 0.0013038
17730.0 0.0013043
17750.0 0.0013047
17770.0 0.001305
17790.0 0.0013053
17810.0 0.0013054
17830.0 0.0013054
17850.0 0.0013054
17870.0 0.0013052
17890.0 0.001305
17910.0 0.0013046
17930.0 0.0013042
17950.0 0.0013037
17970.0 0.0013031
17990.0 0.0013024
18010.0 0.0013016
18030.0 0.0013007
18050.0 0.0012997
18070.0 0.0012986
18090.0 0.0012974
18110.0 0.0012961
18130.0 0.0012948
18150.0 0.0012933
18170.0 0.0012918
18190.0 0.0012902
18210.0 0.0012885
18230.0 0.0012866
18250.0 0.0012847
18270.0 0.0012828
18290.0 0.0012807
18310.0 0.0012785
18330.0 0.0012763
18350.0 0.0012739
18370.0 0.0012715
18390.0 0.001269
18410.0 0.0012664
18430.0 0.0012638
18450.0 0.001261
18470.0 0.0012582
18490.0 0.0012553
18510.0 0.0012523
18530.0 0.0012492
18550.0 0.0012461
18570.0 0.0012429
18590.0 0.0012396
18610.0 0.0012362
18630.0 0.0012328
18650.0 0.0012293
18670.0 0.0012257
18690.0 0.001222
18710.0 0.0012183
18730.0 0.0012145
18750.0 0.0012107
18770.0 0.0012068
18790.0 0.0012028
18810.0 0.0011987
18830.0 0.0011946
18850.0 0.0011905
18870.0 0.0011862
18890.0 0.0011819
18910.0 0.0011776
18930.0 0.0011732
18950.0 0.0011688
18970.0 0.0011643
18990.0 0.0011597
19010.0 0.0011551
19030.0 0.0011504
19050.0 0.0011457
19070.0 0.001141
19090.0 0.0011362
19110.0 0.0011314
19130.0 0.0011265
19150.0 0.0011216
19170.0 0.0011166
19190.0 0.0011116
19210.0 0.0011066
19230.0 0.0011015
19250.0 0.0010964
19270.0 0.0010912
19290.0 0.001086
19310.0 0.0010808
19330.0 0.0010756
19350.0 0.0010703
19370.0 0.001065
19390.0 0.0010597
19410.0 0.0010544
19430.0 0.001049
19450.0 0.0010436
19470.0 0.0010382
19490.0 0.0010327
19510.0 0.0010273
19530.0 0.0010218
19550.0 0.0010163
19570.0 0.0010108
19590.0 0.0010053
19610.0 0.00099972
19630.0 0.00099417
19650.0 0.0009886
19670.0 0.00098303
19690.0 0.00097744
19710.0 0.00097185
19730.0 0.00096625
19750.0 0.00096064
19770.0 0.00095503
19790.0 0.00094941
19810.0 0.00094378
19830.0 0.00093813
19850.0 0.00093244
19870.0 0.00092668
19890.0 0.00092074
19910.0 0.00091447
19930.0 0.00090771
19950.0 0.00090023
19970.0 0.0008916
19990.0 0.00088162
20010.0 0.00087048
20030.0 0.00085771
20050.0 0.00084341
20070.0 0.00082829
20090.0 0.00081251
20110.0 0.00079555
20130.0 0.00077874
20150.0 0.00076233
20170.0 0.0007458
20190.0 0.00072936
20210.0 0.00071379
20230.0 0.00069863
20250.0 0.00068352
20270.0 0.0006692
20290.0 0.00065569
20310.0 0.00064253
20330.0 0.00062975
20350.0 0.00061819
20370.0 0.00060719
20390.0 0.00059667
20410.0 0.00058696
20430.0 0.00057809
20450.0 0.0005696
20470.0 0.0005618
20490.0 0.00055475
20510.0 0.00054824
20530.0 0.00054219
20550.0 0.0005367
20570.0 0.00053171
20590.0 0.00052705
20610.0 0.00052275
20630.0 0.00051876
20650.0 0.00051499
20670.0 0.00051141
20690.0 0.00050797
20710.0 0.00050459
20730.0 0.00050125
20750.0 0.00049789
20770.0 0.00049447
20790.0 0.00049095
20810.0 0.0004873
20830.0 0.0004835
20850.0 0.00047954
20870.0 0.00047537
20890.0 0.00047098
20910.0 0.00046646
20930.0 0.00046172
20950.0 0.00045676
20970.0 0.00045169
20990.0 0.00044651
21010.0 0.00044109
21030.0 0.0004356
21050.0 0.0004301
21070.0 0.00042449
21090.0 0.00041876
21110.0 0.00041314
21130.0 0.00040756
21150.0 0.0004019
21170.0 0.00039632
21190.0 0.0003909
21210.0 0.00038544
21230.0 0.00038002
21250.0 0.00037481
21270.0 0.00036971
21290.0 0.00036464
21310.0 0.00035972
21330.0 0.00035503
21350.0 0.0003504
21370.0 0.00034589
21390.0 0.0003416
21410.0 0.00033746
21430.0 0.0003334
21450.0 0.00032956
21470.0 0.00032594
21490.0 0.00032243
21510.0 0.00031909
21530.0 0.00031594
21550.0 0.00031294
21570.0 0.00031006
21590.0 0.00030733
21610.0 0.00030474
21630.0 0.00030224
21650.0 0.00029983
21670.0 0.00029752
21690.0 0.00029528
21710.0 0.00029309
21730.0 0.00029095
21750.0 0.00028884
21770.0 0.00028676
21790.0 0.0002847
21810.0 0.00028266
21830.0 0.00028063
21850.0 0.00027861
21870.0 0.00027661
21890.0 0.00027461
21910.0 0.00027261
21930.0 0.00027062
21950.0 0.00026864
21970.0 0.00026665
21990.0 0.00026465
22010.0 0.00026265
22030.0 0.00026064
22050.0 0.00025861
22070.0 0.00025654
22090.0 0.00025447
22110.0 0.00025235
22130.0 0.00025018
22150.0 0.00024798
22170.0 0.00024575
22190.0 0.00024343
22210.0 0.00024107
22230.0 0.0002387
22250.0 0.00023625
22270.0 0.00023374
22290.0 0.00023121
22310.0 0.00022866
22330.0 0.00022599
22350.0 0.00022329
22370.0 0.0002206
22390.0 0.00021782
22410.0 0.00021496
22430.0 0.00021212
22450.0 0.00020926
22470.0 0.0002063
22490.0 0.00020332
22510.0 0.00020037
22530.0 0.00019733
22550.0 0.00019423
22570.0 0.0001912
22590.0 0.00018818
22610.0 0.0001851
22630.0 0.00018207
22650.0 0.00017916
22670.0 0.00017623
22690.0 0.00017333
22710.0 0.00017056
22730.0 0.00016788
22750.0 0.00016518
22770.0 0.00016265
22790.0 0.00016027
22810.0 0.00015794
22830.0 0.00015571
22850.0 0.00015365
22870.0 0.00015167
22890.0 0.00014975
22910.0 0.00014797
22930.0 0.0001463
22950.0 0.00014468
22970.0 0.00014313
22990.0 0.00014171
23010.0 0.00014033
23030.0 0.00013899
23050.0 0.00013771
23070.0 0.0001365
23090.0 0.00013528
23110.0 0.00013411
23130.0 0.00013299
23150.0 0.00013188
23170.0 0.00013079
23190.0 0.00012973
23210.0 0.0001287
23230.0 0.00012766
23250.0 0.00012665
23270.0 0.00012566
23290.0 0.00012468
23310.0 0.00012368
23330.0 0.00012272
23350.0 0.00012178
23370.0 0.00012083
23390.0 0.00011989
23410.0 0.00011899
23430.0 0.00011809
23450.0 0.00011721
23470.0 0.00011637
23490.0 0.00011557
23510.0 0.00011478
23530.0 0.00011404
