#lamb flux
1010.0 3.1802e-06
1030.0 3.936e-06
1050.0 4.7565e-06
1070.0 5.6163e-06
1090.0 6.516e-06
1110.0 7.3258e-06
1130.0 8.0052e-06
1150.0 8.4855e-06
1170.0 8.8165e-06
1190.0 8.9783e-06
1210.0 9.9066e-06
1230.0 1.0879e-05
1250.0 1.1846e-05
1270.0 1.279e-05
1290.0 1.3771e-05
1310.0 1.4734e-05
1330.0 1.5631e-05
1350.0 1.6498e-05
1370.0 1.7344e-05
1390.0 1.8114e-05
1410.0 1.8799e-05
1430.0 1.9462e-05
1450.0 2.0065e-05
1470.0 2.0584e-05
1490.0 2.1062e-05
1510.0 2.3435e-05
1530.0 2.663e-05
1550.0 2.9877e-05
1570.0 3.2802e-05
1590.0 3.5774e-05
1610.0 3.8702e-05
1630.0 4.1645e-05
1650.0 4.4581e-05
1670.0 4.7413e-05
1690.0 5.0153e-05
1710.0 5.2865e-05
1730.0 5.55e-05
1750.0 5.7957e-05
1770.0 6.0368e-05
1790.0 6.2724e-05
1810.0 6.4946e-05
1830.0 6.7062e-05
1850.0 6.9197e-05
1870.0 7.1219e-05
1890.0 7.312e-05
1910.0 7.4991e-05
1930.0 7.6843e-05
1950.0 7.8566e-05
1970.0 8.0219e-05
1990.0 8.1882e-05
2010.0 8.3472e-05
2030.0 8.4961e-05
2050.0 8.6457e-05
2070.0 8.7958e-05
2090.0 8.9331e-05
2110.0 9.0668e-05
2130.0 9.2024e-05
2150.0 9.3325e-05
2170.0 9.4538e-05
2190.0 9.5789e-05
2210.0 9.7037e-05
2230.0 9.8211e-05
2250.0 9.9374e-05
2270.0 0.0001006
2290.0 0.00010178
2310.0 0.00010291
2330.0 0.00010409
2350.0 0.0001053
2370.0 0.00010645
2390.0 0.00010763
2410.0 0.0001089
2430.0 0.00011017
2450.0 0.00011148
2470.0 0.000113
2490.0 0.00011486
2510.0 0.00011708
2530.0 0.00012007
2550.0 0.00012433
2570.0 0.00013013
2590.0 0.00013784
2610.0 0.00014885
2630.0 0.00016337
2650.0 0.00018094
2670.0 0.00020243
2690.0 0.00022814
2710.0 0.00025589
2730.0 0.00028463
2750.0 0.00031524
2770.0 0.00034507
2790.0 0.00037223
2810.0 0.00039716
2830.0 0.00041988
2850.0 0.0004382
2870.0 0.0004537
2890.0 0.00046743
2910.0 0.00047956
2930.0 0.00049039
2950.0 0.00050102
2970.0 0.0005116
2990.0 0.00052185
3010.0 0.00053203
3030.0 0.00054246
3050.0 0.00055282
3070.0 0.00056261
3090.0 0.00057246
3110.0 0.00058244
3130.0 0.00059278
3150.0 0.00060679
3170.0 0.00062548
3190.0 0.00065166
3210.0 0.00068728
3230.0 0.00073524
3250.0 0.00079233
3270.0 0.00083558
3290.0 0.00092217
3310.0 0.0011358
3330.0 0.0011812
3350.0 0.001185
3370.0 0.0011861
3390.0 0.0011872
3410.0 0.0011891
3430.0 0.0011917
3450.0 0.0011945
3470.0 0.001197
3490.0 0.0011998
3510.0 0.0012056
3530.0 0.0011846
3550.0 0.0011356
3570.0 0.0011171
3590.0 0.0011455
3610.0 0.0012213
3630.0 0.0012137
3650.0 0.0011419
3670.0 0.0010491
3690.0 0.0010065
3710.0 0.0010272
3730.0 0.0010559
3750.0 0.0010695
3770.0 0.0011049
3790.0 0.0011471
3810.0 0.0011247
3830.0 0.0010565
3850.0 0.001005
3870.0 0.00098798
3890.0 0.000979
3910.0 0.00096308
3930.0 0.00096715
3950.0 0.0010096
3970.0 0.0010601
3990.0 0.0010975
4010.0 0.0010764
4030.0 0.0010446
4050.0 0.0010363
4070.0 0.0010337
4090.0 0.0010345
4110.0 0.0010236
4130.0 0.00099224
4150.0 0.00096073
4170.0 0.00095424
4190.0 0.00091667
4210.0 0.00086072
4230.0 0.00079775
4250.0 0.00073613
4270.0 0.00069491
4290.0 0.00066257
4310.0 0.00065581
4330.0 0.0006783
4350.0 0.00069726
4370.0 0.0007282
4390.0 0.00077563
4410.0 0.00081779
4430.0 0.00080916
4450.0 0.00075911
4470.0 0.00071639
4490.0 0.00069746
4510.0 0.00069146
4530.0 0.00069633
4550.0 0.00070216
4570.0 0.00071438
4590.0 0.00073784
4610.0 0.00077819
4630.0 0.00080688
4650.0 0.00082793
4670.0 0.00081698
4690.0 0.00077805
4710.0 0.00073613
4730.0 0.00071106
4750.0 0.00069534
4770.0 0.0007054
4790.0 0.00070263
4810.0 0.0006872
4830.0 0.00069859
4850.0 0.00070922
4870.0 0.00072371
4890.0 0.0006982
4910.0 0.00066878
4930.0 0.00062314
4950.0 0.00056996
4970.0 0.00052459
4990.0 0.00048734
5010.0 0.00047851
5030.0 0.00048932
5050.0 0.00048757
5070.0 0.00049858
5090.0 0.00051966
5110.0 0.00051814
5130.0 0.00051452
5150.0 0.00051343
5170.0 0.00051281
5190.0 0.00051904
5210.0 0.00050913
5230.0 0.00049723
5250.0 0.00048965
5270.0 0.00048275
5290.0 0.0004767
5310.0 0.00046948
5330.0 0.00045302
5350.0 0.00044381
5370.0 0.00043235
5390.0 0.00041903
5410.0 0.00041061
5430.0 0.00040261
5450.0 0.00040813
5470.0 0.00041204
5490.0 0.00041241
5510.0 0.00042261
5530.0 0.0004249
5550.0 0.0004304
5570.0 0.00042754
5590.0 0.00041458
5610.0 0.00041047
5630.0 0.00041451
5650.0 0.00040916
5670.0 0.00040101
5690.0 0.00038867
5710.0 0.0003915
5730.0 0.00039635
5750.0 0.0003814
5770.0 0.000365
5790.0 0.00033471
5810.0 0.00029237
5830.0 0.00032045
5850.0 0.00036329
5870.0 0.00037749
5890.0 0.00038435
5910.0 0.00039009
5930.0 0.00039556
5950.0 0.00039324
5970.0 0.00039418
5990.0 0.00039298
6010.0 0.00038747
6030.0 0.0003793
6050.0 0.00037944
6070.0 0.00038611
6090.0 0.00038519
6110.0 0.00037745
6130.0 0.00037142
6150.0 0.00036191
6170.0 0.00035159
6190.0 0.00034441
6210.0 0.00033718
6230.0 0.00033642
6250.0 0.00033442
6270.0 0.00033257
6290.0 0.00033351
6310.0 0.00033428
6330.0 0.00033121
6350.0 0.00032513
6370.0 0.00032233
6390.0 0.00032161
6410.0 0.00031551
6430.0 0.00031124
6450.0 0.00030688
6470.0 0.00030256
6490.0 0.00030034
6510.0 0.00029934
6530.0 0.00029352
6550.0 0.00028898
6570.0 0.00028725
6590.0 0.00028722
6610.0 0.00028655
6630.0 0.00027774
6650.0 0.00027158
6670.0 0.00026985
6690.0 0.00026608
6710.0 0.00026018
6730.0 0.00025824
6750.0 0.00026005
6770.0 0.0002765
6790.0 0.00031367
6810.0 0.000295
6830.0 0.00025494
6850.0 0.00024475
6870.0 0.0002396
6890.0 0.0002383
6910.0 0.0002374
6930.0 0.00023653
6950.0 0.00023329
6970.0 0.00022552
6990.0 0.00022147
7010.0 0.00022258
7030.0 0.0002207
7050.0 0.00021515
7070.0 0.00021239
7090.0 0.00021285
7110.0 0.00021582
7130.0 0.00021321
7150.0 0.00021091
7170.0 0.00020939
7190.0 0.00021061
7210.0 0.00020841
7230.0 0.00020621
7250.0 0.00020633
7270.0 0.00020494
7290.0 0.0002046
7310.0 0.0002066
7330.0 0.00020237
7350.0 0.00019544
7370.0 0.00018871
7390.0 0.00018405
7410.0 0.00018419
7430.0 0.0001835
7450.0 0.00018189
7470.0 0.00018039
7490.0 0.0001761
7510.0 0.00017241
7530.0 0.00017121
7550.0 0.00017766
7570.0 0.0001757
7590.0 0.00016188
7610.0 0.00015657
7630.0 0.00016431
7650.0 0.00016431
7670.0 0.00016559
7690.0 0.00017295
7710.0 0.00017493
7730.0 0.00017239
7750.0 0.00018095
7770.0 0.00017157
7790.0 0.00016437
7810.0 0.00017371
7830.0 0.00017712
7850.0 0.0001815
7870.0 0.00018156
7890.0 0.00018208
7910.0 0.00017881
7930.0 0.00017972
7950.0 0.00018763
7970.0 0.00018467
7990.0 0.00016897
8010.0 0.00016931
8030.0 0.00016715
8050.0 0.00016404
8070.0 0.00016004
8090.0 0.00014542
8110.0 0.00014555
8130.0 0.00015783
8150.0 0.00016454
8170.0 0.00016674
8190.0 0.00017199
8210.0 0.00016812
8230.0 0.00016615
8250.0 0.00016591
8270.0 0.00016299
8290.0 0.00015969
8310.0 0.00015205
8330.0 0.00015166
8350.0 0.00015446
8370.0 0.00015551
8390.0 0.00015418
8410.0 0.00015209
8430.0 0.00014904
8450.0 0.00014838
8470.0 0.00015505
8490.0 0.00015656
8510.0 0.00014968
8530.0 0.00014484
8550.0 0.0001439
8570.0 0.00013903
8590.0 0.00013728
8610.0 0.00013971
8630.0 0.00014057
8650.0 0.00013973
8670.0 0.00013891
8690.0 0.00013704
8710.0 0.00013124
8730.0 0.00013045
8750.0 0.00012769
8770.0 0.00012807
8790.0 0.00012758
8810.0 0.0001237
8830.0 0.00012388
8850.0 0.00012548
8870.0 0.00011946
8890.0 0.00011421
8910.0 0.00011077
8930.0 0.00010642
8950.0 0.0001029
8970.0 9.8606e-05
8990.0 9.6907e-05
9010.0 9.3089e-05
9030.0 9.1971e-05
9050.0 9.1424e-05
9070.0 9.0903e-05
9090.0 9.0377e-05
9110.0 8.9836e-05
9130.0 8.9297e-05
9150.0 8.8767e-05
9170.0 8.8231e-05
9190.0 8.769e-05
9210.0 8.7144e-05
9230.0 8.6596e-05
9250.0 8.6045e-05
9270.0 8.5492e-05
9290.0 8.4937e-05
9310.0 8.4395e-05
9330.0 8.3871e-05
9350.0 8.3347e-05
9370.0 8.2821e-05
9390.0 8.2295e-05
9410.0 8.1768e-05
9430.0 8.124e-05
9450.0 8.0713e-05
9470.0 8.0236e-05
9490.0 7.9732e-05
9510.0 7.9179e-05
9530.0 7.8632e-05
9550.0 7.8097e-05
9570.0 7.7569e-05
9590.0 7.7043e-05
9610.0 7.6536e-05
9630.0 7.6038e-05
9650.0 7.5539e-05
9670.0 7.5039e-05
9690.0 7.4545e-05
9710.0 7.4054e-05
9730.0 7.3562e-05
9750.0 7.3073e-05
9770.0 7.2592e-05
9790.0 7.211e-05
9810.0 7.1629e-05
9830.0 7.1153e-05
9850.0 7.0638e-05
9870.0 7.0113e-05
9890.0 6.9689e-05
9910.0 6.9254e-05
9930.0 6.8739e-05
9950.0 6.8284e-05
9970.0 6.7867e-05
9990.0 6.7439e-05
10010.0 6.7014e-05
10030.0 6.6584e-05
10050.0 6.6151e-05
10070.0 6.5722e-05
10090.0 6.53e-05
10110.0 6.4875e-05
10130.0 6.4455e-05
10150.0 6.4044e-05
10170.0 6.3636e-05
10190.0 6.3228e-05
10210.0 6.283e-05
10230.0 6.2437e-05
10250.0 6.2046e-05
10270.0 6.1659e-05
10290.0 6.1281e-05
10310.0 6.0904e-05
10330.0 6.0528e-05
10350.0 6.0162e-05
10370.0 5.9802e-05
10390.0 5.9439e-05
10410.0 5.9051e-05
10430.0 5.866e-05
10450.0 5.8354e-05
10470.0 5.803e-05
10490.0 5.7709e-05
10510.0 5.739e-05
10530.0 5.7062e-05
10550.0 5.6741e-05
10570.0 5.6431e-05
10590.0 5.6118e-05
10610.0 5.5808e-05
10630.0 5.5509e-05
10650.0 5.5213e-05
10670.0 5.4914e-05
10690.0 5.4624e-05
10710.0 5.4342e-05
10730.0 5.406e-05
10750.0 5.3776e-05
10770.0 5.3508e-05
10790.0 5.3242e-05
10810.0 5.2974e-05
10830.0 5.2713e-05
10850.0 5.2463e-05
10870.0 5.2205e-05
10890.0 5.1951e-05
10910.0 5.1708e-05
10930.0 5.1464e-05
10950.0 5.1214e-05
10970.0 5.0968e-05
10990.0 5.0727e-05
11010.0 5.1418e-05
11030.0 5.1155e-05
11050.0 5.0902e-05
11070.0 5.0646e-05
11090.0 5.037e-05
11110.0 5.0107e-05
11130.0 4.9845e-05
11150.0 4.9568e-05
11170.0 4.9286e-05
11190.0 4.9015e-05
11210.0 4.8734e-05
11230.0 4.8442e-05
11250.0 4.8163e-05
11270.0 4.7893e-05
11290.0 4.7616e-05
11310.0 4.7348e-05
11330.0 4.7111e-05
11350.0 4.688e-05
11370.0 4.6658e-05
11390.0 4.6461e-05
11410.0 4.6282e-05
11430.0 4.6103e-05
11450.0 4.5941e-05
11470.0 4.5795e-05
11490.0 4.5652e-05
11510.0 4.5506e-05
11530.0 4.5371e-05
11550.0 4.5237e-05
11570.0 4.5092e-05
11590.0 4.4944e-05
11610.0 4.4799e-05
11630.0 4.4637e-05
11650.0 4.4461e-05
11670.0 4.429e-05
11690.0 4.4111e-05
11710.0 4.3916e-05
11730.0 4.3718e-05
11750.0 4.3526e-05
11770.0 4.332e-05
11790.0 4.3108e-05
11810.0 4.2904e-05
11830.0 4.2702e-05
11850.0 4.2487e-05
11870.0 4.2286e-05
11890.0 4.21e-05
11910.0 4.1912e-05
11930.0 4.1731e-05
11950.0 4.1571e-05
11970.0 4.142e-05
11990.0 4.1272e-05
12010.0 4.1143e-05
12030.0 4.1032e-05
12050.0 4.0929e-05
12070.0 4.0835e-05
12090.0 4.0765e-05
12110.0 4.0705e-05
12130.0 4.0651e-05
12150.0 4.061e-05
12170.0 4.0579e-05
12190.0 4.0547e-05
12210.0 4.0519e-05
12230.0 4.0495e-05
12250.0 4.0466e-05
12270.0 4.0427e-05
12290.0 4.0382e-05
12310.0 4.0328e-05
12330.0 4.0253e-05
12350.0 4.016e-05
12370.0 4.0055e-05
12390.0 3.9928e-05
12410.0 3.9767e-05
12430.0 3.9597e-05
12450.0 3.9411e-05
12470.0 3.9196e-05
12490.0 3.8962e-05
12510.0 3.8726e-05
12530.0 3.8466e-05
12550.0 3.8185e-05
12570.0 3.7903e-05
12590.0 3.7618e-05
12610.0 3.7311e-05
12630.0 3.7e-05
12650.0 3.6707e-05
12670.0 3.6404e-05
12690.0 3.6097e-05
12710.0 3.5807e-05
12730.0 3.5526e-05
12750.0 3.5236e-05
12770.0 3.4964e-05
12790.0 3.4714e-05
12810.0 3.4469e-05
12830.0 3.4232e-05
12850.0 3.4022e-05
12870.0 3.3829e-05
12890.0 3.3644e-05
12910.0 3.348e-05
12930.0 3.3339e-05
12950.0 3.321e-05
12970.0 3.3097e-05
12990.0 3.301e-05
13010.0 3.2941e-05
13030.0 3.2886e-05
13050.0 3.2851e-05
13070.0 3.2831e-05
13090.0 3.2822e-05
13110.0 3.2824e-05
13130.0 3.2831e-05
13150.0 3.2841e-05
13170.0 3.2849e-05
13190.0 3.2851e-05
13210.0 3.2843e-05
13230.0 3.2821e-05
13250.0 3.2781e-05
13270.0 3.2725e-05
13290.0 3.2647e-05
13310.0 3.2544e-05
13330.0 3.242e-05
13350.0 3.2278e-05
13370.0 3.211e-05
13390.0 3.1916e-05
13410.0 3.1715e-05
13430.0 3.1493e-05
13450.0 3.1247e-05
13470.0 3.0992e-05
13490.0 3.0731e-05
13510.0 3.0441e-05
13530.0 3.0143e-05
13550.0 2.9846e-05
13570.0 2.9537e-05
13590.0 2.9211e-05
13610.0 2.889e-05
13630.0 2.8572e-05
13650.0 2.8237e-05
13670.0 2.7901e-05
13690.0 2.7575e-05
13710.0 2.7244e-05
13730.0 2.6899e-05
13750.0 2.6575e-05
13770.0 2.6258e-05
13790.0 2.5935e-05
13810.0 2.5622e-05
13830.0 2.5327e-05
13850.0 2.5032e-05
13870.0 2.4741e-05
13890.0 2.4468e-05
13910.0 2.4206e-05
13930.0 2.3943e-05
13950.0 2.3692e-05
13970.0 2.3461e-05
13990.0 2.3232e-05
14010.0 2.3009e-05
14030.0 2.28e-05
14050.0 2.26e-05
14070.0 2.2398e-05
14090.0 2.221e-05
14110.0 2.2033e-05
14130.0 2.186e-05
14150.0 2.1691e-05
14170.0 2.1536e-05
14190.0 2.1386e-05
14210.0 2.1237e-05
14230.0 2.1095e-05
14250.0 2.0961e-05
14270.0 2.0826e-05
14290.0 2.0692e-05
14310.0 2.0567e-05
14330.0 2.0442e-05
14350.0 2.0316e-05
14370.0 2.0194e-05
14390.0 2.0076e-05
14410.0 1.9956e-05
14430.0 1.9836e-05
14450.0 1.9721e-05
14470.0 1.9605e-05
14490.0 1.9487e-05
14510.0 1.9372e-05
14530.0 1.9259e-05
14550.0 1.9144e-05
14570.0 1.9028e-05
14590.0 1.8915e-05
14610.0 1.88e-05
14630.0 1.8681e-05
14650.0 1.8565e-05
14670.0 1.8449e-05
14690.0 1.8329e-05
14710.0 1.8207e-05
14730.0 1.809e-05
14750.0 1.7969e-05
14770.0 1.7845e-05
14790.0 1.7723e-05
14810.0 1.7601e-05
14830.0 1.7472e-05
14850.0 1.7343e-05
14870.0 1.7217e-05
14890.0 1.7089e-05
14910.0 1.6959e-05
14930.0 1.6834e-05
14950.0 1.6715e-05
14970.0 1.6598e-05
14990.0 1.649e-05
15010.0 1.6391e-05
15030.0 1.63e-05
15050.0 1.6213e-05
15070.0 1.6136e-05
15090.0 1.6064e-05
15110.0 1.5993e-05
15130.0 1.5925e-05
15150.0 1.586e-05
15170.0 1.5794e-05
15190.0 1.5727e-05
15210.0 1.5663e-05
15230.0 1.5599e-05
15250.0 1.5533e-05
15270.0 1.5469e-05
15290.0 1.5406e-05
15310.0 1.5343e-05
15330.0 1.5279e-05
15350.0 1.5217e-05
15370.0 1.5155e-05
15390.0 1.5092e-05
15410.0 1.503e-05
15430.0 1.497e-05
15450.0 1.4908e-05
15470.0 1.4847e-05
15490.0 1.4787e-05
15510.0 1.4728e-05
15530.0 1.4667e-05
15550.0 1.4608e-05
15570.0 1.455e-05
15590.0 1.4491e-05
15610.0 1.4432e-05
15630.0 1.4375e-05
15650.0 1.4318e-05
15670.0 1.426e-05
15690.0 1.4203e-05
15710.0 1.4148e-05
15730.0 1.4091e-05
15750.0 1.4035e-05
15770.0 1.3981e-05
15790.0 1.3926e-05
15810.0 1.3871e-05
15830.0 1.3817e-05
15850.0 1.3764e-05
15870.0 1.371e-05
15890.0 1.3657e-05
15910.0 1.3605e-05
15930.0 1.3553e-05
15950.0 1.3501e-05
15970.0 1.3449e-05
15990.0 1.3399e-05
16010.0 1.3348e-05
16030.0 1.3297e-05
16050.0 1.3248e-05
16070.0 1.3198e-05
16090.0 1.3149e-05
16110.0 1.31e-05
16130.0 1.3053e-05
16150.0 1.3003e-05
16170.0 1.2955e-05
16190.0 1.2909e-05
16210.0 1.2862e-05
16230.0 1.2814e-05
16250.0 1.2768e-05
16270.0 1.2723e-05
16290.0 1.2677e-05
16310.0 1.2631e-05
16330.0 1.2587e-05
16350.0 1.2543e-05
16370.0 1.2497e-05
16390.0 1.2454e-05
16410.0 1.2411e-05
16430.0 1.2367e-05
16450.0 1.2324e-05
16470.0 1.2282e-05
16490.0 1.224e-05
16510.0 1.2197e-05
16530.0 1.2155e-05
16550.0 1.2115e-05
16570.0 1.2073e-05
16590.0 1.2031e-05
16610.0 1.1992e-05
16630.0 1.1952e-05
16650.0 1.1911e-05
16670.0 1.1872e-05
16690.0 1.1833e-05
16710.0 1.1793e-05
16730.0 1.1754e-05
16750.0 1.1716e-05
16770.0 1.1678e-05
16790.0 1.1639e-05
16810.0 1.1602e-05
16830.0 1.1565e-05
16850.0 1.1527e-05
16870.0 1.149e-05
16890.0 1.1454e-05
16910.0 1.1417e-05
16930.0 1.138e-05
16950.0 1.1344e-05
16970.0 1.1309e-05
16990.0 1.1272e-05
17010.0 1.1237e-05
17030.0 1.1203e-05
17050.0 1.1168e-05
17070.0 1.1132e-05
17090.0 1.1098e-05
17110.0 1.1064e-05
17130.0 1.1029e-05
17150.0 1.0995e-05
17170.0 1.0962e-05
17190.0 1.0928e-05
17210.0 1.0894e-05
17230.0 1.0862e-05
17250.0 1.0829e-05
17270.0 1.0795e-05
17290.0 1.0762e-05
17310.0 1.073e-05
17330.0 1.0697e-05
17350.0 1.0664e-05
17370.0 1.0633e-05
17390.0 1.0601e-05
17410.0 1.0569e-05
17430.0 1.0538e-05
17450.0 1.0507e-05
17470.0 1.0474e-05
17490.0 1.0443e-05
17510.0 1.0412e-05
17530.0 1.0381e-05
17550.0 1.0349e-05
17570.0 1.0319e-05
17590.0 1.0289e-05
17610.0 1.0258e-05
17630.0 1.0227e-05
17650.0 1.0198e-05
17670.0 1.0167e-05
17690.0 1.0136e-05
17710.0 1.0106e-05
17730.0 1.0077e-05
17750.0 1.0046e-05
17770.0 1.0016e-05
17790.0 9.9878e-06
17810.0 9.9576e-06
17830.0 9.9273e-06
17850.0 9.8982e-06
17870.0 9.8692e-06
17890.0 9.8388e-06
17910.0 9.8091e-06
17930.0 9.781e-06
17950.0 9.7516e-06
17970.0 9.7219e-06
17990.0 9.6935e-06
18010.0 9.665e-06
18030.0 9.6346e-06
18050.0 9.6056e-06
18070.0 9.5774e-06
18090.0 9.5482e-06
18110.0 9.5185e-06
18130.0 9.4906e-06
18150.0 9.4622e-06
18170.0 9.4327e-06
18190.0 9.404e-06
18210.0 9.3762e-06
18230.0 9.3468e-06
18250.0 9.3171e-06
18270.0 9.2893e-06
18290.0 9.2609e-06
18310.0 9.2315e-06
18330.0 9.203e-06
18350.0 9.1755e-06
18370.0 9.1461e-06
18390.0 9.117e-06
18410.0 9.0891e-06
18430.0 9.0606e-06
18450.0 9.0306e-06
18470.0 9.0023e-06
18490.0 8.9745e-06
18510.0 8.9454e-06
18530.0 8.9164e-06
18550.0 8.8888e-06
18570.0 8.86e-06
18590.0 8.8302e-06
18610.0 8.8017e-06
18630.0 8.7736e-06
18650.0 8.7441e-06
18670.0 8.7146e-06
18690.0 8.687e-06
18710.0 8.6582e-06
18730.0 8.6286e-06
18750.0 8.6001e-06
18770.0 8.5721e-06
18790.0 8.5417e-06
18810.0 8.5122e-06
18830.0 8.4841e-06
18850.0 8.4549e-06
18870.0 8.4249e-06
18890.0 8.3963e-06
18910.0 8.3679e-06
18930.0 8.3378e-06
18950.0 8.3083e-06
18970.0 8.2798e-06
18990.0 8.2502e-06
19010.0 8.2191e-06
19030.0 8.1904e-06
19050.0 8.1614e-06
19070.0 8.1311e-06
19090.0 8.1014e-06
19110.0 8.0729e-06
19130.0 8.0425e-06
19150.0 8.0118e-06
19170.0 7.9825e-06
19190.0 7.9529e-06
19210.0 7.9218e-06
19230.0 7.8914e-06
19250.0 7.8625e-06
19270.0 7.832e-06
19290.0 7.8011e-06
19310.0 7.7716e-06
19330.0 7.7417e-06
19350.0 7.7097e-06
19370.0 7.6792e-06
19390.0 7.6493e-06
19410.0 7.6182e-06
19430.0 7.5867e-06
19450.0 7.5568e-06
19470.0 7.5263e-06
19490.0 7.4945e-06
19510.0 7.4636e-06
19530.0 7.4334e-06
19550.0 7.4013e-06
19570.0 7.369e-06
19590.0 7.3387e-06
19610.0 7.3075e-06
19630.0 7.2752e-06
19650.0 7.2439e-06
19670.0 7.2134e-06
19690.0 7.1808e-06
19710.0 7.1485e-06
19730.0 7.1174e-06
19750.0 7.0855e-06
19770.0 7.052e-06
19790.0 7.0203e-06
19810.0 6.989e-06
19830.0 6.9563e-06
19850.0 6.9237e-06
19870.0 6.8928e-06
19890.0 6.8609e-06
19910.0 6.8286e-06
19930.0 6.7991e-06
19950.0 6.7716e-06
19970.0 6.7456e-06
19990.0 6.7231e-06
20010.0 6.7057e-06
20030.0 6.6913e-06
20050.0 6.6804e-06
20070.0 6.6733e-06
20090.0 6.6687e-06
20110.0 6.6653e-06
20130.0 6.6633e-06
20150.0 6.6621e-06
20170.0 6.6608e-06
20190.0 6.6593e-06
20210.0 6.6577e-06
20230.0 6.6558e-06
20250.0 6.6531e-06
20270.0 6.6501e-06
20290.0 6.6467e-06
20310.0 6.6425e-06
20330.0 6.6374e-06
20350.0 6.6324e-06
20370.0 6.6267e-06
20390.0 6.6201e-06
20410.0 6.6132e-06
20430.0 6.6064e-06
20450.0 6.5985e-06
20470.0 6.5903e-06
20490.0 6.5825e-06
20510.0 6.5745e-06
20530.0 6.5661e-06
20550.0 6.5581e-06
20570.0 6.5509e-06
20590.0 6.5433e-06
20610.0 6.536e-06
20630.0 6.5294e-06
20650.0 6.5229e-06
20670.0 6.5159e-06
20690.0 6.5096e-06
20710.0 6.5033e-06
20730.0 6.4964e-06
20750.0 6.489e-06
20770.0 6.4817e-06
20790.0 6.4734e-06
20810.0 6.4637e-06
20830.0 6.4534e-06
20850.0 6.4423e-06
20870.0 6.4292e-06
20890.0 6.4148e-06
20910.0 6.4003e-06
20930.0 6.3843e-06
20950.0 6.3667e-06
20970.0 6.3489e-06
20990.0 6.3309e-06
21010.0 6.3111e-06
21030.0 6.2913e-06
21050.0 6.2721e-06
21070.0 6.2523e-06
21090.0 6.2318e-06
21110.0 6.2126e-06
21130.0 6.194e-06
21150.0 6.1747e-06
21170.0 6.1559e-06
21190.0 6.1382e-06
21210.0 6.1198e-06
21230.0 6.1009e-06
21250.0 6.0829e-06
21270.0 6.0649e-06
21290.0 6.0458e-06
21310.0 6.0265e-06
21330.0 6.0079e-06
21350.0 5.9878e-06
21370.0 5.9668e-06
21390.0 5.946e-06
21410.0 5.9246e-06
21430.0 5.9009e-06
21450.0 5.8774e-06
21470.0 5.8542e-06
21490.0 5.8295e-06
21510.0 5.8037e-06
21530.0 5.7788e-06
21550.0 5.7532e-06
21570.0 5.7259e-06
21590.0 5.6992e-06
21610.0 5.6729e-06
21630.0 5.6456e-06
21650.0 5.6172e-06
21670.0 5.5911e-06
21690.0 5.5644e-06
21710.0 5.5369e-06
21730.0 5.5102e-06
21750.0 5.4847e-06
21770.0 5.4573e-06
21790.0 5.4302e-06
21810.0 5.4044e-06
21830.0 5.3783e-06
21850.0 5.3512e-06
21870.0 5.3249e-06
21890.0 5.2998e-06
21910.0 5.2733e-06
21930.0 5.2471e-06
21950.0 5.2221e-06
21970.0 5.197e-06
21990.0 5.1707e-06
22010.0 5.1465e-06
22030.0 5.1234e-06
22050.0 5.1e-06
22070.0 5.0775e-06
22090.0 5.0573e-06
22110.0 5.0374e-06
22130.0 5.018e-06
22150.0 5.0006e-06
22170.0 4.9846e-06
22190.0 4.9688e-06
22210.0 4.9543e-06
22230.0 4.9419e-06
22250.0 4.9299e-06
22270.0 4.9184e-06
22290.0 4.9083e-06
22310.0 4.899e-06
22330.0 4.8894e-06
22350.0 4.8805e-06
22370.0 4.8723e-06
22390.0 4.8639e-06
22410.0 4.8551e-06
22430.0 4.8471e-06
22450.0 4.839e-06
22470.0 4.8303e-06
22490.0 4.8215e-06
22510.0 4.8133e-06
22530.0 4.8042e-06
22550.0 4.7947e-06
22570.0 4.7859e-06
22590.0 4.7771e-06
22610.0 4.7678e-06
22630.0 4.759e-06
22650.0 4.7512e-06
22670.0 4.7431e-06
