#lamb flux
1010.0 9.6051e-05
1030.0 9.5927e-05
1050.0 9.6848e-05
1070.0 9.91e-05
1090.0 0.00010302
1110.0 0.00010889
1130.0 0.00011656
1150.0 0.00012592
1170.0 0.00013673
1190.0 0.00014828
1210.0 0.00016025
1230.0 0.00017228
1250.0 0.00018356
1270.0 0.00019356
1290.0 0.0002024
1310.0 0.00020944
1330.0 0.00021424
1350.0 0.00021648
1370.0 0.00021422
1390.0 0.00021082
1410.0 0.00020649
1430.0 0.00020182
1450.0 0.00019673
1470.0 0.00019128
1490.0 0.00018582
1510.0 0.00018044
1530.0 0.00017488
1550.0 0.00016959
1570.0 0.00016473
1590.0 0.0001597
1610.0 0.00015345
1630.0 0.00014746
1650.0 0.00014175
1670.0 0.0001362
1690.0 0.0001308
1710.0 0.00012591
1730.0 0.00012102
1750.0 0.00011565
1770.0 0.0001101
1790.0 0.00010428
1810.0 9.8098e-05
1830.0 8.8938e-05
1850.0 0.0001836
1870.0 0.00030013
1890.0 0.00042574
1910.0 0.00056199
1930.0 0.0007103
1950.0 0.00087061
1970.0 0.001044
1990.0 0.0012322
2010.0 0.0014346
2030.0 0.0016507
2050.0 0.0018822
2070.0 0.002129
2090.0 0.0023872
2110.0 0.0026574
2130.0 0.0029399
2150.0 0.0032308
2170.0 0.0035263
2190.0 0.0038285
2210.0 0.0041333
2230.0 0.0044347
2250.0 0.004732
2270.0 0.0050259
2290.0 0.0053077
2310.0 0.0055735
2330.0 0.0058261
2350.0 0.0060611
2370.0 0.0062717
2390.0 0.0064599
2410.0 0.0066268
2430.0 0.0067639
2450.0 0.0068707
2470.0 0.0069512
2490.0 0.0070052
2510.0 0.0070319
2530.0 0.0070468
2550.0 0.0070701
2570.0 0.0071239
2590.0 0.0072369
2610.0 0.0074774
2630.0 0.0078787
2650.0 0.0084369
2670.0 0.0091911
2690.0 0.010157
2710.0 0.011228
2730.0 0.012344
2750.0 0.013545
2770.0 0.014709
2790.0 0.01575
2810.0 0.01671
2830.0 0.017616
2850.0 0.018352
2870.0 0.019005
2890.0 0.019639
2910.0 0.020248
2930.0 0.020827
2950.0 0.021456
2970.0 0.022134
2990.0 0.022828
3010.0 0.023561
3030.0 0.024367
3050.0 0.025212
3070.0 0.026044
3090.0 0.026902
3110.0 0.027738
3130.0 0.028483
3150.0 0.029116
3170.0 0.029614
3190.0 0.029962
3210.0 0.030225
3230.0 0.030493
3250.0 0.030913
3270.0 0.03162
3290.0 0.032685
3310.0 0.034194
3330.0 0.036115
3350.0 0.038342
3370.0 0.040897
3390.0 0.043551
3410.0 0.046097
3430.0 0.048411
3450.0 0.050377
3470.0 0.05509
3490.0 0.057107
3510.0 0.051707
3530.0 0.04936
3550.0 0.064304
3570.0 0.077368
3590.0 0.076522
3610.0 0.082306
3630.0 0.082441
3650.0 0.075745
3670.0 0.076331
3690.0 0.086927
3710.0 0.095854
3730.0 0.10029
3750.0 0.090681
3770.0 0.089501
3790.0 0.093124
3810.0 0.089935
3830.0 0.078632
3850.0 0.071364
3870.0 0.075486
3890.0 0.084171
3910.0 0.089518
3930.0 0.091949
3950.0 0.095502
3970.0 0.09755
3990.0 0.098272
4010.0 0.094958
4030.0 0.086216
4050.0 0.081088
4070.0 0.08266
4090.0 0.087597
4110.0 0.090572
4130.0 0.089396
4150.0 0.088569
4170.0 0.089789
4190.0 0.09161
4210.0 0.088304
4230.0 0.080408
4250.0 0.072152
4270.0 0.066698
4290.0 0.062633
4310.0 0.058899
4330.0 0.060481
4350.0 0.062445
4370.0 0.062852
4390.0 0.064264
4410.0 0.063605
4430.0 0.062889
4450.0 0.06388
4470.0 0.064493
4490.0 0.069478
4510.0 0.072295
4530.0 0.074975
4550.0 0.077663
4570.0 0.080864
4590.0 0.08263
4610.0 0.083774
4630.0 0.084577
4650.0 0.085988
4670.0 0.080423
4690.0 0.07436
4710.0 0.069294
4730.0 0.067081
4750.0 0.063774
4770.0 0.061373
4790.0 0.06017
4810.0 0.058585
4830.0 0.061085
4850.0 0.066954
4870.0 0.049505
4890.0 0.049816
4910.0 0.053799
4930.0 0.055442
4950.0 0.050767
4970.0 0.047141
4990.0 0.045429
5010.0 0.04252
5030.0 0.040314
5050.0 0.04176
5070.0 0.044158
5090.0 0.045503
5110.0 0.049128
5130.0 0.050459
5150.0 0.052415
5170.0 0.054375
5190.0 0.053566
5210.0 0.056085
5230.0 0.057296
5250.0 0.057954
5270.0 0.058753
5290.0 0.057386
5310.0 0.055742
5330.0 0.053008
5350.0 0.050366
5370.0 0.048317
5390.0 0.049537
5410.0 0.049151
5430.0 0.049601
5450.0 0.049362
5470.0 0.048591
5490.0 0.048166
5510.0 0.046959
5530.0 0.045892
5550.0 0.045229
5570.0 0.045611
5590.0 0.046036
5610.0 0.046459
5630.0 0.045431
5650.0 0.044517
5670.0 0.042566
5690.0 0.041609
5710.0 0.040329
5730.0 0.040155
5750.0 0.039341
5770.0 0.037952
5790.0 0.039174
5810.0 0.039151
5830.0 0.040223
5850.0 0.040624
5870.0 0.040957
5890.0 0.040196
5910.0 0.040071
5930.0 0.038855
5950.0 0.039196
5970.0 0.038315
5990.0 0.037675
6010.0 0.037609
6030.0 0.038344
6050.0 0.037987
6070.0 0.037137
6090.0 0.036807
6110.0 0.037355
6130.0 0.036773
6150.0 0.035456
6170.0 0.033542
6190.0 0.031563
6210.0 0.030069
6230.0 0.029812
6250.0 0.030089
6270.0 0.030745
6290.0 0.031999
6310.0 0.034113
6330.0 0.035126
6350.0 0.035191
6370.0 0.035422
6390.0 0.035232
6410.0 0.034497
6430.0 0.03359
6450.0 0.033165
6470.0 0.033099
6490.0 0.032864
6510.0 0.032521
6530.0 0.032486
6550.0 0.032175
6570.0 0.030871
6590.0 0.0305
6610.0 0.030198
6630.0 0.02915
6650.0 0.028156
6670.0 0.027369
6690.0 0.027181
6710.0 0.026368
6730.0 0.025932
6750.0 0.025521
6770.0 0.024934
6790.0 0.025072
6810.0 0.024718
6830.0 0.023967
6850.0 0.023701
6870.0 0.023566
6890.0 0.023166
6910.0 0.023004
6930.0 0.022854
6950.0 0.022457
6970.0 0.021967
6990.0 0.021944
7010.0 0.021796
7030.0 0.021931
7050.0 0.021308
7070.0 0.021011
7090.0 0.021091
7110.0 0.02048
7130.0 0.020434
7150.0 0.020643
7170.0 0.020972
7190.0 0.020628
7210.0 0.02069
7230.0 0.021057
7250.0 0.020559
7270.0 0.020821
7290.0 0.020486
7310.0 0.019944
7330.0 0.019006
7350.0 0.019168
7370.0 0.019255
7390.0 0.01884
7410.0 0.018352
7430.0 0.018066
7450.0 0.017843
7470.0 0.018062
7490.0 0.018442
7510.0 0.018112
7530.0 0.017433
7550.0 0.017528
7570.0 0.016121
7590.0 0.015824
7610.0 0.015501
7630.0 0.015744
7650.0 0.015408
7670.0 0.015988
7690.0 0.015352
7710.0 0.016308
7730.0 0.016365
7750.0 0.01788
7770.0 0.018361
7790.0 0.018975
7810.0 0.019769
7830.0 0.020009
7850.0 0.020632
7870.0 0.020201
7890.0 0.019993
7910.0 0.019636
7930.0 0.018957
7950.0 0.018419
7970.0 0.018357
7990.0 0.018159
8010.0 0.016742
8030.0 0.016636
8050.0 0.01632
8070.0 0.016147
8090.0 0.015786
8110.0 0.015908
8130.0 0.016041
8150.0 0.016247
8170.0 0.016058
8190.0 0.016199
8210.0 0.015936
8230.0 0.015056
8250.0 0.01469
8270.0 0.01443
8290.0 0.014216
8310.0 0.013836
8330.0 0.014055
8350.0 0.013939
8370.0 0.013891
8390.0 0.014147
8410.0 0.014167
8430.0 0.014473
8450.0 0.014733
8470.0 0.014796
8490.0 0.014946
8510.0 0.014728
8530.0 0.014293
8550.0 0.014414
8570.0 0.014447
8590.0 0.014072
8610.0 0.014395
8630.0 0.014251
8650.0 0.013951
8670.0 0.01387
8690.0 0.013872
8710.0 0.013385
8730.0 0.013517
8750.0 0.013063
8770.0 0.01296
8790.0 0.012641
8810.0 0.012508
8830.0 0.0124
8850.0 0.011738
8870.0 0.011111
8890.0 0.010934
8910.0 0.010275
8930.0 0.0094886
8950.0 0.0094633
8970.0 0.0092027
8990.0 0.0091538
9010.0 0.009089
9030.0 0.0090287
9050.0 0.0089646
9070.0 0.0088998
9090.0 0.0088347
9110.0 0.0087692
9130.0 0.0087035
9150.0 0.0086383
9170.0 0.0085728
9190.0 0.0085072
9210.0 0.0084415
9230.0 0.0083757
9250.0 0.00831
9270.0 0.0082442
9290.0 0.0081784
9310.0 0.0081128
9330.0 0.0080473
9350.0 0.0079819
9370.0 0.0079165
9390.0 0.0078515
9410.0 0.0077865
9430.0 0.0077218
9450.0 0.0076573
9470.0 0.0075969
9490.0 0.0075348
9510.0 0.007469
9530.0 0.0074041
9550.0 0.0073402
9570.0 0.0072772
9590.0 0.0072145
9610.0 0.0071524
9630.0 0.0070909
9650.0 0.0070298
9670.0 0.0069689
9690.0 0.0069087
9710.0 0.006849
9730.0 0.0067895
9750.0 0.0067305
9770.0 0.0066724
9790.0 0.0066144
9810.0 0.0065568
9830.0 0.0064986
9850.0 0.0064318
9870.0 0.0063755
9890.0 0.006325
9910.0 0.0062737
9930.0 0.0062127
9950.0 0.0061593
9970.0 0.0061101
9990.0 0.0060595
10010.0 0.0060077
10030.0 0.0059566
10050.0 0.0059067
10070.0 0.0058575
10090.0 0.0058089
10110.0 0.0057591
10130.0 0.0057096
10150.0 0.0056621
10170.0 0.0056148
10190.0 0.0055671
10210.0 0.0055211
10230.0 0.0054759
10250.0 0.0054301
10270.0 0.0053852
10290.0 0.0053417
10310.0 0.0052978
10330.0 0.0052538
10350.0 0.0052114
10370.0 0.0051697
10390.0 0.0051277
10410.0 0.0050862
10430.0 0.0050462
10450.0 0.0050064
10470.0 0.0049665
10490.0 0.004928
10510.0 0.00489
10530.0 0.0048511
10550.0 0.0048134
10570.0 0.0047771
10590.0 0.0047405
10610.0 0.004704
10630.0 0.004669
10650.0 0.0046343
10670.0 0.004599
10690.0 0.0045647
10710.0 0.0045315
10730.0 0.004498
10750.0 0.0044642
10770.0 0.0044324
10790.0 0.0044007
10810.0 0.0043686
10830.0 0.0043374
10850.0 0.0043075
10870.0 0.0042766
10890.0 0.0042463
10910.0 0.0042176
10930.0 0.0041895
10950.0 0.0041616
10970.0 0.0041354
10990.0 0.0041112
11010.0 0.0041202
11030.0 0.0041014
11050.0 0.0040839
11070.0 0.0040666
11090.0 0.0040481
11110.0 0.0040297
11130.0 0.0040106
11150.0 0.0039898
11170.0 0.003968
11190.0 0.0039461
11210.0 0.0039231
11230.0 0.0038989
11250.0 0.0038752
11270.0 0.003852
11290.0 0.0038281
11310.0 0.0038049
11330.0 0.0037839
11350.0 0.0037634
11370.0 0.0037435
11390.0 0.0037256
11410.0 0.0037092
11430.0 0.0036927
11450.0 0.0036775
11470.0 0.0036636
11490.0 0.0036497
11510.0 0.0036355
11530.0 0.003622
11550.0 0.0036085
11570.0 0.0035939
11590.0 0.003579
11610.0 0.0035643
11630.0 0.0035484
11650.0 0.0035315
11670.0 0.0035154
11690.0 0.0034993
11710.0 0.0034822
11730.0 0.0034656
11750.0 0.0034503
11770.0 0.0034343
11790.0 0.0034184
11810.0 0.0034037
11830.0 0.0033894
11850.0 0.0033744
11870.0 0.0033605
11890.0 0.0033479
11910.0 0.0033353
11930.0 0.0033232
11950.0 0.0033128
11970.0 0.0033034
11990.0 0.0032946
12010.0 0.0032878
12030.0 0.0032832
12050.0 0.0032801
12070.0 0.0032789
12090.0 0.0032807
12110.0 0.0032845
12130.0 0.0032905
12150.0 0.0032989
12170.0 0.0033092
12190.0 0.0033216
12210.0 0.0033357
12230.0 0.003351
12250.0 0.0033676
12270.0 0.0033853
12290.0 0.0034034
12310.0 0.0034216
12330.0 0.0034401
12350.0 0.0034584
12370.0 0.003476
12390.0 0.0034928
12410.0 0.0035088
12430.0 0.0035231
12450.0 0.0035358
12470.0 0.0035465
12490.0 0.0035549
12510.0 0.0035611
12530.0 0.0035645
12550.0 0.0035648
12570.0 0.0035624
12590.0 0.0035574
12610.0 0.0035486
12630.0 0.0035367
12650.0 0.0035235
12670.0 0.0035071
12690.0 0.0034878
12710.0 0.0034675
12730.0 0.0034459
12750.0 0.0034211
12770.0 0.0033959
12790.0 0.0033711
12810.0 0.0033452
12830.0 0.0033182
12850.0 0.0032931
12870.0 0.0032688
12890.0 0.0032439
12910.0 0.0032205
12930.0 0.0031991
12950.0 0.0031777
12970.0 0.003157
12990.0 0.0031389
13010.0 0.0031218
13030.0 0.003105
13050.0 0.0030895
13070.0 0.0030757
13090.0 0.0030618
13110.0 0.0030483
13130.0 0.0030362
13150.0 0.0030246
13170.0 0.0030126
13190.0 0.0030017
13210.0 0.0029918
13230.0 0.0029817
13250.0 0.0029718
13270.0 0.0029627
13290.0 0.0029535
13310.0 0.0029435
13330.0 0.0029338
13350.0 0.0029241
13370.0 0.0029134
13390.0 0.0029018
13410.0 0.0028904
13430.0 0.0028781
13450.0 0.0028644
13470.0 0.0028504
13490.0 0.0028361
13510.0 0.0028199
13530.0 0.0028031
13550.0 0.0027864
13570.0 0.0027688
13590.0 0.00275
13610.0 0.0027312
13630.0 0.0027126
13650.0 0.0026926
13670.0 0.0026723
13690.0 0.0026524
13710.0 0.0026319
13730.0 0.0026099
13750.0 0.0025891
13770.0 0.0025683
13790.0 0.0025466
13810.0 0.0025249
13830.0 0.0025041
13850.0 0.0024824
13870.0 0.0024603
13890.0 0.0024389
13910.0 0.0024176
13930.0 0.0023954
13950.0 0.0023734
13970.0 0.0023525
13990.0 0.002331
14010.0 0.0023091
14030.0 0.0022881
14050.0 0.0022673
14070.0 0.0022455
14090.0 0.0022245
14110.0 0.0022042
14130.0 0.0021837
14150.0 0.002163
14170.0 0.0021435
14190.0 0.0021244
14210.0 0.0021049
14230.0 0.0020861
14250.0 0.002068
14270.0 0.0020496
14290.0 0.0020312
14310.0 0.0020138
14330.0 0.0019966
14350.0 0.001979
14370.0 0.001962
14390.0 0.0019457
14410.0 0.001929
14430.0 0.0019124
14450.0 0.0018966
14470.0 0.0018811
14490.0 0.0018652
14510.0 0.0018501
14530.0 0.0018357
14550.0 0.0018212
14570.0 0.001807
14590.0 0.0017935
14610.0 0.0017801
14630.0 0.0017665
14650.0 0.0017534
14670.0 0.0017407
14690.0 0.0017278
14710.0 0.001715
14730.0 0.0017029
14750.0 0.0016907
14770.0 0.0016785
14790.0 0.0016668
14810.0 0.0016554
14830.0 0.0016439
14850.0 0.0016328
14870.0 0.0016222
14890.0 0.0016117
14910.0 0.0016014
14930.0 0.0015916
14950.0 0.0015821
14970.0 0.0015726
14990.0 0.0015634
15010.0 0.0015546
15030.0 0.0015459
15050.0 0.0015372
15070.0 0.0015288
15090.0 0.0015205
15110.0 0.0015121
15130.0 0.0015038
15150.0 0.0014956
15170.0 0.0014872
15190.0 0.0014788
15210.0 0.0014705
15230.0 0.0014621
15250.0 0.0014536
15270.0 0.0014452
15290.0 0.0014368
15310.0 0.0014284
15330.0 0.0014199
15350.0 0.0014115
15370.0 0.0014031
15390.0 0.0013945
15410.0 0.001386
15430.0 0.0013776
15450.0 0.0013691
15470.0 0.0013605
15490.0 0.0013521
15510.0 0.0013437
15530.0 0.0013351
15550.0 0.0013267
15570.0 0.0013183
15590.0 0.0013098
15610.0 0.0013012
15630.0 0.0012928
15650.0 0.0012844
15670.0 0.0012759
15690.0 0.0012675
15710.0 0.0012592
15730.0 0.0012508
15750.0 0.0012424
15770.0 0.0012341
15790.0 0.0012258
15810.0 0.0012174
15830.0 0.0012091
15850.0 0.0012009
15870.0 0.0011926
15890.0 0.0011844
15910.0 0.0011763
15930.0 0.0011681
15950.0 0.0011599
15970.0 0.0011518
15990.0 0.0011437
16010.0 0.0011356
16030.0 0.0011275
16050.0 0.0011196
16070.0 0.0011116
16090.0 0.0011036
16110.0 0.0010957
16130.0 0.0010879
16150.0 0.00108
16170.0 0.0010721
16190.0 0.0010644
16210.0 0.0010566
16230.0 0.0010488
16250.0 0.0010412
16270.0 0.0010336
16290.0 0.0010259
16310.0 0.0010184
16330.0 0.0010109
16350.0 0.0010034
16370.0 0.00099582
16390.0 0.00098845
16410.0 0.00098111
16430.0 0.00097374
16450.0 0.00096643
16470.0 0.00095925
16490.0 0.00095201
16510.0 0.00094478
16530.0 0.00093768
16550.0 0.00093062
16570.0 0.00092352
16590.0 0.00091648
16610.0 0.00090959
16630.0 0.00090267
16650.0 0.00089576
16670.0 0.00088897
16690.0 0.00088223
16710.0 0.00087541
16730.0 0.00086871
16750.0 0.00086211
16770.0 0.00085549
16790.0 0.00084888
16810.0 0.00084241
16830.0 0.00083598
16850.0 0.00082952
16870.0 0.00082315
16890.0 0.00081688
16910.0 0.00081056
16930.0 0.00080426
16950.0 0.00079812
16970.0 0.000792
16990.0 0.00078587
17010.0 0.00077983
17030.0 0.0007739
17050.0 0.00076792
17070.0 0.00076199
17090.0 0.00075617
17110.0 0.00075038
17130.0 0.00074455
17150.0 0.00073885
17170.0 0.00073324
17190.0 0.00072761
17210.0 0.00072203
17230.0 0.00071657
17250.0 0.0007111
17270.0 0.00070563
17290.0 0.00070027
17310.0 0.00069498
17330.0 0.00068968
17350.0 0.00068441
17370.0 0.0006793
17390.0 0.00067418
17410.0 0.00066907
17430.0 0.00066406
17450.0 0.00065913
17470.0 0.00065413
17490.0 0.00064922
17510.0 0.00064443
17530.0 0.00063964
17550.0 0.00063486
17570.0 0.0006302
17590.0 0.0006256
17610.0 0.00062097
17630.0 0.00061642
17650.0 0.00061196
17670.0 0.00060751
17690.0 0.00060304
17710.0 0.00059872
17730.0 0.00059445
17750.0 0.00059016
17770.0 0.00058595
17790.0 0.00058185
17810.0 0.00057771
17830.0 0.00057361
17850.0 0.00056961
17870.0 0.00056567
17890.0 0.0005617
17910.0 0.0005578
17930.0 0.00055403
17950.0 0.00055024
17970.0 0.00054648
17990.0 0.00054282
18010.0 0.00053921
18030.0 0.00053555
18050.0 0.000532
18070.0 0.00052853
18090.0 0.00052506
18110.0 0.00052161
18130.0 0.00051829
18150.0 0.00051499
18170.0 0.00051168
18190.0 0.00050845
18210.0 0.00050531
18230.0 0.00050214
18250.0 0.000499
18270.0 0.00049599
18290.0 0.00049299
18310.0 0.00049
18330.0 0.00048709
18350.0 0.00048426
18370.0 0.0004814
18390.0 0.00047859
18410.0 0.00047588
18430.0 0.00047319
18450.0 0.00047047
18470.0 0.00046787
18490.0 0.00046533
18510.0 0.00046278
18530.0 0.00046027
18550.0 0.00045787
18570.0 0.00045546
18590.0 0.00045305
18610.0 0.00045073
18630.0 0.00044848
18650.0 0.0004462
18670.0 0.00044397
18690.0 0.00044185
18710.0 0.00043973
18730.0 0.00043762
18750.0 0.00043559
18770.0 0.00043361
18790.0 0.00043159
18810.0 0.00042964
18830.0 0.00042778
18850.0 0.00042592
18870.0 0.00042406
18890.0 0.00042231
18910.0 0.00042059
18930.0 0.00041885
18950.0 0.00041716
18970.0 0.00041556
18990.0 0.00041395
19010.0 0.00041231
19030.0 0.00041081
19050.0 0.00040933
19070.0 0.00040784
19090.0 0.0004064
19110.0 0.00040505
19130.0 0.00040366
19150.0 0.00040229
19170.0 0.000401
19190.0 0.00039975
19210.0 0.00039846
19230.0 0.00039724
19250.0 0.0003961
19270.0 0.00039494
19290.0 0.0003938
19310.0 0.00039274
19330.0 0.00039169
19350.0 0.00039059
19370.0 0.00038959
19390.0 0.00038864
19410.0 0.00038767
19430.0 0.00038671
19450.0 0.00038584
19470.0 0.00038498
19490.0 0.0003841
19510.0 0.00038328
19530.0 0.00038251
19550.0 0.0003817
19570.0 0.0003809
19590.0 0.00038021
19610.0 0.00037951
19630.0 0.00037879
19650.0 0.00037813
19670.0 0.00037753
19690.0 0.00037687
19710.0 0.00037624
19730.0 0.00037569
19750.0 0.00037513
19770.0 0.00037452
19790.0 0.00037401
19810.0 0.00037353
19830.0 0.00037301
19850.0 0.00037252
19870.0 0.0003721
19890.0 0.00037164
19910.0 0.00037116
19930.0 0.00037075
19950.0 0.00037035
19970.0 0.0003699
19990.0 0.00036944
20010.0 0.00036905
20030.0 0.00036857
20050.0 0.00036802
20070.0 0.00036749
20090.0 0.00036694
20110.0 0.00036622
20130.0 0.00036551
20150.0 0.00036485
20170.0 0.0003641
20190.0 0.0003633
20210.0 0.00036259
20230.0 0.00036189
20250.0 0.00036111
20270.0 0.00036042
20290.0 0.00035981
20310.0 0.0003592
20330.0 0.00035857
20350.0 0.00035815
20370.0 0.00035777
20390.0 0.00035741
20410.0 0.00035717
20430.0 0.00035706
20450.0 0.00035696
20470.0 0.00035696
20490.0 0.00035712
20510.0 0.00035737
20530.0 0.00035769
20550.0 0.00035817
20570.0 0.0003588
20590.0 0.00035952
20610.0 0.00036038
20630.0 0.00036139
20650.0 0.00036253
20670.0 0.00036379
20690.0 0.0003652
20710.0 0.00036673
20730.0 0.00036836
20750.0 0.00037009
20770.0 0.00037187
20790.0 0.00037371
20810.0 0.00037557
20830.0 0.00037741
20850.0 0.00037922
20870.0 0.00038097
20890.0 0.00038261
20910.0 0.00038413
20930.0 0.00038551
20950.0 0.00038672
20970.0 0.00038775
20990.0 0.00038862
21010.0 0.00038925
21030.0 0.00038968
21050.0 0.00038996
21070.0 0.00039004
21090.0 0.00038988
21110.0 0.00038965
21130.0 0.0003893
21150.0 0.00038877
21170.0 0.00038815
21190.0 0.00038755
21210.0 0.0003868
21230.0 0.00038596
21250.0 0.00038519
21270.0 0.00038443
21290.0 0.00038359
21310.0 0.00038277
21330.0 0.00038208
21350.0 0.00038131
21370.0 0.00038052
21390.0 0.0003798
21410.0 0.0003791
21430.0 0.00037825
21450.0 0.00037745
21470.0 0.0003767
21490.0 0.00037584
21510.0 0.0003749
21530.0 0.00037401
21550.0 0.00037306
21570.0 0.00037196
21590.0 0.00037086
21610.0 0.00036977
21630.0 0.00036856
21650.0 0.00036724
21670.0 0.00036605
21690.0 0.0003648
21710.0 0.00036345
21730.0 0.00036215
21750.0 0.00036092
21770.0 0.00035953
21790.0 0.00035817
21810.0 0.0003569
21830.0 0.00035562
21850.0 0.00035425
21870.0 0.00035296
21890.0 0.00035175
21910.0 0.00035044
21930.0 0.00034912
21950.0 0.00034788
21970.0 0.00034659
21990.0 0.00034516
22010.0 0.00034382
22030.0 0.00034247
22050.0 0.00034099
22070.0 0.00033946
22090.0 0.000338
22110.0 0.00033642
22130.0 0.00033471
22150.0 0.00033302
22170.0 0.00033132
22190.0 0.00032944
22210.0 0.00032753
22230.0 0.00032571
22250.0 0.0003238
22270.0 0.0003218
22290.0 0.00031987
22310.0 0.00031797
22330.0 0.00031592
22350.0 0.00031394
22370.0 0.00031204
22390.0 0.00031011
22410.0 0.00030812
22430.0 0.0003063
22450.0 0.00030452
22470.0 0.00030271
22490.0 0.00030097
22510.0 0.00029937
22530.0 0.00029774
22550.0 0.00029613
22570.0 0.00029469
22590.0 0.00029332
22610.0 0.00029194
22630.0 0.00029067
22650.0 0.00028953
22670.0 0.0002884
22690.0 0.00028731
22710.0 0.00028633
22730.0 0.00028541
22750.0 0.00028447
22770.0 0.00028363
22790.0 0.00028288
22810.0 0.00028214
22830.0 0.00028143
22850.0 0.00028083
22870.0 0.00028026
22890.0 0.00027972
22910.0 0.00027926
22930.0 0.00027889
22950.0 0.00027856
22970.0 0.0002783
22990.0 0.00027815
23010.0 0.00027809
23030.0 0.00027812
23050.0 0.00027825
23070.0 0.0002785
23090.0 0.00027887
23110.0 0.00027937
23130.0 0.00027998
23150.0 0.00028074
23170.0 0.00028164
23190.0 0.00028267
23210.0 0.00028379
23230.0 0.00028506
23250.0 0.00028645
23270.0 0.00028788
23290.0 0.00028941
23310.0 0.00029106
23330.0 0.00029266
23350.0 0.00029426
23370.0 0.00029589
23390.0 0.00029748
23410.0 0.00029895
23430.0 0.0003004
23450.0 0.00030122
23470.0 0.00030179
23490.0 0.00030223
23510.0 0.00030264
23530.0 0.00030297
23550.0 0.0003032
23570.0 0.00030346
23590.0 0.00030379
23610.0 0.00030415
23630.0 0.0003046
23650.0 0.00030527
23670.0 0.00030608
23690.0 0.00030699
23710.0 0.00030811
