#lamb flux
1010.0 1.0146e-06
1030.0 1.0667e-06
1050.0 1.1267e-06
1070.0 1.1943e-06
1090.0 1.2711e-06
1110.0 1.35e-06
1130.0 1.4294e-06
1150.0 1.5127e-06
1170.0 1.5988e-06
1190.0 1.6805e-06
1210.0 1.7635e-06
1230.0 1.8494e-06
1250.0 1.9337e-06
1270.0 2.0158e-06
1290.0 2.1027e-06
1310.0 2.1897e-06
1330.0 2.2734e-06
1350.0 2.3582e-06
1370.0 2.446e-06
1390.0 2.5318e-06
1410.0 2.6154e-06
1430.0 2.703e-06
1450.0 2.7908e-06
1470.0 2.876e-06
1490.0 2.9623e-06
1510.0 3.0536e-06
1530.0 3.1405e-06
1550.0 3.2265e-06
1570.0 3.3155e-06
1590.0 3.4049e-06
1610.0 3.4905e-06
1630.0 3.5789e-06
1650.0 3.6696e-06
1670.0 3.7575e-06
1690.0 3.8444e-06
1710.0 3.9346e-06
1730.0 4.0252e-06
1750.0 4.1105e-06
1770.0 4.1982e-06
1790.0 4.2875e-06
1810.0 4.3739e-06
1830.0 4.4586e-06
1850.0 4.5483e-06
1870.0 4.6354e-06
1890.0 4.7196e-06
1910.0 4.8052e-06
1930.0 4.8927e-06
1950.0 4.9762e-06
1970.0 5.0586e-06
1990.0 5.1441e-06
2010.0 5.2283e-06
2030.0 5.3096e-06
2050.0 5.3937e-06
2070.0 5.4803e-06
2090.0 5.5626e-06
2110.0 5.6453e-06
2130.0 5.7313e-06
2150.0 5.8167e-06
2170.0 5.8997e-06
2190.0 5.9872e-06
2210.0 6.0768e-06
2230.0 6.1649e-06
2250.0 6.2547e-06
2270.0 6.3504e-06
2290.0 6.4459e-06
2310.0 6.5408e-06
2330.0 6.6411e-06
2350.0 6.7452e-06
2370.0 6.8493e-06
2390.0 6.9579e-06
2410.0 7.0742e-06
2430.0 7.1914e-06
2450.0 7.3091e-06
2470.0 7.4295e-06
2490.0 7.5484e-06
2510.0 7.6597e-06
2530.0 7.774e-06
2550.0 7.9094e-06
2570.0 8.095e-06
2590.0 8.3717e-06
2610.0 8.8272e-06
2630.0 9.5164e-06
2650.0 1.0438e-05
2670.0 1.1627e-05
2690.0 1.308e-05
2710.0 1.4646e-05
2730.0 1.6237e-05
2750.0 1.7881e-05
2770.0 1.9455e-05
2790.0 2.0907e-05
2810.0 2.2313e-05
2830.0 2.3739e-05
2850.0 2.5098e-05
2870.0 2.6467e-05
2890.0 2.7911e-05
2910.0 2.9396e-05
2930.0 3.0872e-05
2950.0 3.2428e-05
2970.0 3.405e-05
2990.0 3.5664e-05
3010.0 7.0969e-05
3030.0 7.4218e-05
3050.0 7.7495e-05
3070.0 8.0601e-05
3090.0 8.3635e-05
3110.0 8.6323e-05
3130.0 8.8249e-05
3150.0 8.9052e-05
3170.0 8.8048e-05
3190.0 8.4831e-05
3210.0 7.9343e-05
3230.0 7.267e-05
3250.0 7.275e-05
3270.0 5.4074e-05
3290.0 6.0711e-05
3310.0 4.362e-05
3330.0 4.694e-05
3350.0 5.2873e-05
3370.0 5.9122e-05
3390.0 6.5521e-05
3410.0 7.1892e-05
3430.0 7.8391e-05
3450.0 8.4846e-05
3470.0 9.0968e-05
3490.0 9.5409e-05
3510.0 0.00010353
3530.0 0.00012101
3550.0 0.00013784
3570.0 0.00015448
3590.0 0.00018965
3610.0 0.00018431
3630.0 0.00019917
3650.0 0.00019559
3670.0 0.00021274
3690.0 0.00023233
3710.0 0.00024582
3730.0 0.00028362
3750.0 0.00029551
3770.0 0.00029933
3790.0 0.00028471
3810.0 0.00025104
3830.0 0.00023079
3850.0 0.00020293
3870.0 0.00022118
3890.0 0.00025166
3910.0 0.00029674
3930.0 0.00034429
3950.0 0.0003741
3970.0 0.00042562
3990.0 0.0004379
4010.0 0.00042575
4030.0 0.00043251
4050.0 0.00039692
4070.0 0.00037996
4090.0 0.00036989
4110.0 0.00035292
4130.0 0.0003808
4150.0 0.0003671
4170.0 0.0003666
4190.0 0.00035946
4210.0 0.00038534
4230.0 0.0003694
4250.0 0.00039832
4270.0 0.00039724
4290.0 0.00039906
4310.0 0.00042594
4330.0 0.0004536
4350.0 0.00045686
4370.0 0.00044746
4390.0 0.00042621
4410.0 0.00037719
4430.0 0.00031416
4450.0 0.0002899
4470.0 0.00029849
4490.0 0.00029828
4510.0 0.00033766
4530.0 0.00037039
4550.0 0.00043709
4570.0 0.00056601
4590.0 0.00069194
4610.0 0.00075714
4630.0 0.00086856
4650.0 0.00095003
4670.0 0.00095654
4690.0 0.00087258
4710.0 0.0008104
4730.0 0.00071978
4750.0 0.00059025
4770.0 0.00049857
4790.0 0.00044428
4810.0 0.00048485
4830.0 0.0005386
4850.0 0.00060484
4870.0 0.00057785
4890.0 0.00066132
4910.0 0.00069077
4930.0 0.00075356
4950.0 0.00088352
4970.0 0.00093946
4990.0 0.00098961
5010.0 0.00091562
5030.0 0.00076859
5050.0 0.00062681
5070.0 0.00049763
5090.0 0.00044816
5110.0 0.00044026
5130.0 0.00043291
5150.0 0.00045324
5170.0 0.00043824
5190.0 0.00046226
5210.0 0.00047226
5230.0 0.0005112
5250.0 0.00060296
5270.0 0.00065969
5290.0 0.00072137
5310.0 0.00081806
5330.0 0.00089177
5350.0 0.00091963
5370.0 0.00092772
5390.0 0.00091506
5410.0 0.0009049
5430.0 0.00092386
5450.0 0.0010426
5470.0 0.0012324
5490.0 0.0014199
5510.0 0.0015984
5530.0 0.0016526
5550.0 0.0016495
5570.0 0.0016196
5590.0 0.0015921
5610.0 0.0015871
5630.0 0.0016014
5650.0 0.0016227
5670.0 0.001615
5690.0 0.0015167
5710.0 0.0013973
5730.0 0.0012589
5750.0 0.0011879
5770.0 0.0011333
5790.0 0.0011668
5810.0 0.0012386
5830.0 0.0012928
5850.0 0.0012639
5870.0 0.0012115
5890.0 0.0011985
5910.0 0.0011738
5930.0 0.0011589
5950.0 0.0011403
5970.0 0.0011035
5990.0 0.000983
6010.0 0.00085761
6030.0 0.00078355
6050.0 0.00075799
6070.0 0.00074025
6090.0 0.00073942
6110.0 0.00075456
6130.0 0.00076157
6150.0 0.00080715
6170.0 0.00089332
6190.0 0.0009842
6210.0 0.0010328
6230.0 0.0010468
6250.0 0.00096279
6270.0 0.00085031
6290.0 0.0007308
6310.0 0.00063887
6330.0 0.00059039
6350.0 0.0005736
6370.0 0.00060226
6390.0 0.00067523
6410.0 0.00079345
6430.0 0.0009469
6450.0 0.0010755
6470.0 0.0011729
6490.0 0.0012564
6510.0 0.0012908
6530.0 0.0012815
6550.0 0.0012875
6570.0 0.0013012
6590.0 0.001285
6610.0 0.001298
6630.0 0.0012745
6650.0 0.0012341
6670.0 0.0011627
6690.0 0.001064
6710.0 0.0010213
6730.0 0.00096652
6750.0 0.00096614
6770.0 0.00099234
6790.0 0.0010268
6810.0 0.0010454
6830.0 0.0010256
6850.0 0.00098375
6870.0 0.00095296
6890.0 0.00090806
6910.0 0.0008652
6930.0 0.00088686
6950.0 0.00089817
6970.0 0.00093448
6990.0 0.00097109
7010.0 0.00096265
7030.0 0.00090595
7050.0 0.0008107
7070.0 0.00072081
7090.0 0.00063859
7110.0 0.00059441
7130.0 0.00057109
7150.0 0.00055592
7170.0 0.00057509
7190.0 0.00058776
7210.0 0.00061966
7230.0 0.00068757
7250.0 0.00073629
7270.0 0.00075387
7290.0 0.00074401
7310.0 0.00071006
7330.0 0.00066601
7350.0 0.0006431
7370.0 0.00064728
7390.0 0.00068117
7410.0 0.00075276
7430.0 0.00084021
7450.0 0.00094821
7470.0 0.0010301
7490.0 0.0010698
7510.0 0.0010264
7530.0 0.00093668
7550.0 0.00081483
7570.0 0.000691
7590.0 0.00063763
7610.0 0.00063817
7630.0 0.00067849
7650.0 0.00076647
7670.0 0.00085169
7690.0 0.00092803
7710.0 0.00099639
7730.0 0.0010498
7750.0 0.0010934
7770.0 0.0011108
7790.0 0.0011428
7810.0 0.0011623
7830.0 0.0011534
7850.0 0.0011527
7870.0 0.0011074
7890.0 0.0010688
7910.0 0.0010038
7930.0 0.00097365
7950.0 0.00093382
7970.0 0.00093704
7990.0 0.00092449
8010.0 0.000906
8030.0 0.00090383
8050.0 0.00092866
8070.0 0.00090726
8090.0 0.00090437
8110.0 0.00086849
8130.0 0.00086069
8150.0 0.00083072
8170.0 0.00080417
8190.0 0.00079035
8210.0 0.00079308
8230.0 0.00073204
8250.0 0.00067848
8270.0 0.00058985
8290.0 0.0004766
8310.0 0.00037719
8330.0 0.0002918
8350.0 0.00025334
8370.0 0.0002777
8390.0 0.00031081
8410.0 0.00034022
8430.0 0.00038546
8450.0 0.00040617
8470.0 0.00042392
8490.0 0.00047176
8510.0 0.00052012
8530.0 0.00060136
8550.0 0.0007057
8570.0 0.00079639
8590.0 0.00086729
8610.0 0.00093277
8630.0 0.00098668
8650.0 0.00099342
8670.0 0.00099396
8690.0 0.0010235
8710.0 0.0010301
8730.0 0.0010398
8750.0 0.0010081
8770.0 0.0010065
8790.0 0.00098847
8810.0 0.00091584
8830.0 0.00089448
8850.0 0.00084216
8870.0 0.00080445
8890.0 0.00075876
8910.0 0.00078221
8930.0 0.00072966
8950.0 0.0007042
8970.0 0.00069409
8990.0 0.00067365
9010.0 0.0006665
9030.0 0.00064718
9050.0 0.00064341
9070.0 0.00064183
9090.0 0.00064023
9110.0 0.00063875
9130.0 0.00063703
9150.0 0.00063522
9170.0 0.00063242
9190.0 0.00062824
9210.0 0.00063218
9230.0 0.00062888
9250.0 0.00062627
9270.0 0.0006238
9290.0 0.00062141
9310.0 0.00061907
9330.0 0.00061675
9350.0 0.00061442
9370.0 0.00061207
9390.0 0.00060968
9410.0 0.00060727
9430.0 0.00060479
9450.0 0.00060214
9470.0 0.00059951
9490.0 0.00059713
9510.0 0.00059464
9530.0 0.00059211
9550.0 0.00058953
9570.0 0.00058692
9590.0 0.00058429
9610.0 0.00058164
9630.0 0.00057897
9650.0 0.00057629
9670.0 0.00057361
9690.0 0.00057091
9710.0 0.0005682
9730.0 0.00056549
9750.0 0.00056278
9770.0 0.00056006
9790.0 0.00055735
9810.0 0.00055463
9830.0 0.00055192
9850.0 0.00054921
9870.0 0.0005465
9890.0 0.0005438
9910.0 0.0005411
9930.0 0.00053836
9950.0 0.00053279
9970.0 0.00053097
9990.0 0.00052899
10010.0 0.00052695
10030.0 0.00052467
10050.0 0.00052216
10070.0 0.00051942
10090.0 0.00051705
10110.0 0.00051449
10130.0 0.00051202
10150.0 0.00050954
10170.0 0.00050698
10190.0 0.00050431
10210.0 0.00050181
10230.0 0.00049936
10250.0 0.0004968
10270.0 0.00049429
10290.0 0.0004919
10310.0 0.00048942
10330.0 0.00048685
10350.0 0.00048445
10370.0 0.00048208
10390.0 0.0004796
10410.0 0.00047716
10430.0 0.00047488
10450.0 0.00047249
10470.0 0.00047006
10490.0 0.00046775
10510.0 0.00046547
10530.0 0.00046302
10550.0 0.00046066
10570.0 0.00045843
10590.0 0.00045611
10610.0 0.00045375
10630.0 0.00045153
10650.0 0.00044931
10670.0 0.00044694
10690.0 0.00044466
10710.0 0.00044247
10730.0 0.00044019
10750.0 0.00043781
10770.0 0.00043565
10790.0 0.00043345
10810.0 0.00043115
10830.0 0.00042891
10850.0 0.00042676
10870.0 0.00042438
10890.0 0.00042193
10910.0 0.00041948
10930.0 0.00041677
10950.0 0.00041357
10970.0 0.00041
10990.0 0.00040606
11010.0 0.0003756
11030.0 0.0003707
11050.0 0.00036565
11070.0 0.00036023
11090.0 0.00035422
11110.0 0.00034846
11130.0 0.00034277
11150.0 0.00033685
11170.0 0.00033096
11190.0 0.00032545
11210.0 0.00031984
11230.0 0.00031413
11250.0 0.00030873
11270.0 0.00030356
11290.0 0.00029828
11310.0 0.00029318
11330.0 0.00028864
11350.0 0.00028417
11370.0 0.00027983
11390.0 0.00027589
11410.0 0.00027224
11430.0 0.00026851
11450.0 0.00026503
11470.0 0.00026178
11490.0 0.00025848
11510.0 0.00025502
11530.0 0.00025169
11550.0 0.00024828
11570.0 0.00024452
11590.0 0.0002406
11610.0 0.00023663
11630.0 0.00023225
11650.0 0.00022748
11670.0 0.00022279
11690.0 0.00021795
11710.0 0.00021279
11730.0 0.00020763
11750.0 0.00020273
11770.0 0.00019765
11790.0 0.00019261
11810.0 0.00018793
11830.0 0.00018346
11850.0 0.00017895
11870.0 0.00017488
11890.0 0.00017122
11910.0 0.00016768
11930.0 0.00016434
11950.0 0.0001614
11970.0 0.00015864
11990.0 0.00015592
12010.0 0.00015348
12030.0 0.00015127
12050.0 0.00014909
12070.0 0.00014698
12090.0 0.00014518
12110.0 0.00014344
12130.0 0.00014176
12150.0 0.00014028
12170.0 0.000139
12190.0 0.00013779
12210.0 0.00013681
12230.0 0.00013613
12250.0 0.0001357
12270.0 0.00013555
12290.0 0.00013579
12310.0 0.00013639
12330.0 0.00013738
12350.0 0.00013878
12370.0 0.00014056
12390.0 0.00014273
12410.0 0.00014536
12430.0 0.00014822
12450.0 0.0001513
12470.0 0.00015466
12490.0 0.00015816
12510.0 0.0001616
12530.0 0.00016511
12550.0 0.00016861
12570.0 0.00017189
12590.0 0.00017496
12610.0 0.0001779
12630.0 0.00018055
12650.0 0.00018283
12670.0 0.00018485
12690.0 0.00018657
12710.0 0.00018795
12730.0 0.00018904
12750.0 0.00018981
12770.0 0.00019029
12790.0 0.0001905
12810.0 0.00019045
12830.0 0.0001901
12850.0 0.00018959
12870.0 0.00018888
12890.0 0.00018793
12910.0 0.00018683
12930.0 0.00018563
12950.0 0.00018422
12970.0 0.00018263
12990.0 0.00018102
13010.0 0.0001793
13030.0 0.00017738
13050.0 0.00017539
13070.0 0.0001734
13090.0 0.00017122
13110.0 0.00016893
13130.0 0.0001667
13150.0 0.00016444
13170.0 0.00016206
13190.0 0.00015984
13210.0 0.00015781
13230.0 0.00015587
13250.0 0.00015414
13270.0 0.00015274
13290.0 0.00015161
13310.0 0.00015076
13330.0 0.00015029
13350.0 0.00015015
13370.0 0.0001503
13390.0 0.00015072
13410.0 0.00015131
13430.0 0.00015201
13450.0 0.00015274
13470.0 0.0001534
13490.0 0.0001539
13510.0 0.00015417
13530.0 0.00015414
13550.0 0.00015378
13570.0 0.00015306
13590.0 0.00015194
13610.0 0.00015052
13630.0 0.00014886
13650.0 0.00014688
13670.0 0.00014471
13690.0 0.00014251
13710.0 0.00014021
13730.0 0.00013779
13750.0 0.00013556
13770.0 0.00013342
13790.0 0.00013134
13810.0 0.00012939
13830.0 0.00012766
13850.0 0.00012601
13870.0 0.00012447
13890.0 0.00012311
13910.0 0.00012186
13930.0 0.00012067
13950.0 0.00011958
13970.0 0.00011862
13990.0 0.0001177
14010.0 0.00011683
14030.0 0.00011605
14050.0 0.00011533
14070.0 0.00011463
14090.0 0.00011401
14110.0 0.00011344
14130.0 0.00011292
14150.0 0.00011243
14170.0 0.000112
14190.0 0.00011161
14210.0 0.00011125
14230.0 0.00011094
14250.0 0.00011067
14270.0 0.00011045
14290.0 0.00011028
14310.0 0.00011017
14330.0 0.0001101
14350.0 0.00011009
14370.0 0.00011012
14390.0 0.00011017
14410.0 0.00011027
14430.0 0.00011038
14450.0 0.00011047
14470.0 0.00011056
14490.0 0.00011063
14510.0 0.00011066
14530.0 0.00011064
14550.0 0.00011059
14570.0 0.00011051
14590.0 0.0001104
14610.0 0.00011029
14630.0 0.00011021
14650.0 0.00011016
14670.0 0.00011016
14690.0 0.00011026
14710.0 0.00011049
14730.0 0.00011081
14750.0 0.00011129
14770.0 0.00011197
14790.0 0.0001128
14810.0 0.00011377
14830.0 0.00011503
14850.0 0.00011645
14870.0 0.00011797
14890.0 0.00011964
14910.0 0.00012146
14930.0 0.00012319
14950.0 0.00012479
14970.0 0.00012628
14990.0 0.00012746
15010.0 0.00012826
15030.0 0.00012874
15050.0 0.00012891
15070.0 0.00012876
15090.0 0.00012841
15110.0 0.00012793
15130.0 0.00012735
15150.0 0.00012674
15170.0 0.00012609
15190.0 0.00012543
15210.0 0.00012477
15230.0 0.00012411
15250.0 0.00012344
15270.0 0.00012277
15290.0 0.00012211
15310.0 0.00012144
15330.0 0.00012077
15350.0 0.00012011
15370.0 0.00011945
15390.0 0.00011878
15410.0 0.00011811
15430.0 0.00011745
15450.0 0.00011679
15470.0 0.00011613
15490.0 0.00011547
15510.0 0.00011481
15530.0 0.00011415
15550.0 0.0001135
15570.0 0.00011285
15590.0 0.00011219
15610.0 0.00011154
15630.0 0.00011089
15650.0 0.00011025
15670.0 0.0001096
15690.0 0.00010896
15710.0 0.00010832
15730.0 0.00010768
15750.0 0.00010704
15770.0 0.00010641
15790.0 0.00010579
15810.0 0.00010515
15830.0 0.00010453
15850.0 0.00010391
15870.0 0.00010329
15890.0 0.00010268
15910.0 0.00010207
15930.0 0.00010146
15950.0 0.00010085
15970.0 0.00010025
15990.0 9.9652e-05
16010.0 9.9055e-05
16030.0 9.846e-05
16050.0 9.7874e-05
16070.0 9.729e-05
16090.0 9.6706e-05
16110.0 9.6129e-05
16130.0 9.5557e-05
16150.0 9.4982e-05
16170.0 9.4414e-05
16190.0 9.3853e-05
16210.0 9.3293e-05
16230.0 9.2734e-05
16250.0 9.2184e-05
16270.0 9.1638e-05
16290.0 9.1092e-05
16310.0 9.055e-05
16330.0 9.0016e-05
16350.0 8.9483e-05
16370.0 8.895e-05
16390.0 8.8427e-05
16410.0 8.7908e-05
16430.0 8.7389e-05
16450.0 8.6876e-05
16470.0 8.637e-05
16490.0 8.5864e-05
16510.0 8.5361e-05
16530.0 8.4865e-05
16550.0 8.4374e-05
16570.0 8.3882e-05
16590.0 8.3396e-05
16610.0 8.2918e-05
16630.0 8.2441e-05
16650.0 8.1967e-05
16670.0 8.15e-05
16690.0 8.1037e-05
16710.0 8.0572e-05
16730.0 8.0115e-05
16750.0 7.9665e-05
16770.0 7.9215e-05
16790.0 7.8768e-05
16810.0 7.8329e-05
16830.0 7.7893e-05
16850.0 7.7458e-05
16870.0 7.7029e-05
16890.0 7.6606e-05
16910.0 7.6183e-05
16930.0 7.5763e-05
16950.0 7.5352e-05
16970.0 7.4943e-05
16990.0 7.4535e-05
17010.0 7.4133e-05
17030.0 7.3737e-05
17050.0 7.3341e-05
17070.0 7.2949e-05
17090.0 7.2564e-05
17110.0 7.2181e-05
17130.0 7.1798e-05
17150.0 7.1422e-05
17170.0 7.1052e-05
17190.0 7.0683e-05
17210.0 7.0317e-05
17230.0 6.9958e-05
17250.0 6.96e-05
17270.0 6.9243e-05
17290.0 6.8892e-05
17310.0 6.8546e-05
17330.0 6.8201e-05
17350.0 6.7859e-05
17370.0 6.7524e-05
17390.0 6.7191e-05
17410.0 6.6859e-05
17430.0 6.6533e-05
17450.0 6.6212e-05
17470.0 6.5888e-05
17490.0 6.557e-05
17510.0 6.5258e-05
17530.0 6.4948e-05
17550.0 6.4639e-05
17570.0 6.4336e-05
17590.0 6.4036e-05
17610.0 6.3737e-05
17630.0 6.3441e-05
17650.0 6.3152e-05
17670.0 6.2863e-05
17690.0 6.2573e-05
17710.0 6.2292e-05
17730.0 6.2014e-05
17750.0 6.1736e-05
17770.0 6.1461e-05
17790.0 6.1193e-05
17810.0 6.0924e-05
17830.0 6.0657e-05
17850.0 6.0395e-05
17870.0 6.0136e-05
17890.0 5.9877e-05
17910.0 5.9622e-05
17930.0 5.9373e-05
17950.0 5.9123e-05
17970.0 5.8876e-05
17990.0 5.8634e-05
18010.0 5.8394e-05
18030.0 5.8152e-05
18050.0 5.7916e-05
18070.0 5.7684e-05
18090.0 5.7453e-05
18110.0 5.7222e-05
18130.0 5.6998e-05
18150.0 5.6776e-05
18170.0 5.6553e-05
18190.0 5.6334e-05
18210.0 5.6119e-05
18230.0 5.5903e-05
18250.0 5.5689e-05
18270.0 5.5481e-05
18290.0 5.5274e-05
18310.0 5.5068e-05
18330.0 5.4865e-05
18350.0 5.4666e-05
18370.0 5.4466e-05
18390.0 5.4268e-05
18410.0 5.4075e-05
18430.0 5.3883e-05
18450.0 5.369e-05
18470.0 5.3502e-05
18490.0 5.3318e-05
18510.0 5.3132e-05
18530.0 5.2949e-05
18550.0 5.2771e-05
18570.0 5.2592e-05
18590.0 5.2413e-05
18610.0 5.2239e-05
18630.0 5.2067e-05
18650.0 5.1895e-05
18670.0 5.1724e-05
18690.0 5.1559e-05
18710.0 5.1393e-05
18730.0 5.1228e-05
18750.0 5.1066e-05
18770.0 5.0907e-05
18790.0 5.0745e-05
18810.0 5.0587e-05
18830.0 5.0433e-05
18850.0 5.0279e-05
18870.0 5.0125e-05
18890.0 4.9975e-05
18910.0 4.9828e-05
18930.0 4.9678e-05
18950.0 4.9532e-05
18970.0 4.9388e-05
18990.0 4.9245e-05
19010.0 4.91e-05
19030.0 4.8961e-05
19050.0 4.8823e-05
19070.0 4.8684e-05
19090.0 4.8548e-05
19110.0 4.8416e-05
19130.0 4.8281e-05
19150.0 4.8147e-05
19170.0 4.8018e-05
19190.0 4.7889e-05
19210.0 4.7759e-05
19230.0 4.7631e-05
19250.0 4.7508e-05
19270.0 4.7383e-05
19290.0 4.7259e-05
19310.0 4.7138e-05
19330.0 4.7018e-05
19350.0 4.6895e-05
19370.0 4.6777e-05
19390.0 4.6661e-05
19410.0 4.6544e-05
19430.0 4.6427e-05
19450.0 4.6315e-05
19470.0 4.6203e-05
19490.0 4.6089e-05
19510.0 4.5978e-05
19530.0 4.587e-05
19550.0 4.576e-05
19570.0 4.565e-05
19590.0 4.5545e-05
19610.0 4.5439e-05
19630.0 4.5333e-05
19650.0 4.5229e-05
19670.0 4.5128e-05
19690.0 4.5024e-05
19710.0 4.4922e-05
19730.0 4.4823e-05
19750.0 4.4723e-05
19770.0 4.4622e-05
19790.0 4.4525e-05
19810.0 4.4429e-05
19830.0 4.4331e-05
19850.0 4.4232e-05
19870.0 4.4133e-05
19890.0 4.4025e-05
19910.0 4.39e-05
19930.0 4.3756e-05
19950.0 4.3579e-05
19970.0 4.3344e-05
19990.0 4.3044e-05
20010.0 4.2687e-05
20030.0 4.2242e-05
20050.0 4.1713e-05
20070.0 4.1134e-05
20090.0 4.051e-05
20110.0 3.9806e-05
20130.0 3.9097e-05
20150.0 3.8396e-05
20170.0 3.7674e-05
20190.0 3.6943e-05
20210.0 3.6253e-05
20230.0 3.558e-05
20250.0 3.4902e-05
20270.0 3.4268e-05
20290.0 3.3683e-05
20310.0 3.312e-05
20330.0 3.2584e-05
20350.0 3.213e-05
20370.0 3.1716e-05
20390.0 3.1343e-05
20410.0 3.103e-05
20430.0 3.0778e-05
20450.0 3.0566e-05
20470.0 3.041e-05
20490.0 3.031e-05
20510.0 3.0256e-05
20530.0 3.0248e-05
20550.0 3.0284e-05
20570.0 3.0353e-05
20590.0 3.0459e-05
20610.0 3.0594e-05
20630.0 3.0747e-05
20650.0 3.0918e-05
20670.0 3.1112e-05
20690.0 3.1304e-05
20710.0 3.1494e-05
20730.0 3.1686e-05
20750.0 3.187e-05
20770.0 3.2033e-05
20790.0 3.2182e-05
20810.0 3.2315e-05
20830.0 3.242e-05
20850.0 3.2498e-05
20870.0 3.2551e-05
20890.0 3.2574e-05
20910.0 3.2566e-05
20930.0 3.253e-05
20950.0 3.2464e-05
20970.0 3.2372e-05
20990.0 3.2258e-05
21010.0 3.2113e-05
21030.0 3.1948e-05
21050.0 3.177e-05
21070.0 3.1574e-05
21090.0 3.1357e-05
21110.0 3.1141e-05
21130.0 3.0922e-05
21150.0 3.0692e-05
21170.0 3.0464e-05
21190.0 3.0249e-05
21210.0 3.0032e-05
21230.0 2.9821e-05
21250.0 2.9631e-05
21270.0 2.9457e-05
21290.0 2.9295e-05
21310.0 2.9154e-05
21330.0 2.9041e-05
21350.0 2.8945e-05
21370.0 2.8873e-05
21390.0 2.8827e-05
21410.0 2.8805e-05
21430.0 2.8807e-05
21450.0 2.8834e-05
21470.0 2.8883e-05
21490.0 2.8954e-05
21510.0 2.9049e-05
21530.0 2.9158e-05
21550.0 2.9285e-05
21570.0 2.9435e-05
21590.0 2.9596e-05
21610.0 2.9766e-05
21630.0 2.9953e-05
21650.0 3.0157e-05
21670.0 3.0357e-05
21690.0 3.0568e-05
21710.0 3.0792e-05
21730.0 3.1017e-05
21750.0 3.1239e-05
21770.0 3.1478e-05
21790.0 3.1718e-05
21810.0 3.1952e-05
21830.0 3.2188e-05
21850.0 3.2431e-05
21870.0 3.2667e-05
21890.0 3.2892e-05
21910.0 3.3123e-05
21930.0 3.3349e-05
21950.0 3.3559e-05
21970.0 3.3765e-05
21990.0 3.397e-05
22010.0 3.4153e-05
22030.0 3.432e-05
22050.0 3.4476e-05
22070.0 3.4614e-05
22090.0 3.4727e-05
22110.0 3.4821e-05
22130.0 3.4893e-05
22150.0 3.4937e-05
22170.0 3.4954e-05
22190.0 3.4942e-05
22210.0 3.4898e-05
22230.0 3.4827e-05
22250.0 3.4723e-05
22270.0 3.4584e-05
22290.0 3.442e-05
22310.0 3.4228e-05
22330.0 3.3996e-05
22350.0 3.3737e-05
22370.0 3.3461e-05
22390.0 3.3154e-05
22410.0 3.2812e-05
22430.0 3.2466e-05
22450.0 3.2106e-05
22470.0 3.1716e-05
22490.0 3.1318e-05
22510.0 3.0925e-05
22530.0 3.0509e-05
22550.0 3.0081e-05
22570.0 2.9671e-05
22590.0 2.9264e-05
22610.0 2.8848e-05
22630.0 2.8445e-05
22650.0 2.8069e-05
22670.0 2.769e-05
22690.0 2.7321e-05
