#lamb flux
1010.0 6.8977e-05
1030.0 8.6894e-05
1050.0 0.00010716
1070.0 0.00012965
1090.0 0.00015489
1110.0 0.00018041
1130.0 0.00020581
1150.0 0.00023226
1170.0 0.00025938
1190.0 0.00028479
1210.0 0.0003102
1230.0 0.00033607
1250.0 0.00036074
1270.0 0.00038372
1290.0 0.00040699
1310.0 0.00042866
1330.0 0.00044734
1350.0 0.00046411
1370.0 0.00047913
1390.0 0.00049084
1410.0 0.00049909
1430.0 0.00050561
1450.0 0.00050936
1470.0 0.00050983
1490.0 0.00050827
1510.0 0.00050473
1530.0 0.00049752
1550.0 0.00048925
1570.0 0.00048128
1590.0 0.00047337
1610.0 0.00046529
1630.0 0.00045872
1650.0 0.00045395
1670.0 0.00045056
1690.0 0.00044929
1710.0 0.00045111
1730.0 0.00045571
1750.0 0.00046048
1770.0 0.0004687
1790.0 0.00048055
1810.0 0.00049566
1830.0 0.00051447
1850.0 0.00053825
1870.0 0.00056612
1890.0 0.00059819
1910.0 0.00063536
1930.0 0.00067795
1950.0 0.00072512
1970.0 0.00077742
1990.0 0.00083576
2010.0 0.00089935
2030.0 0.00096777
2050.0 0.0010421
2070.0 0.0011223
2090.0 0.0012063
2110.0 0.0012949
2130.0 0.0013886
2150.0 0.0014857
2170.0 0.001585
2190.0 0.0016881
2210.0 0.0017935
2230.0 0.0018992
2250.0 0.0020055
2270.0 0.0021132
2290.0 0.0022194
2310.0 0.0023228
2330.0 0.0024253
2350.0 0.0025254
2370.0 0.0026206
2390.0 0.0027119
2410.0 0.0027994
2430.0 0.0028792
2450.0 0.0029503
2470.0 0.0030128
2490.0 0.0030651
2510.0 0.0031069
2530.0 0.0031432
2550.0 0.0031814
2570.0 0.003233
2590.0 0.0033118
2610.0 0.0034468
2630.0 0.0036597
2650.0 0.003957
2670.0 0.0043639
2690.0 0.0049007
2710.0 0.0055284
2730.0 0.0062198
2750.0 0.0069935
2770.0 0.0077733
2790.0 0.0084924
2810.0 0.0091496
2830.0 0.0097349
2850.0 0.010179
2870.0 0.010524
2890.0 0.010802
2910.0 0.011019
2930.0 0.011188
2950.0 0.01134
2970.0 0.011481
2990.0 0.011606
3010.0 0.011724
3030.0 0.011843
3050.0 0.011956
3070.0 0.012054
3090.0 0.012149
3110.0 0.012235
3130.0 0.012298
3150.0 0.012503
3170.0 0.012665
3190.0 0.012828
3210.0 0.012989
3230.0 0.013119
3250.0 0.012993
3270.0 0.012598
3290.0 0.012528
3310.0 0.013214
3330.0 0.014487
3350.0 0.015958
3370.0 0.017552
3390.0 0.019208
3410.0 0.020765
3430.0 0.022217
3450.0 0.023363
3470.0 0.023893
3490.0 0.02438
3510.0 0.024596
3530.0 0.023031
3550.0 0.021919
3570.0 0.019366
3590.0 0.021066
3610.0 0.022562
3630.0 0.024157
3650.0 0.023423
3670.0 0.021042
3690.0 0.0194
3710.0 0.019817
3730.0 0.021817
3750.0 0.023105
3770.0 0.023963
3790.0 0.024803
3810.0 0.023729
3830.0 0.021522
3850.0 0.019621
3870.0 0.018491
3890.0 0.019468
3910.0 0.020465
3930.0 0.020747
3950.0 0.021474
3970.0 0.02258
3990.0 0.023463
4010.0 0.023953
4030.0 0.023297
4050.0 0.022277
4070.0 0.022117
4090.0 0.022451
4110.0 0.023028
4130.0 0.022471
4150.0 0.021865
4170.0 0.021653
4190.0 0.022055
4210.0 0.02135
4230.0 0.019751
4250.0 0.017742
4270.0 0.015879
4290.0 0.014414
4310.0 0.01373
4330.0 0.013833
4350.0 0.015163
4370.0 0.016033
4390.0 0.017027
4410.0 0.018068
4430.0 0.01856
4450.0 0.01789
4470.0 0.017014
4490.0 0.016829
4510.0 0.017036
4530.0 0.017255
4550.0 0.017228
4570.0 0.017165
4590.0 0.01768
4610.0 0.018144
4630.0 0.018512
4650.0 0.018758
4670.0 0.018711
4690.0 0.017781
4710.0 0.016437
4730.0 0.015801
4750.0 0.015572
4770.0 0.015022
4790.0 0.014677
4810.0 0.014407
4830.0 0.012009
4850.0 0.014537
4870.0 0.012533
4890.0 0.013379
4910.0 0.014331
4930.0 0.013494
4950.0 0.011456
4970.0 0.011305
4990.0 0.010656
5010.0 0.010039
5030.0 0.0097115
5050.0 0.010956
5070.0 0.011076
5090.0 0.012034
5110.0 0.012338
5130.0 0.012344
5150.0 0.012689
5170.0 0.012343
5190.0 0.012103
5210.0 0.012498
5230.0 0.012296
5250.0 0.012312
5270.0 0.012131
5290.0 0.0119
5310.0 0.011128
5330.0 0.010621
5350.0 0.0099469
5370.0 0.0098621
5390.0 0.010327
5410.0 0.0098239
5430.0 0.010343
5450.0 0.010128
5470.0 0.010171
5490.0 0.01018
5510.0 0.0095941
5530.0 0.0096924
5550.0 0.0094147
5570.0 0.0095395
5590.0 0.0096553
5610.0 0.0098322
5630.0 0.0097821
5650.0 0.0098395
5670.0 0.0093112
5690.0 0.0094241
5710.0 0.0089168
5730.0 0.0090838
5750.0 0.0088304
5770.0 0.008368
5790.0 0.0085308
5810.0 0.0084874
5830.0 0.0087193
5850.0 0.0088774
5870.0 0.0088614
5890.0 0.0088159
5910.0 0.0089867
5930.0 0.008829
5950.0 0.0089955
5970.0 0.0087124
5990.0 0.0088295
6010.0 0.0086728
6030.0 0.0085944
6050.0 0.0086665
6070.0 0.0083098
6090.0 0.008245
6110.0 0.0083986
6130.0 0.0083195
6150.0 0.0081546
6170.0 0.0079219
6190.0 0.007475
6210.0 0.0070735
6230.0 0.0070748
6250.0 0.0071567
6270.0 0.0071114
6290.0 0.0073983
6310.0 0.0078437
6330.0 0.0078971
6350.0 0.0077801
6370.0 0.0078356
6390.0 0.0078165
6410.0 0.0076608
6430.0 0.0073897
6450.0 0.0074402
6470.0 0.0074572
6490.0 0.0073393
6510.0 0.0071656
6530.0 0.0070222
6550.0 0.0069555
6570.0 0.0067964
6590.0 0.0068212
6610.0 0.0067852
6630.0 0.0065616
6650.0 0.0062494
6670.0 0.0061348
6690.0 0.0062173
6710.0 0.0061335
6730.0 0.0059489
6750.0 0.0058223
6770.0 0.0057013
6790.0 0.0056941
6810.0 0.0056713
6830.0 0.0056117
6850.0 0.0053307
6870.0 0.0053316
6890.0 0.0053165
6910.0 0.0051255
6930.0 0.0051484
6950.0 0.0050115
6970.0 0.0049341
6990.0 0.0048632
7010.0 0.0050165
7030.0 0.0049834
7050.0 0.0048764
7070.0 0.0047746
7090.0 0.0047997
7110.0 0.0047125
7130.0 0.0047016
7150.0 0.0047534
7170.0 0.0046977
7190.0 0.0046636
7210.0 0.0046836
7230.0 0.0048566
7250.0 0.0046843
7270.0 0.0048313
7290.0 0.0046569
7310.0 0.0044917
7330.0 0.0042482
7350.0 0.0041572
7370.0 0.0041813
7390.0 0.0041013
7410.0 0.0039356
7430.0 0.0037301
7450.0 0.003801
7470.0 0.0038224
7490.0 0.0040277
7510.0 0.0041586
7530.0 0.0040042
7550.0 0.003888
7570.0 0.0033506
7590.0 0.0035649
7610.0 0.0033932
7630.0 0.0035076
7650.0 0.0034617
7670.0 0.0034879
7690.0 0.0032344
7710.0 0.0035783
7730.0 0.0036151
7750.0 0.0039614
7770.0 0.0040673
7790.0 0.0041764
7810.0 0.0043566
7830.0 0.0043664
7850.0 0.004618
7870.0 0.0044267
7890.0 0.0044596
7910.0 0.0043634
7930.0 0.0042008
7950.0 0.0040947
7970.0 0.0040345
7990.0 0.0039866
8010.0 0.0038522
8030.0 0.0038227
8050.0 0.0037426
8070.0 0.0036945
8090.0 0.003503
8110.0 0.0035251
8130.0 0.0036501
8150.0 0.003751
8170.0 0.003745
8190.0 0.0038362
8210.0 0.0037818
8230.0 0.0036451
8250.0 0.0036205
8270.0 0.0035523
8290.0 0.0034827
8310.0 0.0033187
8330.0 0.0033382
8350.0 0.0033535
8370.0 0.0033724
8390.0 0.0034044
8410.0 0.003361
8430.0 0.0033574
8450.0 0.0033734
8470.0 0.0034426
8490.0 0.0034884
8510.0 0.0033939
8530.0 0.0032599
8550.0 0.0032717
8570.0 0.0032406
8590.0 0.0031463
8610.0 0.0032079
8630.0 0.0031705
8650.0 0.0031226
8670.0 0.0030994
8690.0 0.0030787
8710.0 0.0029381
8730.0 0.0029789
8750.0 0.002889
8770.0 0.0028923
8790.0 0.0028185
8810.0 0.002768
8830.0 0.0027844
8850.0 0.0027221
8870.0 0.0025949
8890.0 0.0025426
8910.0 0.0024231
8930.0 0.0022611
8950.0 0.0022436
8970.0 0.0021499
8990.0 0.0021257
9010.0 0.0020848
9030.0 0.0020668
9050.0 0.0020528
9070.0 0.0020389
9090.0 0.0020249
9110.0 0.0020106
9130.0 0.0019963
9150.0 0.0019823
9170.0 0.0019681
9190.0 0.0019538
9210.0 0.0019395
9230.0 0.0019251
9250.0 0.0019106
9270.0 0.0018962
9290.0 0.0018817
9310.0 0.0018673
9330.0 0.0018529
9350.0 0.0018386
9370.0 0.0018242
9390.0 0.0018099
9410.0 0.0017956
9430.0 0.0017813
9450.0 0.001767
9470.0 0.0017541
9490.0 0.0017405
9510.0 0.0017257
9530.0 0.0017111
9550.0 0.0016968
9570.0 0.0016828
9590.0 0.0016688
9610.0 0.001655
9630.0 0.0016414
9650.0 0.0016278
9670.0 0.0016143
9690.0 0.0016009
9710.0 0.0015876
9730.0 0.0015744
9750.0 0.0015613
9770.0 0.0015484
9790.0 0.0015355
9810.0 0.0015227
9830.0 0.00151
9850.0 0.001496
9870.0 0.0014827
9890.0 0.0014714
9910.0 0.00146
9930.0 0.001446
9950.0 0.0014341
9970.0 0.0014233
9990.0 0.0014123
10010.0 0.0014013
10030.0 0.0013902
10050.0 0.001379
10070.0 0.001368
10090.0 0.0013572
10110.0 0.0013462
10130.0 0.0013354
10150.0 0.0013249
10170.0 0.0013145
10190.0 0.0013041
10210.0 0.001294
10230.0 0.0012841
10250.0 0.0012742
10270.0 0.0012644
10290.0 0.0012549
10310.0 0.0012454
10330.0 0.001236
10350.0 0.0012268
10370.0 0.0012179
10390.0 0.0012089
10410.0 0.0011997
10430.0 0.0011908
10450.0 0.0011826
10470.0 0.0011743
10490.0 0.0011662
10510.0 0.0011583
10530.0 0.0011502
10550.0 0.0011423
10570.0 0.0011347
10590.0 0.0011271
10610.0 0.0011195
10630.0 0.0011122
10650.0 0.0011051
10670.0 0.0010978
10690.0 0.0010908
10710.0 0.0010841
10730.0 0.0010773
10750.0 0.0010704
10770.0 0.001064
10790.0 0.0010577
10810.0 0.0010513
10830.0 0.0010451
10850.0 0.0010392
10870.0 0.0010331
10890.0 0.0010271
10910.0 0.0010215
10930.0 0.0010159
10950.0 0.0010103
10970.0 0.001005
10990.0 0.00099998
11010.0 0.00094772
11030.0 0.00094211
11050.0 0.00093686
11070.0 0.00093169
11090.0 0.00092634
11110.0 0.00092125
11130.0 0.00091623
11150.0 0.000911
11170.0 0.00090571
11190.0 0.00090063
11210.0 0.00089541
11230.0 0.00089005
11250.0 0.00088493
11270.0 0.00088001
11290.0 0.00087502
11310.0 0.00087023
11330.0 0.000866
11350.0 0.00086191
11370.0 0.00085799
11390.0 0.00085453
11410.0 0.0008514
11430.0 0.00084827
11450.0 0.00084544
11470.0 0.0008429
11490.0 0.0008404
11510.0 0.00083783
11530.0 0.00083548
11550.0 0.00083316
11570.0 0.00083065
11590.0 0.00082813
11610.0 0.00082572
11630.0 0.00082307
11650.0 0.00082024
11670.0 0.0008176
11690.0 0.00081493
11710.0 0.00081206
11730.0 0.00080923
11750.0 0.00080663
11770.0 0.00080384
11790.0 0.00080101
11810.0 0.00079842
11830.0 0.00079591
11850.0 0.0007932
11870.0 0.00079079
11890.0 0.00078872
11910.0 0.00078668
11930.0 0.00078484
11950.0 0.00078348
11970.0 0.0007824
11990.0 0.00078151
12010.0 0.00078116
12030.0 0.00078133
12050.0 0.00078188
12070.0 0.00078287
12090.0 0.0007845
12110.0 0.00078658
12130.0 0.00078908
12150.0 0.00079204
12170.0 0.0007954
12190.0 0.00079906
12210.0 0.000803
12230.0 0.00080714
12250.0 0.00081138
12270.0 0.00081567
12290.0 0.00081992
12310.0 0.00082407
12330.0 0.00082804
12350.0 0.00083177
12370.0 0.00083525
12390.0 0.00083841
12410.0 0.00084111
12430.0 0.00084349
12450.0 0.00084551
12470.0 0.00084701
12490.0 0.00084804
12510.0 0.00084878
12530.0 0.00084896
12550.0 0.00084855
12570.0 0.00084783
12590.0 0.00084673
12610.0 0.00084495
12630.0 0.00084272
12650.0 0.00084048
12670.0 0.0008377
12690.0 0.00083445
12710.0 0.00083117
12730.0 0.00082775
12750.0 0.0008237
12770.0 0.0008197
12790.0 0.00081586
12810.0 0.0008118
12830.0 0.00080755
12850.0 0.00080375
12870.0 0.00080011
12890.0 0.00079636
12910.0 0.00079294
12930.0 0.00079003
12950.0 0.00078716
12970.0 0.00078454
12990.0 0.00078262
13010.0 0.00078108
13030.0 0.0007798
13050.0 0.00077902
13070.0 0.00077879
13090.0 0.00077879
13110.0 0.00077912
13130.0 0.00077986
13150.0 0.00078083
13170.0 0.00078191
13190.0 0.00078322
13210.0 0.00078468
13230.0 0.00078613
13250.0 0.00078757
13270.0 0.00078902
13290.0 0.00079037
13310.0 0.00079151
13330.0 0.00079253
13350.0 0.00079336
13370.0 0.00079386
13390.0 0.00079399
13410.0 0.00079391
13430.0 0.00079342
13450.0 0.00079241
13470.0 0.00079104
13490.0 0.00078936
13510.0 0.00078699
13530.0 0.00078423
13550.0 0.00078126
13570.0 0.00077786
13590.0 0.00077394
13610.0 0.00076988
13630.0 0.00076569
13650.0 0.00076096
13670.0 0.000756
13690.0 0.00075102
13710.0 0.0007457
13730.0 0.00073981
13750.0 0.00073411
13770.0 0.00072827
13790.0 0.00072202
13810.0 0.00071565
13830.0 0.00070947
13850.0 0.00070296
13870.0 0.00069626
13890.0 0.00068978
13910.0 0.00068338
13930.0 0.00067676
13950.0 0.00067026
13970.0 0.00066421
13990.0 0.00065809
14010.0 0.000652
14030.0 0.00064626
14050.0 0.0006407
14070.0 0.00063498
14090.0 0.00062954
14110.0 0.00062435
14130.0 0.00061912
14150.0 0.00061385
14170.0 0.00060886
14190.0 0.0006039
14210.0 0.00059881
14230.0 0.0005938
14250.0 0.00058893
14270.0 0.00058391
14290.0 0.00057886
14310.0 0.00057404
14330.0 0.00056925
14350.0 0.00056443
14370.0 0.00055976
14390.0 0.00055531
14410.0 0.00055082
14430.0 0.00054643
14450.0 0.00054225
14470.0 0.00053815
14490.0 0.000534
14510.0 0.00053001
14530.0 0.00052612
14550.0 0.00052216
14570.0 0.00051818
14590.0 0.00051426
14610.0 0.00051026
14630.0 0.00050613
14650.0 0.000502
14670.0 0.00049785
14690.0 0.00049356
14710.0 0.00048916
14730.0 0.00048484
14750.0 0.00048041
14770.0 0.00047585
14790.0 0.00047129
14810.0 0.00046673
14830.0 0.00046196
14850.0 0.00045716
14870.0 0.00045242
14890.0 0.00044759
14910.0 0.00044269
14930.0 0.0004379
14950.0 0.00043323
14970.0 0.00042858
14990.0 0.00042412
15010.0 0.00041991
15030.0 0.00041585
15050.0 0.00041191
15070.0 0.00040819
15090.0 0.00040457
15110.0 0.00040099
15130.0 0.00039744
15150.0 0.00039396
15170.0 0.00039044
15190.0 0.00038691
15210.0 0.00038341
15230.0 0.00037991
15250.0 0.00037637
15270.0 0.00037284
15290.0 0.00036936
15310.0 0.00036584
15330.0 0.00036231
15350.0 0.00035882
15370.0 0.00035533
15390.0 0.0003518
15410.0 0.0003483
15430.0 0.00034483
15450.0 0.00034135
15470.0 0.00033786
15490.0 0.00033442
15510.0 0.00033098
15530.0 0.00032753
15550.0 0.0003241
15570.0 0.00032071
15590.0 0.0003173
15610.0 0.0003139
15630.0 0.00031054
15650.0 0.0003072
15670.0 0.00030385
15690.0 0.00030054
15710.0 0.00029726
15730.0 0.00029397
15750.0 0.0002907
15770.0 0.00028748
15790.0 0.00028427
15810.0 0.00028104
15830.0 0.00027786
15850.0 0.00027473
15870.0 0.00027159
15890.0 0.00026848
15910.0 0.00026541
15930.0 0.00026235
15950.0 0.0002593
15970.0 0.00025629
15990.0 0.00025331
16010.0 0.00025034
16030.0 0.00024739
16050.0 0.0002445
16070.0 0.00024162
16090.0 0.00023875
16110.0 0.00023593
16130.0 0.00023314
16150.0 0.00023034
16170.0 0.00022758
16190.0 0.00022488
16210.0 0.00022218
16230.0 0.0002195
16250.0 0.00021687
16270.0 0.00021427
16290.0 0.00021168
16310.0 0.00020912
16330.0 0.0002066
16350.0 0.00020411
16370.0 0.00020161
16390.0 0.00019918
16410.0 0.00019677
16430.0 0.00019437
16450.0 0.00019201
16470.0 0.0001897
16490.0 0.00018739
16510.0 0.0001851
16530.0 0.00018286
16550.0 0.00018065
16570.0 0.00017844
16590.0 0.00017627
16610.0 0.00017415
16630.0 0.00017204
16650.0 0.00016995
16670.0 0.0001679
16690.0 0.00016588
16710.0 0.00016386
16730.0 0.00016189
16750.0 0.00015995
16770.0 0.00015802
16790.0 0.00015611
16810.0 0.00015426
16830.0 0.00015242
16850.0 0.00015059
16870.0 0.0001488
16890.0 0.00014704
16910.0 0.00014529
16930.0 0.00014355
16950.0 0.00014187
16970.0 0.0001402
16990.0 0.00013855
17010.0 0.00013693
17030.0 0.00013534
17050.0 0.00013376
17070.0 0.0001322
17090.0 0.00013068
17110.0 0.00012918
17130.0 0.00012768
17150.0 0.00012622
17170.0 0.00012479
17190.0 0.00012337
17210.0 0.00012197
17230.0 0.00012061
17250.0 0.00011925
17270.0 0.00011791
17290.0 0.0001166
17310.0 0.00011532
17330.0 0.00011404
17350.0 0.00011278
17370.0 0.00011156
17390.0 0.00011035
17410.0 0.00010915
17430.0 0.00010798
17450.0 0.00010684
17470.0 0.00010569
17490.0 0.00010456
17510.0 0.00010347
17530.0 0.00010239
17550.0 0.00010132
17570.0 0.00010027
17590.0 9.9253e-05
17610.0 9.8233e-05
17630.0 9.7234e-05
17650.0 9.6262e-05
17670.0 9.5298e-05
17690.0 9.4335e-05
17710.0 9.3411e-05
17730.0 9.25e-05
17750.0 9.1594e-05
17770.0 9.0708e-05
17790.0 8.9848e-05
17810.0 8.8988e-05
17830.0 8.814e-05
17850.0 8.7318e-05
17870.0 8.6509e-05
17890.0 8.5702e-05
17910.0 8.4914e-05
17930.0 8.4153e-05
17950.0 8.3394e-05
17970.0 8.2645e-05
17990.0 8.192e-05
18010.0 8.1206e-05
18030.0 8.0488e-05
18050.0 7.9795e-05
18070.0 7.912e-05
18090.0 7.8449e-05
18110.0 7.7785e-05
18130.0 7.7147e-05
18150.0 7.6518e-05
18170.0 7.5889e-05
18190.0 7.5279e-05
18210.0 7.4687e-05
18230.0 7.4093e-05
18250.0 7.3507e-05
18270.0 7.2946e-05
18290.0 7.2392e-05
18310.0 7.184e-05
18330.0 7.1305e-05
18350.0 7.0788e-05
18370.0 7.0266e-05
18390.0 6.9756e-05
18410.0 6.9265e-05
18430.0 6.8779e-05
18450.0 6.829e-05
18470.0 6.7824e-05
18490.0 6.7371e-05
18510.0 6.6917e-05
18530.0 6.6473e-05
18550.0 6.6048e-05
18570.0 6.5623e-05
18590.0 6.5198e-05
18610.0 6.4793e-05
18630.0 6.4398e-05
18650.0 6.4002e-05
18670.0 6.3613e-05
18690.0 6.3246e-05
18710.0 6.2879e-05
18730.0 6.2514e-05
18750.0 6.2164e-05
18770.0 6.1826e-05
18790.0 6.1478e-05
18810.0 6.1144e-05
18830.0 6.0827e-05
18850.0 6.051e-05
18870.0 6.0194e-05
18890.0 5.9896e-05
18910.0 5.9606e-05
18930.0 5.9311e-05
18950.0 5.9026e-05
18970.0 5.8756e-05
18990.0 5.8485e-05
19010.0 5.8209e-05
19030.0 5.7958e-05
19050.0 5.7711e-05
19070.0 5.7461e-05
19090.0 5.722e-05
19110.0 5.6996e-05
19130.0 5.6763e-05
19150.0 5.6535e-05
19170.0 5.6323e-05
19190.0 5.6114e-05
19210.0 5.5901e-05
19230.0 5.5698e-05
19250.0 5.5512e-05
19270.0 5.532e-05
19290.0 5.5132e-05
19310.0 5.4958e-05
19330.0 5.4787e-05
19350.0 5.4606e-05
19370.0 5.4442e-05
19390.0 5.4288e-05
19410.0 5.4129e-05
19430.0 5.3973e-05
19450.0 5.3834e-05
19470.0 5.3695e-05
19490.0 5.3552e-05
19510.0 5.3421e-05
19530.0 5.3299e-05
19550.0 5.3169e-05
19570.0 5.3042e-05
19590.0 5.2933e-05
19610.0 5.2824e-05
19630.0 5.271e-05
19650.0 5.2609e-05
19670.0 5.2517e-05
19690.0 5.2415e-05
19710.0 5.232e-05
19730.0 5.2237e-05
19750.0 5.2154e-05
19770.0 5.2062e-05
19790.0 5.1988e-05
19810.0 5.1921e-05
19830.0 5.1847e-05
19850.0 5.1778e-05
19870.0 5.1725e-05
19890.0 5.1668e-05
19910.0 5.161e-05
19930.0 5.1574e-05
19950.0 5.1554e-05
19970.0 5.1542e-05
19990.0 5.1556e-05
20010.0 5.1609e-05
20030.0 5.1682e-05
20050.0 5.1783e-05
20070.0 5.1918e-05
20090.0 5.208e-05
20110.0 5.2259e-05
20130.0 5.2462e-05
20150.0 5.2686e-05
20170.0 5.2923e-05
20190.0 5.3173e-05
20210.0 5.3438e-05
20230.0 5.3714e-05
20250.0 5.3997e-05
20270.0 5.4291e-05
20290.0 5.4594e-05
20310.0 5.4902e-05
20330.0 5.5213e-05
20350.0 5.5533e-05
20370.0 5.5856e-05
20390.0 5.6181e-05
20410.0 5.6511e-05
20430.0 5.6846e-05
20450.0 5.7182e-05
20470.0 5.7523e-05
20490.0 5.7872e-05
20510.0 5.8227e-05
20530.0 5.8587e-05
20550.0 5.8959e-05
20570.0 5.9343e-05
20590.0 5.9736e-05
20610.0 6.0142e-05
20630.0 6.0563e-05
20650.0 6.0997e-05
20670.0 6.1442e-05
20690.0 6.1902e-05
20710.0 6.2374e-05
20730.0 6.2856e-05
20750.0 6.3347e-05
20770.0 6.3846e-05
20790.0 6.435e-05
20810.0 6.4855e-05
20830.0 6.5362e-05
20850.0 6.5869e-05
20870.0 6.6371e-05
20890.0 6.6866e-05
20910.0 6.7361e-05
20930.0 6.7847e-05
20950.0 6.8323e-05
20970.0 6.8796e-05
20990.0 6.9264e-05
21010.0 6.9718e-05
21030.0 7.0168e-05
21050.0 7.062e-05
21070.0 7.1064e-05
21090.0 7.1496e-05
21110.0 7.1938e-05
21130.0 7.2381e-05
21150.0 7.2814e-05
21170.0 7.3249e-05
21190.0 7.3694e-05
21210.0 7.4128e-05
21230.0 7.4555e-05
21250.0 7.4993e-05
21270.0 7.543e-05
21290.0 7.5853e-05
21310.0 7.6275e-05
21330.0 7.6708e-05
21350.0 7.7124e-05
21370.0 7.7527e-05
21390.0 7.7937e-05
21410.0 7.8342e-05
21430.0 7.8715e-05
21450.0 7.9094e-05
21470.0 7.9479e-05
21490.0 7.9844e-05
21510.0 8.0194e-05
21530.0 8.0558e-05
21550.0 8.0913e-05
21570.0 8.1241e-05
21590.0 8.1575e-05
21610.0 8.1918e-05
21630.0 8.224e-05
21650.0 8.2539e-05
21670.0 8.2873e-05
21690.0 8.3195e-05
21710.0 8.3495e-05
21730.0 8.3805e-05
21750.0 8.4131e-05
21770.0 8.4418e-05
21790.0 8.4706e-05
21810.0 8.5015e-05
21830.0 8.5317e-05
21850.0 8.5594e-05
21870.0 8.589e-05
21890.0 8.6209e-05
21910.0 8.6503e-05
21930.0 8.6801e-05
21950.0 8.7128e-05
21970.0 8.7453e-05
21990.0 8.7754e-05
22010.0 8.8099e-05
22030.0 8.8465e-05
22050.0 8.8822e-05
22070.0 8.9195e-05
22090.0 8.9613e-05
22110.0 9.0032e-05
22130.0 9.0452e-05
22150.0 9.091e-05
22170.0 9.1395e-05
22190.0 9.1869e-05
22210.0 9.2364e-05
22230.0 9.2905e-05
22250.0 9.3447e-05
22270.0 9.399e-05
22290.0 9.4566e-05
22310.0 9.5159e-05
22330.0 9.5735e-05
22350.0 9.633e-05
22370.0 9.695e-05
22390.0 9.7566e-05
22410.0 9.8172e-05
22430.0 9.8813e-05
22450.0 9.9465e-05
22470.0 0.00010011
22490.0 0.00010076
22510.0 0.00010145
22530.0 0.00010212
22550.0 0.0001028
22570.0 0.00010351
22590.0 0.00010424
22610.0 0.00010497
22630.0 0.00010572
22650.0 0.0001065
22670.0 0.00010729
22690.0 0.00010808
22710.0 0.00010891
22730.0 0.00010976
22750.0 0.0001106
22770.0 0.00011148
22790.0 0.00011239
22810.0 0.00011331
22830.0 0.00011425
22850.0 0.00011524
22870.0 0.00011626
22890.0 0.00011729
22910.0 0.00011838
22930.0 0.00011951
22950.0 0.00012068
22970.0 0.0001219
22990.0 0.00012318
23010.0 0.00012452
23030.0 0.00012592
23050.0 0.00012738
23070.0 0.00012891
23090.0 0.00013051
23110.0 0.00013218
23130.0 0.00013392
23150.0 0.00013573
23170.0 0.00013763
23190.0 0.00013959
23210.0 0.00014161
23230.0 0.00014371
