#lamb flux
1010.0 6.4403e-08
1030.0 7.255e-08
1050.0 8.192e-08
1070.0 9.2468e-08
1090.0 1.0445e-07
1110.0 1.1674e-07
1130.0 1.2911e-07
1150.0 1.4206e-07
1170.0 1.5542e-07
1190.0 1.681e-07
1210.0 1.8094e-07
1230.0 1.9421e-07
1250.0 2.0721e-07
1270.0 2.1984e-07
1290.0 2.3319e-07
1310.0 2.4652e-07
1330.0 2.5931e-07
1350.0 2.7224e-07
1370.0 2.8558e-07
1390.0 2.986e-07
1410.0 3.1122e-07
1430.0 3.2442e-07
1450.0 3.3762e-07
1470.0 3.5037e-07
1490.0 3.6326e-07
1510.0 3.7687e-07
1530.0 3.8976e-07
1550.0 4.0247e-07
1570.0 4.1562e-07
1590.0 4.2877e-07
1610.0 4.4133e-07
1630.0 4.5427e-07
1650.0 4.6754e-07
1670.0 4.8037e-07
1690.0 4.9301e-07
1710.0 5.0612e-07
1730.0 5.1929e-07
1750.0 5.3164e-07
1770.0 5.4432e-07
1790.0 5.5724e-07
1810.0 5.6969e-07
1830.0 5.8187e-07
1850.0 5.9476e-07
1870.0 6.0724e-07
1890.0 6.1922e-07
1910.0 6.3136e-07
1930.0 6.4372e-07
1950.0 6.5538e-07
1970.0 6.6676e-07
1990.0 6.7848e-07
2010.0 6.8984e-07
2030.0 7.0057e-07
2050.0 7.1148e-07
2070.0 7.2251e-07
2090.0 7.3258e-07
2110.0 7.4236e-07
2130.0 7.5224e-07
2150.0 7.6158e-07
2170.0 7.7009e-07
2190.0 7.787e-07
2210.0 7.8702e-07
2230.0 7.9447e-07
2250.0 8.0146e-07
2270.0 8.0855e-07
2290.0 8.148e-07
2310.0 8.2011e-07
2330.0 8.2531e-07
2350.0 8.3013e-07
2370.0 8.3406e-07
2390.0 8.3777e-07
2410.0 8.4191e-07
2430.0 8.4583e-07
2450.0 8.4992e-07
2470.0 8.5534e-07
2490.0 8.6253e-07
2510.0 8.7086e-07
2530.0 8.8315e-07
2550.0 9.0338e-07
2570.0 9.3516e-07
2590.0 9.8391e-07
2610.0 1.0649e-06
2630.0 1.1825e-06
2650.0 1.3309e-06
2670.0 1.5128e-06
2690.0 1.7211e-06
2710.0 1.9245e-06
2730.0 2.1066e-06
2750.0 2.2687e-06
2770.0 2.3915e-06
2790.0 2.4724e-06
2810.0 2.5231e-06
2830.0 2.5518e-06
2850.0 2.5584e-06
2870.0 2.5538e-06
2890.0 2.544e-06
2910.0 2.5303e-06
2930.0 2.5136e-06
2950.0 2.4973e-06
2970.0 2.4815e-06
2990.0 2.4651e-06
3010.0 5.7605e-05
3030.0 5.7221e-05
3050.0 5.6841e-05
3070.0 5.6422e-05
3090.0 5.5983e-05
3110.0 5.5468e-05
3130.0 5.4811e-05
3150.0 5.3976e-05
3170.0 5.2895e-05
3190.0 5.1594e-05
3210.0 5.0175e-05
3230.0 4.8731e-05
3250.0 4.7459e-05
3270.0 4.6582e-05
3290.0 4.6208e-05
3310.0 4.6423e-05
3330.0 4.7246e-05
3350.0 4.8556e-05
3370.0 5.0379e-05
3390.0 5.2656e-05
3410.0 5.513e-05
3430.0 5.7917e-05
3450.0 6.1125e-05
3470.0 6.462e-05
3490.0 6.8311e-05
3510.0 7.2454e-05
3530.0 7.6883e-05
3550.0 8.1391e-05
3570.0 8.6166e-05
3590.0 9.151e-05
3610.0 9.7153e-05
3630.0 0.00010305
3650.0 0.00010923
3670.0 0.00011503
3690.0 0.00011953
3710.0 0.00012222
3730.0 0.00012232
3750.0 0.00011977
3770.0 0.00011217
3790.0 0.00010246
3810.0 9.2308e-05
3830.0 8.1772e-05
3850.0 6.8369e-05
3870.0 4.8894e-05
3890.0 7.0796e-05
3910.0 0.00011234
3930.0 0.00013726
3950.0 0.00013604
3970.0 0.00014385
3990.0 0.00016079
4010.0 0.00021395
4030.0 0.00021176
4050.0 0.00018657
4070.0 0.00017274
4090.0 0.00016425
4110.0 0.00019442
4130.0 0.00020903
4150.0 0.00021499
4170.0 0.00020906
4190.0 0.00020844
4210.0 0.00020922
4230.0 0.0002372
4250.0 0.00026175
4270.0 0.00026874
4290.0 0.00026773
4310.0 0.00026876
4330.0 0.0002928
4350.0 0.0003444
4370.0 0.00039473
4390.0 0.00036395
4410.0 0.00028447
4430.0 0.00023523
4450.0 0.00020312
4470.0 0.00019256
4490.0 0.00021912
4510.0 0.00026374
4530.0 0.00029652
4550.0 0.00033489
4570.0 0.00038189
4590.0 0.00045588
4610.0 0.00061843
4630.0 0.00077033
4650.0 0.00077929
4670.0 0.00073756
4690.0 0.00078576
4710.0 0.00083469
4730.0 0.00070176
4750.0 0.00048964
4770.0 0.00039222
4790.0 0.00038751
4810.0 0.00036473
4830.0 0.00034547
4850.0 0.00039234
4870.0 0.00051104
4890.0 0.00059269
4910.0 0.00049328
4930.0 0.00043824
4950.0 0.00049109
4970.0 0.00066115
4990.0 0.00086788
5010.0 0.0009392
5030.0 0.00077139
5050.0 0.00048762
5070.0 0.00033548
5090.0 0.00029329
5110.0 0.00030325
5130.0 0.00033004
5150.0 0.00034281
5170.0 0.00034037
5190.0 0.00033012
5210.0 0.00032282
5230.0 0.00033919
5250.0 0.0003669
5270.0 0.00040849
5290.0 0.00046868
5310.0 0.00053113
5330.0 0.000546
5350.0 0.00054604
5370.0 0.00059655
5390.0 0.0006619
5410.0 0.00063264
5430.0 0.00053417
5450.0 0.00049412
5470.0 0.00055503
5490.0 0.00071202
5510.0 0.00090991
5530.0 0.0010208
5550.0 0.00097685
5570.0 0.00088023
5590.0 0.00077396
5610.0 0.00072356
5630.0 0.00070157
5650.0 0.00070818
5670.0 0.00068566
5690.0 0.00062242
5710.0 0.00059624
5730.0 0.00054935
5750.0 0.00037354
5770.0 0.00031788
5790.0 0.00036232
5810.0 0.00043463
5830.0 0.00051335
5850.0 0.00057878
5870.0 0.00059947
5890.0 0.00057805
5910.0 0.00055355
5930.0 0.00055197
5950.0 0.00057678
5970.0 0.00063197
5990.0 0.00058741
6010.0 0.00048736
6030.0 0.00040353
6050.0 0.00035008
6070.0 0.00035602
6090.0 0.00040322
6110.0 0.00044087
6130.0 0.00042186
6150.0 0.00037899
6170.0 0.00039857
6190.0 0.00048287
6210.0 0.00060755
6230.0 0.00072554
6250.0 0.00073431
6270.0 0.00064324
6290.0 0.00053442
6310.0 0.00042194
6330.0 0.00033099
6350.0 0.00029918
6370.0 0.00032111
6390.0 0.00038243
6410.0 0.00044869
6430.0 0.00052338
6450.0 0.00061416
6470.0 0.00073465
6490.0 0.00090499
6510.0 0.0010071
6530.0 0.00094437
6550.0 0.00086494
6570.0 0.00081995
6590.0 0.00078956
6610.0 0.00069466
6630.0 0.00063595
6650.0 0.00058616
6670.0 0.00059716
6690.0 0.00057609
6710.0 0.00051646
6730.0 0.0004442
6750.0 0.00040799
6770.0 0.0004132
6790.0 0.00047104
6810.0 0.00046121
6830.0 0.00047407
6850.0 0.0004577
6870.0 0.00043732
6890.0 0.00042182
6910.0 0.00041536
6930.0 0.00038864
6950.0 0.000404
6970.0 0.00040837
6990.0 0.00045639
7010.0 0.00048386
7030.0 0.00045329
7050.0 0.0004219
7070.0 0.0004068
7090.0 0.00038076
7110.0 0.00036109
7130.0 0.00037395
7150.0 0.00039905
7170.0 0.00042744
7190.0 0.00043338
7210.0 0.00042043
7230.0 0.00043364
7250.0 0.00049289
7270.0 0.00057325
7290.0 0.00063279
7310.0 0.00062427
7330.0 0.00055697
7350.0 0.00049777
7370.0 0.00046143
7390.0 0.00046734
7410.0 0.00050009
7430.0 0.00054828
7450.0 0.00059304
7470.0 0.00063739
7490.0 0.00069212
7510.0 0.0007312
7530.0 0.00068234
7550.0 0.00057462
7570.0 0.0004518
7590.0 0.00033279
7610.0 0.00029558
7630.0 0.00031989
7650.0 0.00037056
7670.0 0.00042999
7690.0 0.00048772
7710.0 0.00052095
7730.0 0.00053536
7750.0 0.00055953
7770.0 0.00055768
7790.0 0.00053696
7810.0 0.00053549
7830.0 0.00052544
7850.0 0.00047994
7870.0 0.00043623
7890.0 0.00039162
7910.0 0.00033424
7930.0 0.00029192
7950.0 0.00026465
7970.0 0.00025752
7990.0 0.00026442
8010.0 0.00027878
8030.0 0.0002794
8050.0 0.00028147
8070.0 0.00027692
8090.0 0.00028372
8110.0 0.00026766
8130.0 0.00023429
8150.0 0.00022015
8170.0 0.00020293
8190.0 0.00020088
8210.0 0.00021539
8230.0 0.00023046
8250.0 0.0002136
8270.0 0.00019043
8290.0 0.00015649
8310.0 0.00010787
8330.0 7.002e-05
8350.0 5.101e-05
8370.0 5.4225e-05
8390.0 6.4228e-05
8410.0 8.1597e-05
8430.0 9.9723e-05
8450.0 0.00011012
8470.0 0.0001222
8490.0 0.00012015
8510.0 0.00012078
8530.0 0.00012616
8550.0 0.00015275
8570.0 0.0001882
8590.0 0.00021508
8610.0 0.00026001
8630.0 0.00030144
8650.0 0.00031722
8670.0 0.00032253
8690.0 0.00032065
8710.0 0.00029988
8730.0 0.00028788
8750.0 0.00026645
8770.0 0.00025589
8790.0 0.0002539
8810.0 0.00024209
8830.0 0.00020367
8850.0 0.00016786
8870.0 0.00014
8890.0 0.00013687
8910.0 0.00014785
8930.0 0.00015693
8950.0 0.00017615
8970.0 0.00017895
8990.0 0.0001762
9010.0 0.00016945
9030.0 0.00016767
9050.0 0.00016931
9070.0 0.00017062
9090.0 0.0001716
9110.0 0.00017248
9130.0 0.00017326
9150.0 0.000174
9170.0 0.00017477
9190.0 0.0001756
9210.0 0.00017649
9230.0 0.00017741
9250.0 0.00017838
9270.0 0.0001794
9290.0 0.00018046
9310.0 0.00018157
9330.0 0.00018273
9350.0 0.00018392
9370.0 0.00018515
9390.0 0.00018644
9410.0 0.00018776
9430.0 0.00018911
9450.0 0.00019052
9470.0 0.00019197
9490.0 0.00019345
9510.0 0.00019497
9530.0 0.00019654
9550.0 0.00019813
9570.0 0.00019976
9590.0 0.00020144
9610.0 0.00020315
9630.0 0.00020488
9650.0 0.00020665
9670.0 0.00020847
9690.0 0.0002103
9710.0 0.00021217
9730.0 0.00021407
9750.0 0.000216
9770.0 0.00021794
9790.0 0.00021992
9810.0 0.00022194
9830.0 0.00022396
9850.0 0.00022601
9870.0 0.00022809
9890.0 0.00023018
9910.0 0.00023228
9930.0 0.00023441
9950.0 0.00023656
9970.0 0.00023871
9990.0 0.00024087
10010.0 0.00023196
10030.0 0.000234
10050.0 0.00023603
10070.0 0.00023806
10090.0 0.00024013
10110.0 0.00024218
10130.0 0.00024423
10150.0 0.0002463
10170.0 0.00024835
10190.0 0.00025037
10210.0 0.00025241
10230.0 0.00025445
10250.0 0.00025646
10270.0 0.00025845
10290.0 0.00026045
10310.0 0.00026242
10330.0 0.00026435
10350.0 0.00026629
10370.0 0.0002682
10390.0 0.00027008
10410.0 0.00027193
10430.0 0.00027377
10450.0 0.00027557
10470.0 0.00027733
10490.0 0.00027907
10510.0 0.00028079
10530.0 0.00028243
10550.0 0.00028405
10570.0 0.00028565
10590.0 0.00028719
10610.0 0.00028869
10630.0 0.00029015
10650.0 0.00029158
10670.0 0.00029292
10690.0 0.00029424
10710.0 0.00029552
10730.0 0.00029673
10750.0 0.00029786
10770.0 0.00029899
10790.0 0.00030005
10810.0 0.00030103
10830.0 0.00030195
10850.0 0.00030282
10870.0 0.00030353
10890.0 0.00030407
10910.0 0.00030437
10930.0 0.00030426
10950.0 0.00030349
10970.0 0.00030195
10990.0 0.00029957
11010.0 0.00029094
11030.0 0.00028626
11050.0 0.00028071
11070.0 0.00027413
11090.0 0.00026623
11110.0 0.00025808
11130.0 0.00024958
11150.0 0.00024043
11170.0 0.00023105
11190.0 0.00022204
11210.0 0.00021285
11230.0 0.00020357
11250.0 0.0001949
11270.0 0.00018674
11290.0 0.00017875
11310.0 0.00017137
11330.0 0.00016501
11350.0 0.00015912
11370.0 0.00015376
11390.0 0.00014916
11410.0 0.00014512
11430.0 0.00014131
11450.0 0.00013791
11470.0 0.00013482
11490.0 0.00013177
11510.0 0.00012862
11530.0 0.00012551
11550.0 0.00012228
11570.0 0.00011874
11590.0 0.00011501
11610.0 0.00011122
11630.0 0.00010712
11650.0 0.0001028
11670.0 9.862e-05
11690.0 9.4458e-05
11710.0 9.0253e-05
11730.0 8.6258e-05
11750.0 8.2622e-05
11770.0 7.9117e-05
11790.0 7.5879e-05
11810.0 7.3054e-05
11830.0 7.0539e-05
11850.0 6.8222e-05
11870.0 6.6255e-05
11890.0 6.4573e-05
11910.0 6.3034e-05
11930.0 6.1627e-05
11950.0 6.0359e-05
11970.0 5.9129e-05
11990.0 5.7867e-05
12010.0 5.6609e-05
12030.0 5.5333e-05
12050.0 5.3973e-05
12070.0 5.2534e-05
12090.0 5.1135e-05
12110.0 4.971e-05
12130.0 4.827e-05
12150.0 4.6916e-05
12170.0 4.569e-05
12190.0 4.4544e-05
12210.0 4.3595e-05
12230.0 4.2885e-05
12250.0 4.2404e-05
12270.0 4.2188e-05
12290.0 4.225e-05
12310.0 4.2562e-05
12330.0 4.3163e-05
12350.0 4.402e-05
12370.0 4.5055e-05
12390.0 4.6292e-05
12410.0 4.7773e-05
12430.0 4.9272e-05
12450.0 5.081e-05
12470.0 5.2428e-05
12490.0 5.4016e-05
12510.0 5.5454e-05
12530.0 5.6839e-05
12550.0 5.8118e-05
12570.0 5.9173e-05
12590.0 6.0026e-05
12610.0 6.0712e-05
12630.0 6.1163e-05
12650.0 6.1354e-05
12670.0 6.1348e-05
12690.0 6.1129e-05
12710.0 6.0709e-05
12730.0 6.0117e-05
12750.0 5.9338e-05
12770.0 5.8418e-05
12790.0 5.7395e-05
12810.0 5.6251e-05
12830.0 5.499e-05
12850.0 5.3702e-05
12870.0 5.2362e-05
12890.0 5.0934e-05
12910.0 4.948e-05
12930.0 4.8034e-05
12950.0 4.6515e-05
12970.0 4.4947e-05
12990.0 4.3427e-05
13010.0 4.1896e-05
13030.0 4.032e-05
13050.0 3.8771e-05
13070.0 3.729e-05
13090.0 3.5785e-05
13110.0 3.4309e-05
13130.0 3.2932e-05
13150.0 3.1622e-05
13170.0 3.0342e-05
13190.0 2.9205e-05
13210.0 2.8209e-05
13230.0 2.7313e-05
13250.0 2.6556e-05
13270.0 2.597e-05
13290.0 2.5528e-05
13310.0 2.524e-05
13330.0 2.512e-05
13350.0 2.515e-05
13370.0 2.5333e-05
13390.0 2.5667e-05
13410.0 2.6092e-05
13430.0 2.6626e-05
13450.0 2.7262e-05
13470.0 2.7942e-05
13490.0 2.8638e-05
13510.0 2.9402e-05
13530.0 3.0152e-05
13550.0 3.0845e-05
13570.0 3.1509e-05
13590.0 3.2138e-05
13610.0 3.2675e-05
13630.0 3.3123e-05
13650.0 3.3514e-05
13670.0 3.3815e-05
13690.0 3.4018e-05
13710.0 3.4145e-05
13730.0 3.4196e-05
13750.0 3.4161e-05
13770.0 3.4058e-05
13790.0 3.389e-05
13810.0 3.3661e-05
13830.0 3.3387e-05
13850.0 3.306e-05
13870.0 3.2683e-05
13890.0 3.2278e-05
13910.0 3.1843e-05
13930.0 3.1363e-05
13950.0 3.0858e-05
13970.0 3.0356e-05
13990.0 2.9826e-05
14010.0 2.9279e-05
14030.0 2.8746e-05
14050.0 2.8221e-05
14070.0 2.7682e-05
14090.0 2.7177e-05
14110.0 2.6712e-05
14130.0 2.6273e-05
14150.0 2.5872e-05
14170.0 2.5538e-05
14190.0 2.526e-05
14210.0 2.5037e-05
14230.0 2.4884e-05
14250.0 2.4801e-05
14270.0 2.4785e-05
14290.0 2.4844e-05
14310.0 2.4964e-05
14330.0 2.5146e-05
14350.0 2.5393e-05
14370.0 2.5687e-05
14390.0 2.6012e-05
14410.0 2.6389e-05
14430.0 2.68e-05
14450.0 2.7219e-05
14470.0 2.7658e-05
14490.0 2.8135e-05
14510.0 2.8606e-05
14530.0 2.9075e-05
14550.0 2.9575e-05
14570.0 3.0096e-05
14590.0 3.0616e-05
14610.0 3.1175e-05
14630.0 3.1793e-05
14650.0 3.2436e-05
14670.0 3.3117e-05
14690.0 3.3879e-05
14710.0 3.4718e-05
14730.0 3.557e-05
14750.0 3.65e-05
14770.0 3.7517e-05
14790.0 3.8561e-05
14810.0 3.962e-05
14830.0 4.0782e-05
14850.0 4.1942e-05
14870.0 4.3058e-05
14890.0 4.417e-05
14910.0 4.5262e-05
14930.0 4.624e-05
14950.0 4.7098e-05
14970.0 4.7863e-05
14990.0 4.8469e-05
15010.0 4.8908e-05
15030.0 4.9214e-05
15050.0 4.9396e-05
15070.0 4.9468e-05
15090.0 4.9472e-05
15110.0 4.9429e-05
15130.0 4.9357e-05
15150.0 4.9276e-05
15170.0 4.9183e-05
15190.0 4.9085e-05
15210.0 4.8991e-05
15230.0 4.8897e-05
15250.0 4.8799e-05
15270.0 4.8703e-05
15290.0 4.8614e-05
15310.0 4.8521e-05
15330.0 4.8427e-05
15350.0 4.8338e-05
15370.0 4.825e-05
15390.0 4.8155e-05
15410.0 4.8064e-05
15430.0 4.7977e-05
15450.0 4.7887e-05
15470.0 4.7794e-05
15490.0 4.7708e-05
15510.0 4.7622e-05
15530.0 4.7531e-05
15550.0 4.7443e-05
15570.0 4.7358e-05
15590.0 4.7268e-05
15610.0 4.7176e-05
15630.0 4.709e-05
15650.0 4.7003e-05
15670.0 4.6912e-05
15690.0 4.6823e-05
15710.0 4.6739e-05
15730.0 4.6648e-05
15750.0 4.6556e-05
15770.0 4.6469e-05
15790.0 4.6381e-05
15810.0 4.6285e-05
15830.0 4.6195e-05
15850.0 4.6107e-05
15870.0 4.6015e-05
15890.0 4.5921e-05
15910.0 4.5832e-05
15930.0 4.574e-05
15950.0 4.5642e-05
15970.0 4.5549e-05
15990.0 4.5456e-05
16010.0 4.5359e-05
16030.0 4.5259e-05
16050.0 4.5167e-05
16070.0 4.507e-05
16090.0 4.4969e-05
16110.0 4.4872e-05
16130.0 4.4776e-05
16150.0 4.4671e-05
16170.0 4.4567e-05
16190.0 4.4468e-05
16210.0 4.4365e-05
16230.0 4.4258e-05
16250.0 4.4155e-05
16270.0 4.4053e-05
16290.0 4.3944e-05
16310.0 4.3835e-05
16330.0 4.373e-05
16350.0 4.3621e-05
16370.0 4.3504e-05
16390.0 4.3395e-05
16410.0 4.3285e-05
16430.0 4.317e-05
16450.0 4.3055e-05
16470.0 4.2944e-05
16490.0 4.2826e-05
16510.0 4.2706e-05
16530.0 4.2589e-05
16550.0 4.2472e-05
16570.0 4.2348e-05
16590.0 4.2224e-05
16610.0 4.2106e-05
16630.0 4.1982e-05
16650.0 4.1855e-05
16670.0 4.1732e-05
16690.0 4.1608e-05
16710.0 4.1475e-05
16730.0 4.1346e-05
16750.0 4.1219e-05
16770.0 4.1087e-05
16790.0 4.0951e-05
16810.0 4.0821e-05
16830.0 4.0689e-05
16850.0 4.0551e-05
16870.0 4.0415e-05
16890.0 4.0282e-05
16910.0 4.0141e-05
16930.0 3.9998e-05
16950.0 3.9861e-05
16970.0 3.9721e-05
16990.0 3.9576e-05
17010.0 3.9433e-05
17030.0 3.9293e-05
17050.0 3.9145e-05
17070.0 3.8997e-05
17090.0 3.8853e-05
17110.0 3.8706e-05
17130.0 3.8551e-05
17150.0 3.8402e-05
17170.0 3.8255e-05
17190.0 3.8102e-05
17210.0 3.7948e-05
17230.0 3.7798e-05
17250.0 3.7644e-05
17270.0 3.7485e-05
17290.0 3.733e-05
17310.0 3.7175e-05
17330.0 3.7016e-05
17350.0 3.6854e-05
17370.0 3.6699e-05
17390.0 3.654e-05
17410.0 3.6377e-05
17430.0 3.6217e-05
17450.0 3.6059e-05
17470.0 3.5891e-05
17490.0 3.5726e-05
17510.0 3.5565e-05
17530.0 3.54e-05
17550.0 3.5232e-05
17570.0 3.5068e-05
17590.0 3.4904e-05
17610.0 3.4734e-05
17630.0 3.4566e-05
17650.0 3.4401e-05
17670.0 3.4232e-05
17690.0 3.4056e-05
17710.0 3.3889e-05
17730.0 3.3721e-05
17750.0 3.3548e-05
17770.0 3.3377e-05
17790.0 3.321e-05
17810.0 3.3036e-05
17830.0 3.2861e-05
17850.0 3.269e-05
17870.0 3.2519e-05
17890.0 3.2342e-05
17910.0 3.2166e-05
17930.0 3.1997e-05
17950.0 3.1822e-05
17970.0 3.1645e-05
17990.0 3.1473e-05
18010.0 3.13e-05
18030.0 3.112e-05
18050.0 3.0945e-05
18070.0 3.0772e-05
18090.0 3.0595e-05
18110.0 3.0416e-05
18130.0 3.0243e-05
18150.0 3.0069e-05
18170.0 2.989e-05
18190.0 2.9714e-05
18210.0 2.9541e-05
18230.0 2.9362e-05
18250.0 2.9182e-05
18270.0 2.9009e-05
18290.0 2.8834e-05
18310.0 2.8655e-05
18330.0 2.8479e-05
18350.0 2.8307e-05
18370.0 2.8128e-05
18390.0 2.795e-05
18410.0 2.7777e-05
18430.0 2.7602e-05
18450.0 2.7421e-05
18470.0 2.7247e-05
18490.0 2.7074e-05
18510.0 2.6898e-05
18530.0 2.6721e-05
18550.0 2.655e-05
18570.0 2.6375e-05
18590.0 2.6197e-05
18610.0 2.6024e-05
18630.0 2.5852e-05
18650.0 2.5676e-05
18670.0 2.55e-05
18690.0 2.5331e-05
18710.0 2.5159e-05
18730.0 2.4984e-05
18750.0 2.4813e-05
18770.0 2.4645e-05
18790.0 2.4468e-05
18810.0 2.4296e-05
18830.0 2.4128e-05
18850.0 2.3958e-05
18870.0 2.3785e-05
18890.0 2.3617e-05
18910.0 2.3451e-05
18930.0 2.3279e-05
18950.0 2.311e-05
18970.0 2.2945e-05
18990.0 2.2777e-05
19010.0 2.2605e-05
19030.0 2.2441e-05
19050.0 2.2276e-05
19070.0 2.2109e-05
19090.0 2.1943e-05
19110.0 2.1783e-05
19130.0 2.1616e-05
19150.0 2.145e-05
19170.0 2.1289e-05
19190.0 2.1127e-05
19210.0 2.0962e-05
19230.0 2.0799e-05
19250.0 2.0642e-05
19270.0 2.048e-05
19290.0 2.0318e-05
19310.0 2.0161e-05
19330.0 2.0004e-05
19350.0 1.9841e-05
19370.0 1.9683e-05
19390.0 1.9528e-05
19410.0 1.937e-05
19430.0 1.9211e-05
19450.0 1.9059e-05
19470.0 1.8905e-05
19490.0 1.8748e-05
19510.0 1.8594e-05
19530.0 1.8444e-05
19550.0 1.8288e-05
19570.0 1.8133e-05
19590.0 1.7984e-05
19610.0 1.7834e-05
19630.0 1.7681e-05
19650.0 1.7532e-05
19670.0 1.7386e-05
19690.0 1.7235e-05
19710.0 1.7086e-05
19730.0 1.6941e-05
19750.0 1.6794e-05
19770.0 1.6644e-05
19790.0 1.6499e-05
19810.0 1.6356e-05
19830.0 1.621e-05
19850.0 1.6064e-05
19870.0 1.5922e-05
19890.0 1.5773e-05
19910.0 1.5617e-05
19930.0 1.5457e-05
19950.0 1.5285e-05
19970.0 1.5089e-05
19990.0 1.487e-05
20010.0 1.4928e-05
20030.0 1.4654e-05
20050.0 1.435e-05
20070.0 1.4032e-05
20090.0 1.3703e-05
20110.0 1.3344e-05
20130.0 1.2991e-05
20150.0 1.265e-05
20170.0 1.2306e-05
20190.0 1.1964e-05
20210.0 1.1647e-05
20230.0 1.1343e-05
20250.0 1.1043e-05
20270.0 1.0768e-05
20290.0 1.0518e-05
20310.0 1.0284e-05
20330.0 1.0066e-05
20350.0 9.8857e-06
20370.0 9.7268e-06
20390.0 9.5891e-06
20410.0 9.4793e-06
20430.0 9.396e-06
20450.0 9.3336e-06
20470.0 9.2958e-06
20490.0 9.2807e-06
20510.0 9.2856e-06
20530.0 9.3113e-06
20550.0 9.3536e-06
20570.0 9.4085e-06
20590.0 9.4796e-06
20610.0 9.563e-06
20630.0 9.6525e-06
20650.0 9.751e-06
20670.0 9.8624e-06
20690.0 9.9735e-06
20710.0 1.0086e-05
20730.0 1.0206e-05
20750.0 1.0329e-05
20770.0 1.0447e-05
20790.0 1.0569e-05
20810.0 1.0696e-05
20830.0 1.082e-05
20850.0 1.0943e-05
20870.0 1.1074e-05
20890.0 1.1206e-05
20910.0 1.1332e-05
20930.0 1.1463e-05
20950.0 1.1598e-05
20970.0 1.1731e-05
20990.0 1.1862e-05
21010.0 1.2001e-05
21030.0 1.2138e-05
21050.0 1.2268e-05
21070.0 1.24e-05
21090.0 1.2534e-05
21110.0 1.2657e-05
21130.0 1.2773e-05
21150.0 1.2889e-05
21170.0 1.2995e-05
21190.0 1.309e-05
21210.0 1.3179e-05
21230.0 1.326e-05
21250.0 1.3325e-05
21270.0 1.3377e-05
21290.0 1.3418e-05
21310.0 1.3443e-05
21330.0 1.3451e-05
21350.0 1.3443e-05
21370.0 1.3416e-05
21390.0 1.3371e-05
21410.0 1.3306e-05
21430.0 1.3216e-05
21450.0 1.3107e-05
21470.0 1.298e-05
21490.0 1.283e-05
21510.0 1.2657e-05
21530.0 1.2474e-05
21550.0 1.2274e-05
21570.0 1.2053e-05
21590.0 1.1826e-05
21610.0 1.1598e-05
21630.0 1.1361e-05
21650.0 1.1117e-05
21670.0 1.0894e-05
21690.0 1.0676e-05
21710.0 1.0466e-05
21730.0 1.0276e-05
21750.0 1.011e-05
21770.0 9.9577e-06
21790.0 9.8321e-06
21810.0 9.7365e-06
21830.0 9.6666e-06
21850.0 9.6238e-06
21870.0 9.6105e-06
21890.0 9.6235e-06
21910.0 9.6638e-06
21930.0 9.7305e-06
21950.0 9.8179e-06
21970.0 9.9283e-06
21990.0 1.0066e-05
22010.0 1.0216e-05
22030.0 1.038e-05
22050.0 1.0563e-05
22070.0 1.0758e-05
22090.0 1.0953e-05
22110.0 1.1159e-05
22130.0 1.1374e-05
22150.0 1.1585e-05
22170.0 1.1791e-05
22190.0 1.2004e-05
22210.0 1.2209e-05
22230.0 1.2394e-05
22250.0 1.2574e-05
22270.0 1.2743e-05
22290.0 1.2891e-05
22310.0 1.302e-05
22330.0 1.3135e-05
22350.0 1.3226e-05
22370.0 1.3291e-05
22390.0 1.3333e-05
22410.0 1.335e-05
22430.0 1.334e-05
22450.0 1.3305e-05
22470.0 1.3242e-05
22490.0 1.3152e-05
22510.0 1.304e-05
22530.0 1.2897e-05
22550.0 1.2725e-05
22570.0 1.2536e-05
22590.0 1.2323e-05
22610.0 1.2081e-05
22630.0 1.182e-05
