#lamb flux
1010.0 2.3018e-09
1030.0 2.8523e-09
1050.0 3.4532e-09
1070.0 4.0883e-09
1090.0 4.7599e-09
1110.0 5.3755e-09
1130.0 5.9136e-09
1150.0 6.4008e-09
1170.0 6.8213e-09
1190.0 7.1176e-09
1210.0 7.3521e-09
1230.0 7.5505e-09
1250.0 7.6988e-09
1270.0 7.8226e-09
1290.0 7.9996e-09
1310.0 8.2294e-09
1330.0 8.5256e-09
1350.0 8.9473e-09
1370.0 9.5317e-09
1390.0 1.0271e-08
1410.0 1.1174e-08
1430.0 1.2287e-08
1450.0 1.3582e-08
1470.0 1.5028e-08
1490.0 1.6632e-08
1510.0 1.8407e-08
1530.0 2.0253e-08
1550.0 2.2165e-08
1570.0 2.4154e-08
1590.0 2.6175e-08
1610.0 2.8162e-08
1630.0 3.0164e-08
1650.0 3.2166e-08
1670.0 3.4098e-08
1690.0 3.5971e-08
1710.0 3.7831e-08
1730.0 3.9643e-08
1750.0 4.1335e-08
1770.0 4.3e-08
1790.0 4.4634e-08
1810.0 4.6179e-08
1830.0 4.7656e-08
1850.0 4.8944e-08
1870.0 4.9993e-08
1890.0 5.1021e-08
1910.0 5.2089e-08
1930.0 5.32e-08
1950.0 5.4298e-08
1970.0 5.5399e-08
1990.0 5.6544e-08
2010.0 5.7672e-08
2030.0 5.8764e-08
2050.0 5.9892e-08
2070.0 6.1086e-08
2090.0 6.2236e-08
2110.0 6.3396e-08
2130.0 6.4604e-08
2150.0 6.5805e-08
2170.0 6.6972e-08
2190.0 6.8193e-08
2210.0 6.9284e-08
2230.0 7.0152e-08
2250.0 7.1009e-08
2270.0 7.1911e-08
2290.0 7.2776e-08
2310.0 7.3598e-08
2330.0 7.4457e-08
2350.0 7.5328e-08
2370.0 7.616e-08
2390.0 7.701e-08
2410.0 7.7921e-08
2430.0 7.8827e-08
2450.0 7.9766e-08
2470.0 8.0852e-08
2490.0 8.2179e-08
2510.0 8.3771e-08
2530.0 8.5921e-08
2550.0 8.8987e-08
2570.0 9.3172e-08
2590.0 9.8745e-08
2610.0 1.0673e-07
2630.0 1.1729e-07
2650.0 1.3015e-07
2670.0 1.4594e-07
2690.0 1.6496e-07
2710.0 1.8568e-07
2730.0 2.0738e-07
2750.0 2.3077e-07
2770.0 2.5396e-07
2790.0 2.7558e-07
2810.0 2.96e-07
2830.0 3.1524e-07
2850.0 3.3165e-07
2870.0 3.4641e-07
2890.0 3.6034e-07
2910.0 3.7356e-07
2930.0 3.863e-07
2950.0 3.9948e-07
2970.0 4.1325e-07
2990.0 4.2741e-07
3010.0 4.4221e-07
3030.0 4.5799e-07
3050.0 4.7451e-07
3070.0 4.9139e-07
3090.0 5.0921e-07
3110.0 5.281e-07
3130.0 5.4831e-07
3150.0 5.7238e-07
3170.0 6.0229e-07
3190.0 6.4091e-07
3210.0 6.9091e-07
3230.0 7.5635e-07
3250.0 8.3655e-07
3270.0 9.0882e-07
3290.0 1.0302e-06
3310.0 1.2922e-06
3330.0 1.3774e-06
3350.0 1.4182e-06
3370.0 1.4571e-06
3390.0 1.4967e-06
3410.0 1.5374e-06
3430.0 1.5788e-06
3450.0 1.6203e-06
3470.0 1.6608e-06
3490.0 1.7007e-06
3510.0 1.7403e-06
3530.0 1.7285e-06
3550.0 1.68e-06
3570.0 1.6992e-06
3590.0 1.792e-06
3610.0 1.9476e-06
3630.0 1.9924e-06
3650.0 1.9077e-06
3670.0 1.7593e-06
3690.0 1.681e-06
3710.0 1.7115e-06
3730.0 1.7679e-06
3750.0 1.7971e-06
3770.0 1.8576e-06
3790.0 1.9255e-06
3810.0 1.8913e-06
3830.0 1.7637e-06
3850.0 1.6544e-06
3870.0 1.6034e-06
3890.0 1.5789e-06
3910.0 1.5386e-06
3930.0 1.5204e-06
3950.0 1.5612e-06
3970.0 1.6091e-06
3990.0 1.6259e-06
4010.0 1.5621e-06
4030.0 1.4771e-06
4050.0 1.4239e-06
4070.0 1.3787e-06
4090.0 1.3401e-06
4110.0 1.2884e-06
4130.0 1.2102e-06
4150.0 1.1331e-06
4170.0 1.0874e-06
4190.0 1.0113e-06
4210.0 9.1634e-07
4230.0 8.1952e-07
4250.0 7.2885e-07
4270.0 6.6263e-07
4290.0 6.1034e-07
4310.0 5.8335e-07
4330.0 5.8261e-07
4350.0 5.8055e-07
4370.0 5.8618e-07
4390.0 6.0481e-07
4410.0 6.1791e-07
4430.0 5.9326e-07
4450.0 5.3993e-07
4470.0 4.9482e-07
4490.0 4.6882e-07
4510.0 4.5306e-07
4530.0 4.455e-07
4550.0 4.3934e-07
4570.0 4.3781e-07
4590.0 4.4376e-07
4610.0 4.6025e-07
4630.0 4.7012e-07
4650.0 4.7617e-07
4670.0 4.6452e-07
4690.0 4.3828e-07
4710.0 4.1138e-07
4730.0 3.9512e-07
4750.0 3.849e-07
4770.0 3.8539e-07
4790.0 3.8397e-07
4810.0 3.7566e-07
4830.0 3.7501e-07
4850.0 3.873e-07
4870.0 3.9074e-07
4890.0 3.8349e-07
4910.0 3.7586e-07
4930.0 3.5478e-07
4950.0 3.2253e-07
4970.0 3.0166e-07
4990.0 2.8454e-07
5010.0 2.8058e-07
5030.0 2.9011e-07
5050.0 2.9774e-07
5070.0 3.0878e-07
5090.0 3.275e-07
5110.0 3.3267e-07
5130.0 3.3546e-07
5150.0 3.4197e-07
5170.0 3.4422e-07
5190.0 3.5332e-07
5210.0 3.5531e-07
5230.0 3.5146e-07
5250.0 3.5479e-07
5270.0 3.6011e-07
5290.0 3.6126e-07
5310.0 3.5843e-07
5330.0 3.5178e-07
5350.0 3.4632e-07
5370.0 3.4279e-07
5390.0 3.3863e-07
5410.0 3.3472e-07
5430.0 3.3507e-07
5450.0 3.3942e-07
5470.0 3.457e-07
5490.0 3.5352e-07
5510.0 3.6444e-07
5530.0 3.6881e-07
5550.0 3.7499e-07
5570.0 3.7445e-07
5590.0 3.6482e-07
5610.0 3.62e-07
5630.0 3.6548e-07
5650.0 3.6078e-07
5670.0 3.5272e-07
5690.0 3.4137e-07
5710.0 3.4176e-07
5730.0 3.4469e-07
5750.0 3.2972e-07
5770.0 3.1304e-07
5790.0 2.8566e-07
5810.0 2.4791e-07
5830.0 2.6869e-07
5850.0 3.0049e-07
5870.0 3.0831e-07
5890.0 3.1009e-07
5910.0 3.1119e-07
5930.0 3.1106e-07
5950.0 3.0521e-07
5970.0 3.0141e-07
5990.0 2.9622e-07
6010.0 2.8746e-07
6030.0 2.7709e-07
6050.0 2.7288e-07
6070.0 2.7288e-07
6090.0 2.6789e-07
6110.0 2.5837e-07
6130.0 2.5006e-07
6150.0 2.3971e-07
6170.0 2.2916e-07
6190.0 2.2078e-07
6210.0 2.1261e-07
6230.0 2.0884e-07
6250.0 2.0442e-07
6270.0 2.0013e-07
6290.0 1.9773e-07
6310.0 1.9536e-07
6330.0 1.9078e-07
6350.0 1.8467e-07
6370.0 1.8067e-07
6390.0 1.7819e-07
6410.0 1.7267e-07
6430.0 1.6844e-07
6450.0 1.6433e-07
6470.0 1.6038e-07
6490.0 1.5765e-07
6510.0 1.5591e-07
6530.0 1.516e-07
6550.0 1.4821e-07
6570.0 1.4649e-07
6590.0 1.4559e-07
6610.0 1.4458e-07
6630.0 1.3949e-07
6650.0 1.3601e-07
6670.0 1.3491e-07
6690.0 1.3295e-07
6710.0 1.2998e-07
6730.0 1.2904e-07
6750.0 1.3004e-07
6770.0 1.3867e-07
6790.0 1.5778e-07
6810.0 1.4924e-07
6830.0 1.2907e-07
6850.0 1.2452e-07
6870.0 1.2259e-07
6890.0 1.2269e-07
6910.0 1.2301e-07
6930.0 1.2355e-07
6950.0 1.227e-07
6970.0 1.1962e-07
6990.0 1.1854e-07
7010.0 1.2039e-07
7030.0 1.2055e-07
7050.0 1.1876e-07
7070.0 1.1868e-07
7090.0 1.2048e-07
7110.0 1.2317e-07
7130.0 1.236e-07
7150.0 1.2383e-07
7170.0 1.2451e-07
7190.0 1.2634e-07
7210.0 1.2724e-07
7230.0 1.2771e-07
7250.0 1.2952e-07
7270.0 1.3062e-07
7290.0 1.3228e-07
7310.0 1.3551e-07
7330.0 1.3464e-07
7350.0 1.3196e-07
7370.0 1.2944e-07
7390.0 1.2824e-07
7410.0 1.301e-07
7430.0 1.3153e-07
7450.0 1.3242e-07
7470.0 1.335e-07
7490.0 1.3251e-07
7510.0 1.317e-07
7530.0 1.3277e-07
7550.0 1.3876e-07
7570.0 1.3825e-07
7590.0 1.3078e-07
7610.0 1.2853e-07
7630.0 1.3665e-07
7650.0 1.3874e-07
7670.0 1.4125e-07
7690.0 1.4718e-07
7710.0 1.5215e-07
7730.0 1.5323e-07
7750.0 1.6161e-07
7770.0 1.5672e-07
7790.0 1.5231e-07
7810.0 1.6244e-07
7830.0 1.6788e-07
7850.0 1.7345e-07
7870.0 1.7579e-07
7890.0 1.7787e-07
7910.0 1.765e-07
7930.0 1.7809e-07
7950.0 1.8579e-07
7970.0 1.86e-07
7990.0 1.731e-07
8010.0 1.7958e-07
8030.0 1.8198e-07
8050.0 1.8521e-07
8070.0 1.6886e-07
8090.0 1.1587e-07
8110.0 1.1948e-07
8130.0 1.6521e-07
8150.0 1.7801e-07
8170.0 1.8523e-07
8190.0 1.9015e-07
8210.0 1.8674e-07
8230.0 2.0075e-07
8250.0 2.044e-07
8270.0 1.9501e-07
8290.0 1.8816e-07
8310.0 1.8454e-07
8330.0 1.9234e-07
8350.0 2.0136e-07
8370.0 1.9848e-07
8390.0 1.895e-07
8410.0 1.8915e-07
8430.0 1.7761e-07
8450.0 1.8022e-07
8470.0 1.9707e-07
8490.0 1.9767e-07
8510.0 1.8317e-07
8530.0 1.7327e-07
8550.0 1.6663e-07
8570.0 1.5623e-07
8590.0 1.6074e-07
8610.0 1.6938e-07
8630.0 1.7465e-07
8650.0 1.7754e-07
8670.0 1.7353e-07
8690.0 1.6942e-07
8710.0 1.587e-07
8730.0 1.5257e-07
8750.0 1.5762e-07
8770.0 1.596e-07
8790.0 1.6061e-07
8810.0 1.5837e-07
8830.0 1.6096e-07
8850.0 1.6953e-07
8870.0 1.5845e-07
8890.0 1.4877e-07
8910.0 1.467e-07
8930.0 1.3955e-07
8950.0 1.3333e-07
8970.0 1.3271e-07
8990.0 1.2722e-07
9010.0 1.1931e-07
9030.0 1.1666e-07
9050.0 1.1573e-07
9070.0 1.149e-07
9090.0 1.1407e-07
9110.0 1.1324e-07
9130.0 1.124e-07
9150.0 1.1155e-07
9170.0 1.107e-07
9190.0 1.0985e-07
9210.0 1.09e-07
9230.0 1.0815e-07
9250.0 1.073e-07
9270.0 1.0645e-07
9290.0 1.056e-07
9310.0 1.0476e-07
9330.0 1.0394e-07
9350.0 1.0313e-07
9370.0 1.0231e-07
9390.0 1.015e-07
9410.0 1.007e-07
9430.0 9.9895e-08
9450.0 9.9096e-08
9470.0 9.8308e-08
9490.0 9.7522e-08
9510.0 9.6736e-08
9530.0 9.5955e-08
9550.0 9.5182e-08
9570.0 9.4416e-08
9590.0 9.3655e-08
9610.0 9.2921e-08
9630.0 9.2196e-08
9650.0 9.1476e-08
9670.0 9.0762e-08
9690.0 9.0056e-08
9710.0 8.9356e-08
9730.0 8.8662e-08
9750.0 8.7975e-08
9770.0 8.7297e-08
9790.0 8.6624e-08
9810.0 8.5957e-08
9830.0 8.5299e-08
9850.0 8.464e-08
9870.0 8.3982e-08
9890.0 8.3352e-08
9910.0 8.2726e-08
9930.0 8.2103e-08
9950.0 8.1487e-08
9970.0 8.088e-08
9990.0 8.0278e-08
10010.0 7.9682e-08
10030.0 7.9093e-08
10050.0 7.8511e-08
10070.0 7.7936e-08
10090.0 7.7367e-08
10110.0 7.6804e-08
10130.0 7.6249e-08
10150.0 7.57e-08
10170.0 7.5157e-08
10190.0 7.4621e-08
10210.0 7.4091e-08
10230.0 7.3567e-08
10250.0 7.3049e-08
10270.0 7.2538e-08
10290.0 7.2032e-08
10310.0 7.1532e-08
10330.0 7.1039e-08
10350.0 7.0551e-08
10370.0 7.0068e-08
10390.0 6.9584e-08
10410.0 6.9012e-08
10430.0 6.8415e-08
10450.0 6.8064e-08
10470.0 6.7659e-08
10490.0 6.7246e-08
10510.0 6.6826e-08
10530.0 6.6389e-08
10550.0 6.5957e-08
10570.0 6.5535e-08
10590.0 6.511e-08
10610.0 6.4684e-08
10630.0 6.4273e-08
10650.0 6.3865e-08
10670.0 6.345e-08
10690.0 6.3045e-08
10710.0 6.2651e-08
10730.0 6.2254e-08
10750.0 6.1853e-08
10770.0 6.1472e-08
10790.0 6.1092e-08
10810.0 6.0708e-08
10830.0 6.0332e-08
10850.0 5.9968e-08
10870.0 5.9592e-08
10890.0 5.9219e-08
10910.0 5.8856e-08
10930.0 5.8492e-08
10950.0 5.8115e-08
10970.0 5.774e-08
10990.0 5.7368e-08
11010.0 4.8251e-08
11030.0 4.7897e-08
11050.0 4.7551e-08
11070.0 4.7201e-08
11090.0 4.6833e-08
11110.0 4.6478e-08
11130.0 4.6123e-08
11150.0 4.5756e-08
11170.0 4.5385e-08
11190.0 4.5025e-08
11210.0 4.4657e-08
11230.0 4.428e-08
11250.0 4.3916e-08
11270.0 4.3562e-08
11290.0 4.3203e-08
11310.0 4.2853e-08
11330.0 4.2533e-08
11350.0 4.2219e-08
11370.0 4.1914e-08
11390.0 4.1632e-08
11410.0 4.1368e-08
11430.0 4.1104e-08
11450.0 4.0857e-08
11470.0 4.0626e-08
11490.0 4.0398e-08
11510.0 4.0168e-08
11530.0 3.9949e-08
11550.0 3.9732e-08
11570.0 3.9506e-08
11590.0 3.9279e-08
11610.0 3.9055e-08
11630.0 3.8818e-08
11650.0 3.857e-08
11670.0 3.8327e-08
11690.0 3.808e-08
11710.0 3.7819e-08
11730.0 3.7557e-08
11750.0 3.7302e-08
11770.0 3.7035e-08
11790.0 3.6765e-08
11810.0 3.6504e-08
11830.0 3.6246e-08
11850.0 3.5978e-08
11870.0 3.5723e-08
11890.0 3.5482e-08
11910.0 3.5242e-08
11930.0 3.5009e-08
11950.0 3.4794e-08
11970.0 3.4589e-08
11990.0 3.4387e-08
12010.0 3.4203e-08
12030.0 3.4036e-08
12050.0 3.3876e-08
12070.0 3.3725e-08
12090.0 3.3596e-08
12110.0 3.3475e-08
12130.0 3.3361e-08
12150.0 3.3259e-08
12170.0 3.3166e-08
12190.0 3.3074e-08
12210.0 3.2986e-08
12230.0 3.2902e-08
12250.0 3.2816e-08
12270.0 3.2723e-08
12290.0 3.2626e-08
12310.0 3.2523e-08
12330.0 3.2404e-08
12350.0 3.2273e-08
12370.0 3.2133e-08
12390.0 3.1976e-08
12410.0 3.1794e-08
12430.0 3.1607e-08
12450.0 3.1407e-08
12470.0 3.1187e-08
12490.0 3.0953e-08
12510.0 3.0718e-08
12530.0 3.0467e-08
12550.0 3.02e-08
12570.0 2.9935e-08
12590.0 2.9668e-08
12610.0 2.9386e-08
12630.0 2.9102e-08
12650.0 2.8834e-08
12670.0 2.8559e-08
12690.0 2.8283e-08
12710.0 2.8021e-08
12730.0 2.7769e-08
12750.0 2.751e-08
12770.0 2.7267e-08
12790.0 2.7042e-08
12810.0 2.6823e-08
12830.0 2.6611e-08
12850.0 2.6422e-08
12870.0 2.6247e-08
12890.0 2.608e-08
12910.0 2.593e-08
12930.0 2.5799e-08
12950.0 2.5678e-08
12970.0 2.5571e-08
12990.0 2.5485e-08
13010.0 2.5414e-08
13030.0 2.5355e-08
13050.0 2.5312e-08
13070.0 2.5283e-08
13090.0 2.5263e-08
13110.0 2.5251e-08
13130.0 2.5246e-08
13150.0 2.5244e-08
13170.0 2.5241e-08
13190.0 2.5234e-08
13210.0 2.5222e-08
13230.0 2.5199e-08
13250.0 2.5164e-08
13270.0 2.5117e-08
13290.0 2.5055e-08
13310.0 2.4974e-08
13330.0 2.4879e-08
13350.0 2.4771e-08
13370.0 2.4643e-08
13390.0 2.4497e-08
13410.0 2.4346e-08
13430.0 2.4179e-08
13450.0 2.3996e-08
13470.0 2.3806e-08
13490.0 2.3612e-08
13510.0 2.3396e-08
13530.0 2.3175e-08
13550.0 2.2955e-08
13570.0 2.2726e-08
13590.0 2.2486e-08
13610.0 2.2249e-08
13630.0 2.2015e-08
13650.0 2.1768e-08
13670.0 2.1521e-08
13690.0 2.1282e-08
13710.0 2.104e-08
13730.0 2.0786e-08
13750.0 2.055e-08
13770.0 2.0319e-08
13790.0 2.0084e-08
13810.0 1.9855e-08
13830.0 1.9642e-08
13850.0 1.9428e-08
13870.0 1.9218e-08
13890.0 1.9021e-08
13910.0 1.8833e-08
13930.0 1.8645e-08
13950.0 1.8466e-08
13970.0 1.8303e-08
13990.0 1.8141e-08
14010.0 1.7984e-08
14030.0 1.7838e-08
14050.0 1.7699e-08
14070.0 1.7559e-08
14090.0 1.7429e-08
14110.0 1.7309e-08
14130.0 1.7192e-08
14150.0 1.7078e-08
14170.0 1.6974e-08
14190.0 1.6876e-08
14210.0 1.6778e-08
14230.0 1.6686e-08
14250.0 1.6599e-08
14270.0 1.6512e-08
14290.0 1.6427e-08
14310.0 1.6347e-08
14330.0 1.6269e-08
14350.0 1.6189e-08
14370.0 1.6113e-08
14390.0 1.604e-08
14410.0 1.5965e-08
14430.0 1.5891e-08
14450.0 1.5819e-08
14470.0 1.5749e-08
14490.0 1.5675e-08
14510.0 1.5604e-08
14530.0 1.5536e-08
14550.0 1.5465e-08
14570.0 1.5393e-08
14590.0 1.5324e-08
14610.0 1.5253e-08
14630.0 1.5179e-08
14650.0 1.5106e-08
14670.0 1.5034e-08
14690.0 1.4959e-08
14710.0 1.4882e-08
14730.0 1.4808e-08
14750.0 1.4731e-08
14770.0 1.4652e-08
14790.0 1.4573e-08
14810.0 1.4495e-08
14830.0 1.441e-08
14850.0 1.4326e-08
14870.0 1.4243e-08
14890.0 1.4159e-08
14910.0 1.4072e-08
14930.0 1.399e-08
14950.0 1.3913e-08
14970.0 1.3836e-08
14990.0 1.3767e-08
15010.0 1.3705e-08
15030.0 1.365e-08
15050.0 1.3598e-08
15070.0 1.3554e-08
15090.0 1.3514e-08
15110.0 1.3474e-08
15130.0 1.3437e-08
15150.0 1.3402e-08
15170.0 1.3366e-08
15190.0 1.333e-08
15210.0 1.3295e-08
15230.0 1.3261e-08
15250.0 1.3225e-08
15270.0 1.3189e-08
15290.0 1.3155e-08
15310.0 1.312e-08
15330.0 1.3084e-08
15350.0 1.305e-08
15370.0 1.3016e-08
15390.0 1.298e-08
15410.0 1.2945e-08
15430.0 1.2911e-08
15450.0 1.2876e-08
15470.0 1.284e-08
15490.0 1.2807e-08
15510.0 1.2773e-08
15530.0 1.2738e-08
15550.0 1.2703e-08
15570.0 1.267e-08
15590.0 1.2635e-08
15610.0 1.26e-08
15630.0 1.2566e-08
15650.0 1.2532e-08
15670.0 1.2497e-08
15690.0 1.2463e-08
15710.0 1.243e-08
15730.0 1.2396e-08
15750.0 1.2362e-08
15770.0 1.2329e-08
15790.0 1.2295e-08
15810.0 1.226e-08
15830.0 1.2227e-08
15850.0 1.2194e-08
15870.0 1.216e-08
15890.0 1.2126e-08
15910.0 1.2094e-08
15930.0 1.2061e-08
15950.0 1.2026e-08
15970.0 1.1993e-08
15990.0 1.1961e-08
16010.0 1.1927e-08
16030.0 1.1893e-08
16050.0 1.1861e-08
16070.0 1.1828e-08
16090.0 1.1795e-08
16110.0 1.1762e-08
16130.0 1.173e-08
16150.0 1.1696e-08
16170.0 1.1663e-08
16190.0 1.1631e-08
16210.0 1.1599e-08
16230.0 1.1565e-08
16250.0 1.1533e-08
16270.0 1.1502e-08
16290.0 1.1469e-08
16310.0 1.1436e-08
16330.0 1.1405e-08
16350.0 1.1372e-08
16370.0 1.1339e-08
16390.0 1.1307e-08
16410.0 1.1276e-08
16430.0 1.1243e-08
16450.0 1.1211e-08
16470.0 1.118e-08
16490.0 1.1147e-08
16510.0 1.1115e-08
16530.0 1.1083e-08
16550.0 1.1052e-08
16570.0 1.1019e-08
16590.0 1.0987e-08
16610.0 1.0956e-08
16630.0 1.0924e-08
16650.0 1.0892e-08
16670.0 1.0861e-08
16690.0 1.083e-08
16710.0 1.0797e-08
16730.0 1.0766e-08
16750.0 1.0735e-08
16770.0 1.0703e-08
16790.0 1.0671e-08
16810.0 1.064e-08
16830.0 1.0609e-08
16850.0 1.0577e-08
16870.0 1.0546e-08
16890.0 1.0515e-08
16910.0 1.0484e-08
16930.0 1.0451e-08
16950.0 1.0421e-08
16970.0 1.039e-08
16990.0 1.0358e-08
17010.0 1.0327e-08
17030.0 1.0296e-08
17050.0 1.0265e-08
17070.0 1.0233e-08
17090.0 1.0203e-08
17110.0 1.0172e-08
17130.0 1.0139e-08
17150.0 1.0108e-08
17170.0 1.0078e-08
17190.0 1.0046e-08
17210.0 1.0015e-08
17230.0 9.9849e-09
17250.0 9.9539e-09
17270.0 9.9218e-09
17290.0 9.8909e-09
17310.0 9.8605e-09
17330.0 9.8289e-09
17350.0 9.7971e-09
17370.0 9.7671e-09
17390.0 9.7362e-09
17410.0 9.7045e-09
17430.0 9.6738e-09
17450.0 9.6437e-09
17470.0 9.6115e-09
17490.0 9.58e-09
17510.0 9.5497e-09
17530.0 9.5187e-09
17550.0 9.4869e-09
17570.0 9.4564e-09
17590.0 9.4261e-09
17610.0 9.3944e-09
17630.0 9.3631e-09
17650.0 9.3328e-09
17670.0 9.3017e-09
17690.0 9.2692e-09
17710.0 9.2389e-09
17730.0 9.2083e-09
17750.0 9.1767e-09
17770.0 9.1455e-09
17790.0 9.1155e-09
17810.0 9.084e-09
17830.0 9.0522e-09
17850.0 9.0215e-09
17870.0 8.9908e-09
17890.0 8.9588e-09
17910.0 8.9273e-09
17930.0 8.8972e-09
17950.0 8.8659e-09
17970.0 8.8342e-09
17990.0 8.8037e-09
18010.0 8.773e-09
18030.0 8.7406e-09
18050.0 8.7093e-09
18070.0 8.6788e-09
18090.0 8.6472e-09
18110.0 8.6152e-09
18130.0 8.5848e-09
18150.0 8.5539e-09
18170.0 8.522e-09
18190.0 8.4907e-09
18210.0 8.4603e-09
18230.0 8.4282e-09
18250.0 8.396e-09
18270.0 8.3654e-09
18290.0 8.3343e-09
18310.0 8.3022e-09
18330.0 8.271e-09
18350.0 8.2405e-09
18370.0 8.2085e-09
18390.0 8.1765e-09
18410.0 8.1457e-09
18430.0 8.1144e-09
18450.0 8.0817e-09
18470.0 8.0504e-09
18490.0 8.0197e-09
18510.0 7.9877e-09
18530.0 7.9558e-09
18550.0 7.9252e-09
18570.0 7.8935e-09
18590.0 7.8609e-09
18610.0 7.8295e-09
18630.0 7.7984e-09
18650.0 7.7662e-09
18670.0 7.7339e-09
18690.0 7.7032e-09
18710.0 7.6716e-09
18730.0 7.6392e-09
18750.0 7.6078e-09
18770.0 7.5769e-09
18790.0 7.5438e-09
18810.0 7.5117e-09
18830.0 7.4806e-09
18850.0 7.4487e-09
18870.0 7.4161e-09
18890.0 7.3848e-09
18910.0 7.3536e-09
18930.0 7.321e-09
18950.0 7.2889e-09
18970.0 7.2577e-09
18990.0 7.2256e-09
19010.0 7.1922e-09
19030.0 7.161e-09
19050.0 7.1295e-09
19070.0 7.0969e-09
19090.0 7.0648e-09
19110.0 7.0338e-09
19130.0 7.0012e-09
19150.0 6.9684e-09
19170.0 6.9367e-09
19190.0 6.905e-09
19210.0 6.8719e-09
19230.0 6.8395e-09
19250.0 6.8084e-09
19270.0 6.7759e-09
19290.0 6.7432e-09
19310.0 6.7117e-09
19330.0 6.6799e-09
19350.0 6.6463e-09
19370.0 6.6141e-09
19390.0 6.5825e-09
19410.0 6.5499e-09
19430.0 6.5169e-09
19450.0 6.4854e-09
19470.0 6.4534e-09
19490.0 6.4203e-09
19510.0 6.3881e-09
19530.0 6.3565e-09
19550.0 6.3234e-09
19570.0 6.2901e-09
19590.0 6.2585e-09
19610.0 6.2262e-09
19630.0 6.1931e-09
19650.0 6.1609e-09
19670.0 6.1294e-09
19690.0 6.0961e-09
19710.0 6.0632e-09
19730.0 6.0314e-09
19750.0 5.9989e-09
19770.0 5.9652e-09
19790.0 5.933e-09
19810.0 5.9012e-09
19830.0 5.8682e-09
19850.0 5.8355e-09
19870.0 5.8042e-09
19890.0 5.772e-09
19910.0 5.7397e-09
19930.0 5.7098e-09
19950.0 5.6816e-09
19970.0 5.6546e-09
19990.0 5.6307e-09
20010.0 5.611e-09
20030.0 5.5939e-09
20050.0 5.5798e-09
20070.0 5.5688e-09
20090.0 5.56e-09
20110.0 5.5522e-09
20130.0 5.5456e-09
20150.0 5.5397e-09
20170.0 5.5338e-09
20190.0 5.5276e-09
20210.0 5.5216e-09
20230.0 5.5152e-09
20250.0 5.5082e-09
20270.0 5.5009e-09
20290.0 5.4934e-09
20310.0 5.4852e-09
20330.0 5.4763e-09
20350.0 5.4675e-09
20370.0 5.4582e-09
20390.0 5.4481e-09
20410.0 5.4379e-09
20430.0 5.4276e-09
20450.0 5.4166e-09
20470.0 5.4053e-09
20490.0 5.3943e-09
20510.0 5.3832e-09
20530.0 5.3718e-09
20550.0 5.3608e-09
20570.0 5.3503e-09
20590.0 5.3397e-09
20610.0 5.3292e-09
20630.0 5.3194e-09
20650.0 5.3097e-09
20670.0 5.2997e-09
20690.0 5.2901e-09
20710.0 5.2807e-09
20730.0 5.2707e-09
20750.0 5.2604e-09
20770.0 5.2502e-09
20790.0 5.2391e-09
20810.0 5.227e-09
20830.0 5.2145e-09
20850.0 5.2013e-09
20870.0 5.1865e-09
20890.0 5.1707e-09
20910.0 5.1549e-09
20930.0 5.1378e-09
20950.0 5.1195e-09
20970.0 5.1012e-09
20990.0 5.0826e-09
21010.0 5.0626e-09
21030.0 5.0427e-09
21050.0 5.0233e-09
21070.0 5.0035e-09
21090.0 4.983e-09
21110.0 4.9638e-09
21130.0 4.945e-09
21150.0 4.9256e-09
21170.0 4.9068e-09
21190.0 4.8888e-09
21210.0 4.8702e-09
21230.0 4.8513e-09
21250.0 4.8333e-09
21270.0 4.8152e-09
21290.0 4.7962e-09
21310.0 4.7771e-09
21330.0 4.7586e-09
21350.0 4.739e-09
21370.0 4.7187e-09
21390.0 4.697e-09
21410.0 4.675e-09
21430.0 4.651e-09
21450.0 4.6272e-09
21470.0 4.6036e-09
21490.0 4.5788e-09
21510.0 4.5531e-09
21530.0 4.5281e-09
21550.0 4.5026e-09
21570.0 4.4757e-09
21590.0 4.4491e-09
21610.0 4.4231e-09
21630.0 4.3961e-09
21650.0 4.3682e-09
21670.0 4.3422e-09
21690.0 4.3157e-09
21710.0 4.2885e-09
21730.0 4.2619e-09
21750.0 4.2363e-09
21770.0 4.2091e-09
21790.0 4.1822e-09
21810.0 4.1562e-09
21830.0 4.1301e-09
21850.0 4.103e-09
21870.0 4.0766e-09
21890.0 4.0511e-09
21910.0 4.0246e-09
21930.0 3.9982e-09
21950.0 3.9728e-09
21970.0 3.9472e-09
21990.0 3.9208e-09
22010.0 3.8959e-09
22030.0 3.8719e-09
22050.0 3.8477e-09
22070.0 3.8245e-09
22090.0 3.8038e-09
22110.0 3.7834e-09
22130.0 3.7634e-09
22150.0 3.7449e-09
22170.0 3.7275e-09
22190.0 3.7102e-09
22210.0 3.6939e-09
22230.0 3.6793e-09
22250.0 3.665e-09
22270.0 3.6511e-09
22290.0 3.6382e-09
22310.0 3.626e-09
22330.0 3.6135e-09
22350.0 3.6016e-09
22370.0 3.5902e-09
22390.0 3.5787e-09
22410.0 3.5669e-09
22430.0 3.5557e-09
22450.0 3.5444e-09
22470.0 3.5326e-09
22490.0 3.5208e-09
22510.0 3.5093e-09
22530.0 3.4972e-09
22550.0 3.4848e-09
22570.0 3.4729e-09
22590.0 3.4609e-09
22610.0 3.4486e-09
