#lamb flux
1010.0 2.1972e-07
1030.0 2.4736e-07
1050.0 2.7727e-07
1070.0 3.1111e-07
1090.0 3.5033e-07
1110.0 3.9079e-07
1130.0 4.3185e-07
1150.0 4.7526e-07
1170.0 5.206e-07
1190.0 5.6446e-07
1210.0 6.0977e-07
1230.0 6.5754e-07
1250.0 7.0552e-07
1270.0 7.5358e-07
1290.0 8.0547e-07
1310.0 8.5889e-07
1330.0 9.1202e-07
1350.0 9.672e-07
1370.0 1.0254e-06
1390.0 1.0838e-06
1410.0 1.1423e-06
1430.0 1.204e-06
1450.0 1.2668e-06
1470.0 1.3289e-06
1490.0 1.3922e-06
1510.0 1.4588e-06
1530.0 1.5231e-06
1550.0 1.5868e-06
1570.0 1.6522e-06
1590.0 1.7173e-06
1610.0 1.7795e-06
1630.0 1.8423e-06
1650.0 1.9053e-06
1670.0 1.9653e-06
1690.0 2.023e-06
1710.0 2.0808e-06
1730.0 2.1369e-06
1750.0 2.1875e-06
1770.0 2.2371e-06
1790.0 2.2851e-06
1810.0 2.3286e-06
1830.0 2.3683e-06
1850.0 2.408e-06
1870.0 2.4432e-06
1890.0 2.4735e-06
1910.0 2.5017e-06
1930.0 2.5279e-06
1950.0 2.5485e-06
1970.0 2.5654e-06
1990.0 2.5809e-06
2010.0 2.5924e-06
2030.0 2.5989e-06
2050.0 2.6035e-06
2070.0 2.606e-06
2090.0 2.6024e-06
2110.0 2.5953e-06
2130.0 2.586e-06
2150.0 2.5723e-06
2170.0 2.5534e-06
2190.0 2.5325e-06
2210.0 2.5083e-06
2230.0 2.4791e-06
2250.0 2.4464e-06
2270.0 2.412e-06
2290.0 2.3733e-06
2310.0 2.3304e-06
2330.0 2.2857e-06
2350.0 2.2386e-06
2370.0 2.1878e-06
2390.0 2.135e-06
2410.0 2.0809e-06
2430.0 2.0233e-06
2450.0 1.9622e-06
2470.0 1.8983e-06
2490.0 1.8311e-06
2510.0 1.7607e-06
2530.0 1.6911e-06
2550.0 1.6277e-06
2570.0 1.5778e-06
2590.0 1.5487e-06
2610.0 1.555e-06
2630.0 1.601e-06
2650.0 1.6789e-06
2670.0 1.7881e-06
2690.0 1.9201e-06
2710.0 2.0444e-06
2730.0 2.1453e-06
2750.0 2.2228e-06
2770.0 2.2567e-06
2790.0 2.2429e-06
2810.0 2.1899e-06
2830.0 2.1009e-06
2850.0 1.9822e-06
2870.0 1.8444e-06
2890.0 1.6917e-06
2910.0 1.5302e-06
2930.0 1.3671e-06
2950.0 1.1994e-06
2970.0 1.0292e-06
2990.0 8.6227e-07
3010.0 1.5695e-06
3030.0 1.1935e-06
3050.0 8.181e-07
3070.0 4.5337e-07
3090.0 3.4142e-07
3110.0 3.4142e-07
3130.0 3.4142e-07
3150.0 3.4142e-07
3170.0 3.4142e-07
3190.0 3.4142e-07
3210.0 1.4358e-06
3230.0 6.6999e-06
3250.0 1.3379e-05
3270.0 1.4547e-05
3290.0 1.799e-05
3310.0 1.5161e-05
3330.0 1.5613e-05
3350.0 1.7272e-05
3370.0 1.9546e-05
3390.0 2.2167e-05
3410.0 2.4961e-05
3430.0 2.8365e-05
3450.0 3.1959e-05
3470.0 3.5748e-05
3490.0 3.8569e-05
3510.0 3.9993e-05
3530.0 4.2291e-05
3550.0 4.3418e-05
3570.0 4.2287e-05
3590.0 4.4573e-05
3610.0 4.2623e-05
3630.0 5.2215e-05
3650.0 5.9129e-05
3670.0 6.3436e-05
3690.0 5.8436e-05
3710.0 4.6021e-05
3730.0 4.1736e-05
3750.0 3.6429e-05
3770.0 3.2349e-05
3790.0 2.8332e-05
3810.0 2.7642e-05
3830.0 3.4018e-05
3850.0 1.3445e-05
3870.0 3.1387e-05
3890.0 3.8182e-05
3910.0 4.0569e-05
3930.0 4.8268e-05
3950.0 5.2517e-05
3970.0 6.2464e-05
3990.0 7.7242e-05
4010.0 5.4087e-05
4030.0 4.3606e-05
4050.0 3.6153e-05
4070.0 3.9067e-05
4090.0 6.0845e-05
4110.0 5.6305e-05
4130.0 5.9532e-05
4150.0 5.5691e-05
4170.0 5.3328e-05
4190.0 4.9134e-05
4210.0 7.3055e-05
4230.0 7.6052e-05
4250.0 8.1778e-05
4270.0 7.6324e-05
4290.0 7.8743e-05
4310.0 8.986e-05
4330.0 0.00010506
4350.0 0.0001029
4370.0 9.8553e-05
4390.0 8.6051e-05
4410.0 7.9887e-05
4430.0 6.3919e-05
4450.0 5.5163e-05
4470.0 6.2404e-05
4490.0 7.5493e-05
4510.0 7.8441e-05
4530.0 8.3088e-05
4550.0 8.8703e-05
4570.0 0.00012251
4590.0 0.00017808
4610.0 0.0002118
4630.0 0.00021131
4650.0 0.00021351
4670.0 0.00023838
4690.0 0.00026204
4710.0 0.00021461
4730.0 0.00016291
4750.0 0.00013072
4770.0 0.00011836
4790.0 0.00011417
4810.0 0.00010928
4830.0 0.00012008
4850.0 0.00013759
4870.0 0.00015164
4890.0 0.00015558
4910.0 0.00014017
4930.0 0.00014755
4950.0 0.00018426
4970.0 0.00022543
4990.0 0.00023606
5010.0 0.00021656
5030.0 0.00017862
5050.0 0.00013452
5070.0 0.00010643
5090.0 9.5496e-05
5110.0 9.3219e-05
5130.0 9.5512e-05
5150.0 9.5352e-05
5170.0 9.3384e-05
5190.0 8.9125e-05
5210.0 8.7739e-05
5230.0 9.7469e-05
5250.0 0.00010988
5270.0 0.00013139
5290.0 0.00015372
5310.0 0.00016062
5330.0 0.00017144
5350.0 0.00019177
5370.0 0.00020693
5390.0 0.00019093
5410.0 0.00017001
5430.0 0.0001642
5450.0 0.00019036
5470.0 0.00024041
5490.0 0.00028851
5510.0 0.00031233
5530.0 0.00031112
5550.0 0.00029807
5570.0 0.00029046
5590.0 0.00028397
5610.0 0.00028485
5630.0 0.00028552
5650.0 0.00028691
5670.0 0.00028979
5690.0 0.00027374
5710.0 0.00023326
5730.0 0.00020651
5750.0 0.00019291
5770.0 0.0001979
5790.0 0.00020871
5810.0 0.00022248
5830.0 0.00023059
5850.0 0.00022309
5870.0 0.00020973
5890.0 0.00019824
5910.0 0.00020481
5930.0 0.00022055
5950.0 0.00021313
5970.0 0.00019304
5990.0 0.0001656
6010.0 0.00013531
6030.0 0.0001204
6050.0 0.00012675
6070.0 0.00013802
6090.0 0.00013801
6110.0 0.00012226
6130.0 0.00012099
6150.0 0.00013809
6170.0 0.00016188
6190.0 0.00018342
6210.0 0.00018672
6230.0 0.00018152
6250.0 0.00016669
6270.0 0.00014195
6290.0 0.00011826
6310.0 0.0001031
6330.0 9.9046e-05
6350.0 0.00010234
6370.0 0.00010306
6390.0 0.00011093
6410.0 0.00013462
6430.0 0.00017056
6450.0 0.00020104
6470.0 0.00021183
6490.0 0.00020768
6510.0 0.0002115
6530.0 0.00022059
6550.0 0.00021864
6570.0 0.00022588
6590.0 0.00022888
6610.0 0.00023196
6630.0 0.00023288
6650.0 0.00022285
6670.0 0.00020514
6690.0 0.00018249
6710.0 0.00016742
6730.0 0.00016785
6750.0 0.0001762
6770.0 0.00018271
6790.0 0.00018713
6810.0 0.00018931
6830.0 0.00018539
6850.0 0.00017889
6870.0 0.00016814
6890.0 0.00016359
6910.0 0.00015548
6930.0 0.00015872
6950.0 0.00017051
6970.0 0.00017657
6990.0 0.00018174
7010.0 0.00017857
7030.0 0.00016557
7050.0 0.00014569
7070.0 0.0001252
7090.0 0.00011192
7110.0 0.00011005
7130.0 0.00011253
7150.0 0.00010487
7170.0 9.7997e-05
7190.0 0.00010275
7210.0 0.00011542
7230.0 0.00013394
7250.0 0.00014553
7270.0 0.00014695
7290.0 0.00013522
7310.0 0.00012292
7330.0 0.00011553
7350.0 0.00011508
7370.0 0.00011787
7390.0 0.00012264
7410.0 0.00013372
7430.0 0.00015509
7450.0 0.00017801
7470.0 0.00019276
7490.0 0.00019389
7510.0 0.0001832
7530.0 0.00015235
7550.0 0.00013309
7570.0 0.00011504
7590.0 0.00010588
7610.0 0.00010987
7630.0 0.0001217
7650.0 0.00013618
7670.0 0.00014941
7690.0 0.00015757
7710.0 0.00016692
7730.0 0.0001771
7750.0 0.00018599
7770.0 0.00018413
7790.0 0.00018374
7810.0 0.0001875
7830.0 0.00019015
7850.0 0.00018446
7870.0 0.00017639
7890.0 0.00017223
7910.0 0.00016273
7930.0 0.00015938
7950.0 0.00015127
7970.0 0.00014779
7990.0 0.00014374
8010.0 0.00014859
8030.0 0.00014914
8050.0 0.0001505
8070.0 0.00014844
8090.0 0.00014729
8110.0 0.00014068
8130.0 0.00013951
8150.0 0.00013649
8170.0 0.00013226
8190.0 0.00012949
8210.0 0.0001295
8230.0 0.00012469
8250.0 0.00011972
8270.0 0.00010601
8290.0 8.5134e-05
8310.0 6.3181e-05
8330.0 4.7707e-05
8350.0 4.3604e-05
8370.0 5.1668e-05
8390.0 6.262e-05
8410.0 6.8459e-05
8430.0 7.1465e-05
8450.0 7.4743e-05
8470.0 7.8925e-05
8490.0 8.7768e-05
8510.0 9.9615e-05
8530.0 0.00011529
8550.0 0.00013178
8570.0 0.00014624
8590.0 0.00015752
8610.0 0.00016488
8630.0 0.00016707
8650.0 0.00016616
8670.0 0.00016575
8690.0 0.00017224
8710.0 0.00018013
8730.0 0.00018625
8750.0 0.00018452
8770.0 0.00018595
8790.0 0.00018395
8810.0 0.00017157
8830.0 0.00016322
8850.0 0.00015152
8870.0 0.00014202
8890.0 0.00013767
8910.0 0.00013851
8930.0 0.00013087
8950.0 0.00012339
8970.0 0.0001202
8990.0 0.00011827
9010.0 0.0001138
9030.0 0.0001112
9050.0 0.00011038
9070.0 0.00011
9090.0 0.00010966
9110.0 0.00010933
9130.0 0.00010899
9150.0 0.00010865
9170.0 0.00010824
9190.0 0.00010787
9210.0 0.00010813
9230.0 0.00010758
9250.0 0.00010714
9270.0 0.00010673
9290.0 0.00010636
9310.0 0.000106
9330.0 0.00010565
9350.0 0.00010532
9370.0 0.00010499
9390.0 0.00010466
9410.0 0.00010433
9430.0 0.000104
9450.0 0.00010356
9470.0 0.00010316
9490.0 0.00010293
9510.0 0.00010265
9530.0 0.00010235
9550.0 0.00010204
9570.0 0.00010173
9590.0 0.00010141
9610.0 0.00010109
9630.0 0.00010078
9650.0 0.00010046
9670.0 0.00010013
9690.0 9.9815e-05
9710.0 9.9496e-05
9730.0 9.9175e-05
9750.0 9.8854e-05
9770.0 9.8538e-05
9790.0 9.8218e-05
9810.0 9.7895e-05
9830.0 9.7576e-05
9850.0 9.7257e-05
9870.0 9.6932e-05
9890.0 9.6608e-05
9910.0 9.6284e-05
9930.0 9.5946e-05
9950.0 9.4835e-05
9970.0 9.4739e-05
9990.0 9.4598e-05
10010.0 9.4427e-05
10030.0 9.4191e-05
10050.0 9.39e-05
10070.0 9.3594e-05
10090.0 9.3294e-05
10110.0 9.2945e-05
10130.0 9.2623e-05
10150.0 9.2288e-05
10170.0 9.1926e-05
10190.0 9.1538e-05
10210.0 9.1182e-05
10230.0 9.0834e-05
10250.0 9.0454e-05
10270.0 9.0076e-05
10290.0 8.9721e-05
10310.0 8.9336e-05
10330.0 8.8923e-05
10350.0 8.8541e-05
10370.0 8.8158e-05
10390.0 8.7741e-05
10410.0 8.7324e-05
10430.0 8.6936e-05
10450.0 8.6515e-05
10470.0 8.6074e-05
10490.0 8.5653e-05
10510.0 8.523e-05
10530.0 8.4754e-05
10550.0 8.4294e-05
10570.0 8.3856e-05
10590.0 8.3386e-05
10610.0 8.2895e-05
10630.0 8.2431e-05
10650.0 8.1955e-05
10670.0 8.1434e-05
10690.0 8.0926e-05
10710.0 8.0431e-05
10730.0 7.9901e-05
10750.0 7.9338e-05
10770.0 7.8821e-05
10790.0 7.8285e-05
10810.0 7.7712e-05
10830.0 7.7147e-05
10850.0 7.66e-05
10870.0 7.599e-05
10890.0 7.5367e-05
10910.0 7.476e-05
10930.0 7.412e-05
10950.0 7.3414e-05
10970.0 7.2689e-05
10990.0 7.1957e-05
11010.0 7.2159e-05
11030.0 7.1245e-05
11050.0 7.0361e-05
11070.0 6.9466e-05
11090.0 6.8519e-05
11110.0 6.7656e-05
11130.0 6.6835e-05
11150.0 6.6006e-05
11170.0 6.5202e-05
11190.0 6.4466e-05
11210.0 6.3722e-05
11230.0 6.2966e-05
11250.0 6.2251e-05
11270.0 6.1556e-05
11290.0 6.0829e-05
11310.0 6.0105e-05
11330.0 5.9432e-05
11350.0 5.8737e-05
11370.0 5.8019e-05
11390.0 5.7321e-05
11410.0 5.6624e-05
11430.0 5.586e-05
11450.0 5.5089e-05
11470.0 5.4317e-05
11490.0 5.3493e-05
11510.0 5.26e-05
11530.0 5.1713e-05
11550.0 5.0798e-05
11570.0 4.9804e-05
11590.0 4.8788e-05
11610.0 4.778e-05
11630.0 4.6709e-05
11650.0 4.5592e-05
11670.0 4.4522e-05
11690.0 4.3453e-05
11710.0 4.2352e-05
11730.0 4.128e-05
11750.0 4.0275e-05
11770.0 3.9256e-05
11790.0 3.8256e-05
11810.0 3.7327e-05
11830.0 3.6437e-05
11850.0 3.5538e-05
11870.0 3.4707e-05
11890.0 3.3942e-05
11910.0 3.3188e-05
11930.0 3.2459e-05
11950.0 3.1791e-05
11970.0 3.1146e-05
11990.0 3.0502e-05
12010.0 2.9904e-05
12030.0 2.9345e-05
12050.0 2.8796e-05
12070.0 2.8264e-05
12090.0 2.7796e-05
12110.0 2.7352e-05
12130.0 2.6932e-05
12150.0 2.656e-05
12170.0 2.6239e-05
12190.0 2.5944e-05
12210.0 2.5701e-05
12230.0 2.5517e-05
12250.0 2.5381e-05
12270.0 2.5296e-05
12290.0 2.527e-05
12310.0 2.5296e-05
12330.0 2.538e-05
12350.0 2.552e-05
12370.0 2.5708e-05
12390.0 2.5949e-05
12410.0 2.6258e-05
12430.0 2.6598e-05
12450.0 2.6974e-05
12470.0 2.74e-05
12490.0 2.7856e-05
12510.0 2.8312e-05
12530.0 2.8794e-05
12550.0 2.9291e-05
12570.0 2.9763e-05
12590.0 3.0209e-05
12610.0 3.0643e-05
12630.0 3.1031e-05
12650.0 3.1344e-05
12670.0 3.1608e-05
12690.0 3.1808e-05
12710.0 3.1927e-05
12730.0 3.1974e-05
12750.0 3.1948e-05
12770.0 3.1845e-05
12790.0 3.1679e-05
12810.0 3.1448e-05
12830.0 3.1157e-05
12850.0 3.0833e-05
12870.0 3.0479e-05
12890.0 3.0088e-05
12910.0 2.9687e-05
12930.0 2.929e-05
12950.0 2.888e-05
12970.0 2.8467e-05
12990.0 2.8081e-05
13010.0 2.7706e-05
13030.0 2.7331e-05
13050.0 2.6973e-05
13070.0 2.6637e-05
13090.0 2.6297e-05
13110.0 2.5959e-05
13130.0 2.5637e-05
13150.0 2.5317e-05
13170.0 2.4986e-05
13190.0 2.4667e-05
13210.0 2.4363e-05
13230.0 2.4057e-05
13250.0 2.3761e-05
13270.0 2.3492e-05
13290.0 2.324e-05
13310.0 2.3008e-05
13330.0 2.2814e-05
13350.0 2.2658e-05
13370.0 2.2536e-05
13390.0 2.2453e-05
13410.0 2.2408e-05
13430.0 2.2393e-05
13450.0 2.2404e-05
13470.0 2.2428e-05
13490.0 2.2456e-05
13510.0 2.2481e-05
13530.0 2.2488e-05
13550.0 2.2466e-05
13570.0 2.2409e-05
13590.0 2.2309e-05
13610.0 2.2166e-05
13630.0 2.1985e-05
13650.0 2.1754e-05
13670.0 2.1486e-05
13690.0 2.1196e-05
13710.0 2.088e-05
13730.0 2.0534e-05
13750.0 2.0202e-05
13770.0 1.9875e-05
13790.0 1.955e-05
13810.0 1.9244e-05
13830.0 1.8971e-05
13850.0 1.8715e-05
13870.0 1.8481e-05
13890.0 1.8282e-05
13910.0 1.8109e-05
13930.0 1.7955e-05
13950.0 1.7825e-05
13970.0 1.7718e-05
13990.0 1.7623e-05
14010.0 1.754e-05
14030.0 1.7467e-05
14050.0 1.7399e-05
14070.0 1.7331e-05
14090.0 1.7263e-05
14110.0 1.7192e-05
14130.0 1.7114e-05
14150.0 1.7026e-05
14170.0 1.6932e-05
14190.0 1.6829e-05
14210.0 1.6713e-05
14230.0 1.6591e-05
14250.0 1.6465e-05
14270.0 1.6331e-05
14290.0 1.6194e-05
14310.0 1.6065e-05
14330.0 1.5941e-05
14350.0 1.5821e-05
14370.0 1.5715e-05
14390.0 1.5624e-05
14410.0 1.5543e-05
14430.0 1.5477e-05
14450.0 1.5427e-05
14470.0 1.539e-05
14490.0 1.5364e-05
14510.0 1.535e-05
14530.0 1.5344e-05
14550.0 1.5347e-05
14570.0 1.5357e-05
14590.0 1.5374e-05
14610.0 1.5399e-05
14630.0 1.5435e-05
14650.0 1.548e-05
14670.0 1.5535e-05
14690.0 1.5606e-05
14710.0 1.5693e-05
14730.0 1.5789e-05
14750.0 1.5903e-05
14770.0 1.6038e-05
14790.0 1.6186e-05
14810.0 1.6348e-05
14830.0 1.6542e-05
14850.0 1.6754e-05
14870.0 1.698e-05
14890.0 1.7228e-05
14910.0 1.75e-05
14930.0 1.7769e-05
14950.0 1.8028e-05
14970.0 1.8281e-05
14990.0 1.8501e-05
15010.0 1.8676e-05
15030.0 1.8812e-05
15050.0 1.8908e-05
15070.0 1.8962e-05
15090.0 1.899e-05
15110.0 1.8999e-05
15130.0 1.8996e-05
15150.0 1.8987e-05
15170.0 1.8975e-05
15190.0 1.896e-05
15210.0 1.8946e-05
15230.0 1.8931e-05
15250.0 1.8916e-05
15270.0 1.8901e-05
15290.0 1.8887e-05
15310.0 1.8872e-05
15330.0 1.8858e-05
15350.0 1.8844e-05
15370.0 1.8829e-05
15390.0 1.8815e-05
15410.0 1.8801e-05
15430.0 1.8787e-05
15450.0 1.8773e-05
15470.0 1.8759e-05
15490.0 1.8745e-05
15510.0 1.8732e-05
15530.0 1.8718e-05
15550.0 1.8704e-05
15570.0 1.8691e-05
15590.0 1.8677e-05
15610.0 1.8663e-05
15630.0 1.865e-05
15650.0 1.8636e-05
15670.0 1.8622e-05
15690.0 1.8609e-05
15710.0 1.8596e-05
15730.0 1.8582e-05
15750.0 1.8568e-05
15770.0 1.8555e-05
15790.0 1.8542e-05
15810.0 1.8528e-05
15830.0 1.8514e-05
15850.0 1.8501e-05
15870.0 1.8487e-05
15890.0 1.8473e-05
15910.0 1.846e-05
15930.0 1.8446e-05
15950.0 1.8432e-05
15970.0 1.8418e-05
15990.0 1.8405e-05
16010.0 1.8391e-05
16030.0 1.8376e-05
16050.0 1.8362e-05
16070.0 1.8348e-05
16090.0 1.8334e-05
16110.0 1.832e-05
16130.0 1.8305e-05
16150.0 1.8291e-05
16170.0 1.8276e-05
16190.0 1.8261e-05
16210.0 1.8246e-05
16230.0 1.8231e-05
16250.0 1.8216e-05
16270.0 1.8201e-05
16290.0 1.8186e-05
16310.0 1.817e-05
16330.0 1.8155e-05
16350.0 1.8139e-05
16370.0 1.8123e-05
16390.0 1.8107e-05
16410.0 1.809e-05
16430.0 1.8074e-05
16450.0 1.8057e-05
16470.0 1.8041e-05
16490.0 1.8024e-05
16510.0 1.8006e-05
16530.0 1.7989e-05
16550.0 1.7971e-05
16570.0 1.7953e-05
16590.0 1.7935e-05
16610.0 1.7917e-05
16630.0 1.7899e-05
16650.0 1.788e-05
16670.0 1.7861e-05
16690.0 1.7842e-05
16710.0 1.7822e-05
16730.0 1.7803e-05
16750.0 1.7783e-05
16770.0 1.7763e-05
16790.0 1.7742e-05
16810.0 1.7722e-05
16830.0 1.7701e-05
16850.0 1.7679e-05
16870.0 1.7658e-05
16890.0 1.7636e-05
16910.0 1.7614e-05
16930.0 1.7591e-05
16950.0 1.7569e-05
16970.0 1.7546e-05
16990.0 1.7522e-05
17010.0 1.7499e-05
17030.0 1.7475e-05
17050.0 1.7451e-05
17070.0 1.7426e-05
17090.0 1.7401e-05
17110.0 1.7376e-05
17130.0 1.735e-05
17150.0 1.7324e-05
17170.0 1.7298e-05
17190.0 1.7272e-05
17210.0 1.7245e-05
17230.0 1.7218e-05
17250.0 1.719e-05
17270.0 1.7162e-05
17290.0 1.7134e-05
17310.0 1.7105e-05
17330.0 1.7076e-05
17350.0 1.7047e-05
17370.0 1.7017e-05
17390.0 1.6987e-05
17410.0 1.6957e-05
17430.0 1.6926e-05
17450.0 1.6895e-05
17470.0 1.6863e-05
17490.0 1.6831e-05
17510.0 1.6799e-05
17530.0 1.6767e-05
17550.0 1.6734e-05
17570.0 1.67e-05
17590.0 1.6667e-05
17610.0 1.6633e-05
17630.0 1.6598e-05
17650.0 1.6564e-05
17670.0 1.6528e-05
17690.0 1.6493e-05
17710.0 1.6457e-05
17730.0 1.6421e-05
17750.0 1.6384e-05
17770.0 1.6347e-05
17790.0 1.631e-05
17810.0 1.6273e-05
17830.0 1.6234e-05
17850.0 1.6196e-05
17870.0 1.6158e-05
17890.0 1.6119e-05
17910.0 1.6079e-05
17930.0 1.604e-05
17950.0 1.6e-05
17970.0 1.5959e-05
17990.0 1.5919e-05
18010.0 1.5878e-05
18030.0 1.5837e-05
18050.0 1.5795e-05
18070.0 1.5754e-05
18090.0 1.5711e-05
18110.0 1.5669e-05
18130.0 1.5626e-05
18150.0 1.5583e-05
18170.0 1.554e-05
18190.0 1.5496e-05
18210.0 1.5453e-05
18230.0 1.5408e-05
18250.0 1.5364e-05
18270.0 1.5319e-05
18290.0 1.5274e-05
18310.0 1.5229e-05
18330.0 1.5184e-05
18350.0 1.5138e-05
18370.0 1.5093e-05
18390.0 1.5046e-05
18410.0 1.5e-05
18430.0 1.4954e-05
18450.0 1.4907e-05
18470.0 1.486e-05
18490.0 1.4813e-05
18510.0 1.4766e-05
18530.0 1.4718e-05
18550.0 1.4671e-05
18570.0 1.4623e-05
18590.0 1.4575e-05
18610.0 1.4527e-05
18630.0 1.4479e-05
18650.0 1.443e-05
18670.0 1.4382e-05
18690.0 1.4333e-05
18710.0 1.4285e-05
18730.0 1.4236e-05
18750.0 1.4187e-05
18770.0 1.4138e-05
18790.0 1.4088e-05
18810.0 1.4039e-05
18830.0 1.399e-05
18850.0 1.394e-05
18870.0 1.3891e-05
18890.0 1.3841e-05
18910.0 1.3792e-05
18930.0 1.3742e-05
18950.0 1.3692e-05
18970.0 1.3643e-05
18990.0 1.3593e-05
19010.0 1.3543e-05
19030.0 1.3493e-05
19050.0 1.3444e-05
19070.0 1.3394e-05
19090.0 1.3344e-05
19110.0 1.3295e-05
19130.0 1.3245e-05
19150.0 1.3195e-05
19170.0 1.3145e-05
19190.0 1.3096e-05
19210.0 1.3046e-05
19230.0 1.2996e-05
19250.0 1.2947e-05
19270.0 1.2897e-05
19290.0 1.2848e-05
19310.0 1.2798e-05
19330.0 1.2749e-05
19350.0 1.27e-05
19370.0 1.265e-05
19390.0 1.2602e-05
19410.0 1.2552e-05
19430.0 1.2503e-05
19450.0 1.2455e-05
19470.0 1.2406e-05
19490.0 1.2358e-05
19510.0 1.2309e-05
19530.0 1.2261e-05
19550.0 1.2213e-05
19570.0 1.2164e-05
19590.0 1.2117e-05
19610.0 1.2069e-05
19630.0 1.2021e-05
19650.0 1.1974e-05
19670.0 1.1926e-05
19690.0 1.1879e-05
19710.0 1.1832e-05
19730.0 1.1785e-05
19750.0 1.1738e-05
19770.0 1.1691e-05
19790.0 1.1645e-05
19810.0 1.1599e-05
19830.0 1.1552e-05
19850.0 1.1506e-05
19870.0 1.1458e-05
19890.0 1.1409e-05
19910.0 1.1354e-05
19930.0 1.1294e-05
19950.0 1.1224e-05
19970.0 1.1139e-05
19990.0 1.1035e-05
20010.0 1.0916e-05
20030.0 1.0773e-05
20050.0 1.061e-05
20070.0 1.0434e-05
20090.0 1.0249e-05
20110.0 1.0046e-05
20130.0 9.846e-06
20150.0 9.6514e-06
20170.0 9.455e-06
20190.0 9.2604e-06
20210.0 9.0779e-06
20230.0 8.9013e-06
20250.0 8.7253e-06
20270.0 8.5594e-06
20290.0 8.4038e-06
20310.0 8.2511e-06
20330.0 8.1013e-06
20350.0 7.966e-06
20370.0 7.8353e-06
20390.0 7.7074e-06
20410.0 7.5876e-06
20430.0 7.4766e-06
20450.0 7.3668e-06
20470.0 7.2635e-06
20490.0 7.1692e-06
20510.0 7.0808e-06
20530.0 6.9968e-06
20550.0 6.9213e-06
20570.0 6.8543e-06
20590.0 6.7924e-06
20610.0 6.7376e-06
20630.0 6.6908e-06
20650.0 6.6502e-06
20670.0 6.6156e-06
20690.0 6.5881e-06
20710.0 6.5662e-06
20730.0 6.5497e-06
20750.0 6.5383e-06
20770.0 6.5304e-06
20790.0 6.5264e-06
20810.0 6.5258e-06
20830.0 6.5268e-06
20850.0 6.5288e-06
20870.0 6.5326e-06
20890.0 6.5363e-06
20910.0 6.5379e-06
20930.0 6.5384e-06
20950.0 6.5371e-06
20970.0 6.5324e-06
20990.0 6.5241e-06
21010.0 6.5126e-06
21030.0 6.4965e-06
21050.0 6.476e-06
21070.0 6.451e-06
21090.0 6.4208e-06
21110.0 6.3866e-06
21130.0 6.3483e-06
21150.0 6.3052e-06
21170.0 6.2583e-06
21190.0 6.2091e-06
21210.0 6.1555e-06
21230.0 6.0982e-06
21250.0 6.0403e-06
21270.0 5.9806e-06
21290.0 5.9179e-06
21310.0 5.8545e-06
21330.0 5.7928e-06
21350.0 5.7293e-06
21370.0 5.6656e-06
21390.0 5.6043e-06
21410.0 5.5446e-06
21430.0 5.4843e-06
21450.0 5.428e-06
21470.0 5.3759e-06
21490.0 5.326e-06
21510.0 5.2797e-06
21530.0 5.2389e-06
21550.0 5.2024e-06
21570.0 5.1701e-06
21590.0 5.1436e-06
21610.0 5.1224e-06
21630.0 5.1065e-06
21650.0 5.0962e-06
21670.0 5.0908e-06
21690.0 5.0902e-06
21710.0 5.0948e-06
21730.0 5.1032e-06
21750.0 5.1143e-06
21770.0 5.1302e-06
21790.0 5.1485e-06
21810.0 5.1675e-06
21830.0 5.188e-06
21850.0 5.2103e-06
21870.0 5.2314e-06
21890.0 5.2508e-06
21910.0 5.2704e-06
21930.0 5.2882e-06
21950.0 5.3028e-06
21970.0 5.3155e-06
21990.0 5.3266e-06
22010.0 5.3336e-06
22030.0 5.3375e-06
22050.0 5.3391e-06
22070.0 5.3377e-06
22090.0 5.3331e-06
22110.0 5.3261e-06
22130.0 5.3166e-06
22150.0 5.3047e-06
22170.0 5.2906e-06
22190.0 5.2743e-06
22210.0 5.2559e-06
22230.0 5.2359e-06
22250.0 5.2138e-06
22270.0 5.1897e-06
22290.0 5.164e-06
22310.0 5.1367e-06
22330.0 5.1064e-06
22350.0 5.0741e-06
22370.0 5.0402e-06
22390.0 5.0033e-06
22410.0 4.9628e-06
22430.0 4.9209e-06
22450.0 4.8765e-06
22470.0 4.8278e-06
22490.0 4.7766e-06
22510.0 4.7241e-06
22530.0 4.6671e-06
22550.0 4.6064e-06
22570.0 4.5457e-06
22590.0 4.4831e-06
22610.0 4.4171e-06
