#lamb flux
1010.0 5.9122e-08
1030.0 6.5924e-08
1050.0 7.3746e-08
1070.0 8.2552e-08
1090.0 9.2555e-08
1110.0 1.0281e-07
1130.0 1.1314e-07
1150.0 1.2395e-07
1170.0 1.3511e-07
1190.0 1.4569e-07
1210.0 1.5641e-07
1230.0 1.6749e-07
1250.0 1.7835e-07
1270.0 1.8889e-07
1290.0 2.0003e-07
1310.0 2.1116e-07
1330.0 2.2183e-07
1350.0 2.3263e-07
1370.0 2.4377e-07
1390.0 2.5463e-07
1410.0 2.6517e-07
1430.0 2.7619e-07
1450.0 2.8721e-07
1470.0 2.9785e-07
1490.0 3.0861e-07
1510.0 3.1997e-07
1530.0 3.3073e-07
1550.0 3.4134e-07
1570.0 3.5232e-07
1590.0 3.633e-07
1610.0 3.7378e-07
1630.0 3.8458e-07
1650.0 3.9566e-07
1670.0 4.0636e-07
1690.0 4.1692e-07
1710.0 4.2786e-07
1730.0 4.3885e-07
1750.0 4.4916e-07
1770.0 4.5975e-07
1790.0 4.7053e-07
1810.0 4.8092e-07
1830.0 4.9108e-07
1850.0 5.0184e-07
1870.0 5.1226e-07
1890.0 5.2226e-07
1910.0 5.324e-07
1930.0 5.4271e-07
1950.0 5.5244e-07
1970.0 5.6195e-07
1990.0 5.7173e-07
2010.0 5.8121e-07
2030.0 5.9016e-07
2050.0 5.9928e-07
2070.0 6.0849e-07
2090.0 6.1689e-07
2110.0 6.2506e-07
2130.0 6.3331e-07
2150.0 6.4111e-07
2170.0 6.4821e-07
2190.0 6.5541e-07
2210.0 6.6236e-07
2230.0 6.6859e-07
2250.0 6.7444e-07
2270.0 6.8036e-07
2290.0 6.856e-07
2310.0 6.9006e-07
2330.0 6.9445e-07
2350.0 6.9858e-07
2370.0 7.0207e-07
2390.0 7.0558e-07
2410.0 7.0984e-07
2430.0 7.1446e-07
2450.0 7.1997e-07
2470.0 7.2765e-07
2490.0 7.3798e-07
2510.0 7.4994e-07
2530.0 7.6589e-07
2550.0 7.8893e-07
2570.0 8.216e-07
2590.0 8.6864e-07
2610.0 9.4447e-07
2630.0 1.0542e-06
2650.0 1.1943e-06
2670.0 1.3692e-06
2690.0 1.5742e-06
2710.0 1.7797e-06
2730.0 1.9689e-06
2750.0 2.1421e-06
2770.0 2.278e-06
2790.0 2.371e-06
2810.0 2.4319e-06
2830.0 2.4677e-06
2850.0 2.4779e-06
2870.0 2.4744e-06
2890.0 2.4637e-06
2910.0 2.4477e-06
2930.0 2.4281e-06
2950.0 2.4084e-06
2970.0 2.3891e-06
2990.0 2.3694e-06
3010.0 6.677e-05
3030.0 6.6252e-05
3050.0 6.5744e-05
3070.0 6.5201e-05
3090.0 6.4634e-05
3110.0 6.3979e-05
3130.0 6.316e-05
3150.0 6.2128e-05
3170.0 6.0783e-05
3190.0 5.9154e-05
3210.0 5.7349e-05
3230.0 5.5454e-05
3250.0 5.363e-05
3270.0 5.2291e-05
3290.0 5.1402e-05
3310.0 5.13e-05
3330.0 5.1824e-05
3350.0 5.2909e-05
3370.0 5.4565e-05
3390.0 5.6721e-05
3410.0 5.9113e-05
3430.0 6.1844e-05
3450.0 6.502e-05
3470.0 6.8517e-05
3490.0 7.2257e-05
3510.0 7.6503e-05
3530.0 8.1114e-05
3550.0 8.5979e-05
3570.0 9.1294e-05
3590.0 9.7292e-05
3610.0 0.00010389
3630.0 0.00011065
3650.0 0.00011782
3670.0 0.00012442
3690.0 0.00012944
3710.0 0.00013215
3730.0 0.00013126
3750.0 0.00012667
3770.0 0.00012427
3790.0 0.00011709
3810.0 9.513e-05
3830.0 8.642e-05
3850.0 0.00010067
3870.0 8.2343e-05
3890.0 7.8117e-05
3910.0 0.00010369
3930.0 0.00013347
3950.0 0.00014436
3970.0 0.00016426
3990.0 0.00014863
4010.0 0.00021615
4030.0 0.00020218
4050.0 0.00018277
4070.0 0.00019505
4090.0 0.00018718
4110.0 0.0002
4130.0 0.00023613
4150.0 0.00028141
4170.0 0.00024292
4190.0 0.00022487
4210.0 0.00024029
4230.0 0.0002902
4250.0 0.00033162
4270.0 0.00035269
4290.0 0.00033256
4310.0 0.0003164
4330.0 0.00032918
4350.0 0.00040873
4370.0 0.00048364
4390.0 0.00040989
4410.0 0.00027366
4430.0 0.00021173
4450.0 0.00018749
4470.0 0.00015767
4490.0 0.00021078
4510.0 0.00032661
4530.0 0.00038417
4550.0 0.00039836
4570.0 0.00040281
4590.0 0.00045871
4610.0 0.00075007
4630.0 0.00099619
4650.0 0.00096209
4670.0 0.0008721
4690.0 0.00092351
4710.0 0.0009796
4730.0 0.00080059
4750.0 0.00052825
4770.0 0.00039734
4790.0 0.00042027
4810.0 0.0004166
4830.0 0.00040422
4850.0 0.00044961
4870.0 0.00059269
4890.0 0.00069049
4910.0 0.00054833
4930.0 0.00050656
4950.0 0.00057602
4970.0 0.00077825
4990.0 0.0010387
5010.0 0.0011624
5030.0 0.00093175
5050.0 0.00056746
5070.0 0.00039844
5090.0 0.00032793
5110.0 0.00032326
5130.0 0.00036639
5150.0 0.00036459
5170.0 0.00035285
5190.0 0.00033032
5210.0 0.00033917
5230.0 0.00038998
5250.0 0.00044031
5270.0 0.00044367
5290.0 0.00049699
5310.0 0.00061576
5330.0 0.00063985
5350.0 0.0006331
5370.0 0.00070688
5390.0 0.00083877
5410.0 0.00074956
5430.0 0.00059239
5450.0 0.00057279
5470.0 0.00066079
5490.0 0.00084439
5510.0 0.00106
5530.0 0.0012112
5550.0 0.001118
5570.0 0.00099985
5590.0 0.0008462
5610.0 0.00082898
5630.0 0.00087233
5650.0 0.00084364
5670.0 0.00079631
5690.0 0.00067798
5710.0 0.00067407
5730.0 0.00064321
5750.0 0.00037906
5770.0 0.0003002
5790.0 0.00035787
5810.0 0.00041035
5830.0 0.00055321
5850.0 0.00067307
5870.0 0.00070523
5890.0 0.00067087
5910.0 0.00064502
5930.0 0.0006349
5950.0 0.00066106
5970.0 0.00077755
5990.0 0.00067397
6010.0 0.00053465
6030.0 0.00043738
6050.0 0.00038385
6070.0 0.00042765
6090.0 0.00048752
6110.0 0.0005134
6130.0 0.00047629
6150.0 0.00039896
6170.0 0.00037371
6190.0 0.00046112
6210.0 0.00064407
6230.0 0.00085163
6250.0 0.00088341
6270.0 0.00071838
6290.0 0.00060473
6310.0 0.00046903
6330.0 0.00035452
6350.0 0.0003334
6370.0 0.00035318
6390.0 0.00042571
6410.0 0.00052361
6430.0 0.00062215
6450.0 0.00075187
6470.0 0.00084292
6490.0 0.0010295
6510.0 0.001154
6530.0 0.0011217
6550.0 0.0010297
6570.0 0.00090684
6590.0 0.00087801
6610.0 0.00074722
6630.0 0.00073011
6650.0 0.00068668
6670.0 0.00065202
6690.0 0.0005733
6710.0 0.00053345
6730.0 0.00036239
6750.0 0.00037534
6770.0 0.00045724
6790.0 0.00056868
6810.0 0.0004763
6830.0 0.00048881
6850.0 0.00044435
6870.0 0.00042334
6890.0 0.00038752
6910.0 0.00041334
6930.0 0.0003861
6950.0 0.00043072
6970.0 0.00043604
6990.0 0.00048539
7010.0 0.00049851
7030.0 0.00050822
7050.0 0.00045586
7070.0 0.00041487
7090.0 0.00041189
7110.0 0.00040733
7130.0 0.00044299
7150.0 0.00049163
7170.0 0.0005386
7190.0 0.00055515
7210.0 0.00050893
7230.0 0.0005174
7250.0 0.00057455
7270.0 0.00064914
7290.0 0.00075276
7310.0 0.0007597
7330.0 0.00068483
7350.0 0.00061029
7370.0 0.00050155
7390.0 0.00051787
7410.0 0.00060015
7430.0 0.00066974
7450.0 0.00072196
7470.0 0.00071972
7490.0 0.00070157
7510.0 0.00092374
7530.0 0.00083775
7550.0 0.00073908
7570.0 0.00052948
7590.0 0.00030346
7610.0 0.00024652
7630.0 0.00030381
7650.0 0.00037496
7670.0 0.00051161
7690.0 0.00057909
7710.0 0.00056386
7730.0 0.000564
7750.0 0.00066109
7770.0 0.00066704
7790.0 0.0006256
7810.0 0.00056313
7830.0 0.00057737
7850.0 0.0005782
7870.0 0.00054766
7890.0 0.00045584
7910.0 0.00034112
7930.0 0.00032137
7950.0 0.00028908
7970.0 0.00026192
7990.0 0.00025281
8010.0 0.00025243
8030.0 0.00024614
8050.0 0.00025435
8070.0 0.00026038
8090.0 0.00028324
8110.0 0.00026572
8130.0 0.00020435
8150.0 0.00019569
8170.0 0.00015793
8190.0 0.00014228
8210.0 0.00018461
8230.0 0.00020541
8250.0 0.00015507
8270.0 0.00013541
8290.0 0.00013454
8310.0 9.9301e-05
8330.0 6.2902e-05
8350.0 4.7904e-05
8370.0 3.5636e-05
8390.0 5.5857e-05
8410.0 6.9147e-05
8430.0 8.5535e-05
8450.0 9.5322e-05
8470.0 0.00012247
8490.0 0.00011143
8510.0 0.00010246
8530.0 8.8873e-05
8550.0 0.00014331
8570.0 0.00019509
8590.0 0.00018498
8610.0 0.00024079
8630.0 0.00027232
8650.0 0.00023533
8670.0 0.00026336
8690.0 0.00030606
8710.0 0.00027819
8730.0 0.00027928
8750.0 0.00024249
8770.0 0.00022693
8790.0 0.0002354
8810.0 0.00023574
8830.0 0.00017082
8850.0 0.00012104
8870.0 9.737e-05
8890.0 0.00012064
8910.0 0.00015137
8930.0 0.00017741
8950.0 0.00020156
8970.0 0.00020035
8990.0 0.00017668
9010.0 0.00014451
9030.0 0.00013309
9050.0 0.00013595
9070.0 0.00013849
9090.0 0.00014046
9110.0 0.0001426
9130.0 0.00014423
9150.0 0.0001455
9170.0 0.00014685
9190.0 0.0001483
9210.0 0.00014982
9230.0 0.00015142
9250.0 0.00015308
9270.0 0.0001548
9290.0 0.00015656
9310.0 0.00015837
9330.0 0.00016022
9350.0 0.00016213
9370.0 0.00016407
9390.0 0.00016606
9410.0 0.00016809
9430.0 0.00017018
9450.0 0.0001723
9470.0 0.00017446
9490.0 0.00017667
9510.0 0.00017893
9530.0 0.00018121
9550.0 0.00018356
9570.0 0.00018594
9590.0 0.00018836
9610.0 0.00019082
9630.0 0.00019333
9650.0 0.00019588
9670.0 0.00019846
9690.0 0.00020108
9710.0 0.00020374
9730.0 0.00020643
9750.0 0.00020916
9770.0 0.00021194
9790.0 0.00021474
9810.0 0.00021757
9830.0 0.00022044
9850.0 0.00022334
9870.0 0.00022626
9890.0 0.00022921
9910.0 0.00023219
9930.0 0.0002352
9950.0 0.00023822
9970.0 0.00024127
9990.0 0.00024435
10010.0 0.00022913
10030.0 0.00023194
10050.0 0.00023476
10070.0 0.00023757
10090.0 0.00024041
10110.0 0.00024328
10130.0 0.00024614
10150.0 0.000249
10170.0 0.00025187
10190.0 0.00025473
10210.0 0.00025759
10230.0 0.00026045
10250.0 0.0002633
10270.0 0.00026614
10290.0 0.00026897
10310.0 0.00027179
10330.0 0.00027459
10350.0 0.00027738
10370.0 0.00028014
10390.0 0.00028289
10410.0 0.00028562
10430.0 0.00028831
10450.0 0.00029098
10470.0 0.00029362
10490.0 0.00029622
10510.0 0.00029879
10530.0 0.00030133
10550.0 0.00030383
10570.0 0.00030628
10590.0 0.0003087
10610.0 0.00031107
10630.0 0.00031339
10650.0 0.00031566
10670.0 0.00031789
10690.0 0.00032006
10710.0 0.00032218
10730.0 0.00032425
10750.0 0.00032626
10770.0 0.0003282
10790.0 0.00033009
10810.0 0.00033191
10830.0 0.00033365
10850.0 0.0003353
10870.0 0.00033682
10890.0 0.00033812
10910.0 0.00033911
10930.0 0.00033962
10950.0 0.00033936
10970.0 0.00033816
10990.0 0.00033592
11010.0 0.00033613
11030.0 0.00033102
11050.0 0.00032476
11070.0 0.00031724
11090.0 0.00030814
11110.0 0.00029869
11130.0 0.00028882
11150.0 0.00027816
11170.0 0.0002672
11190.0 0.00025662
11210.0 0.00024576
11230.0 0.00023473
11250.0 0.0002243
11270.0 0.00021441
11290.0 0.00020462
11310.0 0.00019546
11330.0 0.00018747
11350.0 0.00017999
11370.0 0.0001731
11390.0 0.00016715
11410.0 0.0001619
11430.0 0.00015696
11450.0 0.0001526
11470.0 0.00014869
11490.0 0.00014492
11510.0 0.00014114
11530.0 0.0001375
11550.0 0.0001338
11570.0 0.00012979
11590.0 0.00012562
11610.0 0.00012138
11630.0 0.00011681
11650.0 0.00011198
11670.0 0.00010727
11690.0 0.00010254
11710.0 9.7731e-05
11730.0 9.3113e-05
11750.0 8.8866e-05
11770.0 8.4732e-05
11790.0 8.0873e-05
11810.0 7.7471e-05
11830.0 7.4417e-05
11850.0 7.1586e-05
11870.0 6.9174e-05
11890.0 6.7114e-05
11910.0 6.5248e-05
11930.0 6.3573e-05
11950.0 6.2098e-05
11970.0 6.0708e-05
11990.0 5.9329e-05
12010.0 5.7992e-05
12030.0 5.6662e-05
12050.0 5.5267e-05
12070.0 5.3804e-05
12090.0 5.2378e-05
12110.0 5.0921e-05
12130.0 4.9441e-05
12150.0 4.8034e-05
12170.0 4.6739e-05
12190.0 4.5512e-05
12210.0 4.4469e-05
12230.0 4.3657e-05
12250.0 4.3071e-05
12270.0 4.2749e-05
12290.0 4.2711e-05
12310.0 4.2935e-05
12330.0 4.3462e-05
12350.0 4.4262e-05
12370.0 4.5263e-05
12390.0 4.6488e-05
12410.0 4.7988e-05
12430.0 4.9527e-05
12450.0 5.1129e-05
12470.0 5.2839e-05
12490.0 5.4541e-05
12510.0 5.6104e-05
12530.0 5.7635e-05
12550.0 5.9078e-05
12570.0 6.0296e-05
12590.0 6.1309e-05
12610.0 6.2162e-05
12630.0 6.2767e-05
12650.0 6.3084e-05
12670.0 6.3188e-05
12690.0 6.3054e-05
12710.0 6.2682e-05
12730.0 6.2104e-05
12750.0 6.1308e-05
12770.0 6.0331e-05
12790.0 5.9219e-05
12810.0 5.7955e-05
12830.0 5.6546e-05
12850.0 5.5093e-05
12870.0 5.3578e-05
12890.0 5.1962e-05
12910.0 5.0322e-05
12930.0 4.8698e-05
12950.0 4.7004e-05
12970.0 4.5271e-05
12990.0 4.3606e-05
13010.0 4.1943e-05
13030.0 4.0245e-05
13050.0 3.8588e-05
13070.0 3.701e-05
13090.0 3.5411e-05
13110.0 3.3844e-05
13130.0 3.2379e-05
13150.0 3.0978e-05
13170.0 2.9598e-05
13190.0 2.8356e-05
13210.0 2.7251e-05
13230.0 2.6234e-05
13250.0 2.5348e-05
13270.0 2.4631e-05
13290.0 2.4054e-05
13310.0 2.3624e-05
13330.0 2.3369e-05
13350.0 2.3274e-05
13370.0 2.334e-05
13390.0 2.3572e-05
13410.0 2.3921e-05
13430.0 2.4401e-05
13450.0 2.5009e-05
13470.0 2.569e-05
13490.0 2.6412e-05
13510.0 2.7233e-05
13530.0 2.8064e-05
13550.0 2.8855e-05
13570.0 2.9636e-05
13590.0 3.0397e-05
13610.0 3.1069e-05
13630.0 3.1651e-05
13650.0 3.2179e-05
13670.0 3.261e-05
13690.0 3.293e-05
13710.0 3.3164e-05
13730.0 3.3313e-05
13750.0 3.3356e-05
13770.0 3.3316e-05
13790.0 3.3198e-05
13810.0 3.3004e-05
13830.0 3.2751e-05
13850.0 3.2434e-05
13870.0 3.2055e-05
13890.0 3.1637e-05
13910.0 3.1181e-05
13930.0 3.067e-05
13950.0 3.0128e-05
13970.0 2.9584e-05
13990.0 2.9005e-05
14010.0 2.8404e-05
14030.0 2.7814e-05
14050.0 2.723e-05
14070.0 2.6625e-05
14090.0 2.6054e-05
14110.0 2.5524e-05
14130.0 2.5017e-05
14150.0 2.4546e-05
14170.0 2.4147e-05
14190.0 2.3806e-05
14210.0 2.3521e-05
14230.0 2.3313e-05
14250.0 2.3181e-05
14270.0 2.3121e-05
14290.0 2.3144e-05
14310.0 2.324e-05
14330.0 2.3406e-05
14350.0 2.3649e-05
14370.0 2.3951e-05
14390.0 2.4294e-05
14410.0 2.4702e-05
14430.0 2.5156e-05
14450.0 2.5626e-05
14470.0 2.6124e-05
14490.0 2.6668e-05
14510.0 2.7207e-05
14530.0 2.7742e-05
14550.0 2.8303e-05
14570.0 2.8877e-05
14590.0 2.9437e-05
14610.0 3.002e-05
14630.0 3.0644e-05
14650.0 3.1273e-05
14670.0 3.1922e-05
14690.0 3.2631e-05
14710.0 3.34e-05
14730.0 3.4175e-05
14750.0 3.5022e-05
14770.0 3.5952e-05
14790.0 3.692e-05
14810.0 3.792e-05
14830.0 3.904e-05
14850.0 4.0189e-05
14870.0 4.1327e-05
14890.0 4.2494e-05
14910.0 4.3676e-05
14930.0 4.4768e-05
14950.0 4.5757e-05
14970.0 4.6666e-05
14990.0 4.7412e-05
15010.0 4.7976e-05
15030.0 4.8391e-05
15050.0 4.8666e-05
15070.0 4.8809e-05
15090.0 4.8871e-05
15110.0 4.8876e-05
15130.0 4.8846e-05
15150.0 4.8803e-05
15170.0 4.8746e-05
15190.0 4.8684e-05
15210.0 4.8626e-05
15230.0 4.8568e-05
15250.0 4.8506e-05
15270.0 4.8446e-05
15290.0 4.8393e-05
15310.0 4.8337e-05
15330.0 4.8279e-05
15350.0 4.8227e-05
15370.0 4.8175e-05
15390.0 4.8117e-05
15410.0 4.8064e-05
15430.0 4.8014e-05
15450.0 4.7962e-05
15470.0 4.7907e-05
15490.0 4.7858e-05
15510.0 4.7809e-05
15530.0 4.7756e-05
15550.0 4.7706e-05
15570.0 4.7659e-05
15590.0 4.7607e-05
15610.0 4.7553e-05
15630.0 4.7505e-05
15650.0 4.7456e-05
15670.0 4.7403e-05
15690.0 4.7353e-05
15710.0 4.7306e-05
15730.0 4.7254e-05
15750.0 4.7201e-05
15770.0 4.7152e-05
15790.0 4.7101e-05
15810.0 4.7044e-05
15830.0 4.6992e-05
15850.0 4.6942e-05
15870.0 4.6887e-05
15890.0 4.6831e-05
15910.0 4.678e-05
15930.0 4.6725e-05
15950.0 4.6665e-05
15970.0 4.6609e-05
15990.0 4.6554e-05
16010.0 4.6494e-05
16030.0 4.6432e-05
16050.0 4.6376e-05
16070.0 4.6316e-05
16090.0 4.6252e-05
16110.0 4.6191e-05
16130.0 4.6131e-05
16150.0 4.6062e-05
16170.0 4.5995e-05
16190.0 4.5931e-05
16210.0 4.5864e-05
16230.0 4.5792e-05
16250.0 4.5724e-05
16270.0 4.5657e-05
16290.0 4.5582e-05
16310.0 4.5508e-05
16330.0 4.5437e-05
16350.0 4.5361e-05
16370.0 4.5279e-05
16390.0 4.5203e-05
16410.0 4.5126e-05
16430.0 4.5044e-05
16450.0 4.4961e-05
16470.0 4.4882e-05
16490.0 4.4797e-05
16510.0 4.4708e-05
16530.0 4.4622e-05
16550.0 4.4536e-05
16570.0 4.4442e-05
16590.0 4.4349e-05
16610.0 4.4261e-05
16630.0 4.4166e-05
16650.0 4.4069e-05
16670.0 4.3975e-05
16690.0 4.3879e-05
16710.0 4.3774e-05
16730.0 4.3673e-05
16750.0 4.3573e-05
16770.0 4.3468e-05
16790.0 4.3359e-05
16810.0 4.3256e-05
16830.0 4.3149e-05
16850.0 4.3037e-05
16870.0 4.2926e-05
16890.0 4.2817e-05
16910.0 4.2701e-05
16930.0 4.2581e-05
16950.0 4.2467e-05
16970.0 4.235e-05
16990.0 4.2228e-05
17010.0 4.2107e-05
17030.0 4.1989e-05
17050.0 4.1863e-05
17070.0 4.1736e-05
17090.0 4.1612e-05
17110.0 4.1485e-05
17130.0 4.135e-05
17150.0 4.122e-05
17170.0 4.1092e-05
17190.0 4.0957e-05
17210.0 4.0821e-05
17230.0 4.0689e-05
17250.0 4.0551e-05
17270.0 4.0409e-05
17290.0 4.027e-05
17310.0 4.0131e-05
17330.0 3.9987e-05
17350.0 3.984e-05
17370.0 3.97e-05
17390.0 3.9554e-05
17410.0 3.9405e-05
17430.0 3.9258e-05
17450.0 3.9112e-05
17470.0 3.8957e-05
17490.0 3.8803e-05
17510.0 3.8654e-05
17530.0 3.85e-05
17550.0 3.8342e-05
17570.0 3.8188e-05
17590.0 3.8034e-05
17610.0 3.7874e-05
17630.0 3.7714e-05
17650.0 3.7557e-05
17670.0 3.7396e-05
17690.0 3.7229e-05
17710.0 3.7069e-05
17730.0 3.6908e-05
17750.0 3.6741e-05
17770.0 3.6576e-05
17790.0 3.6415e-05
17810.0 3.6246e-05
17830.0 3.6075e-05
17850.0 3.5909e-05
17870.0 3.5742e-05
17890.0 3.5568e-05
17910.0 3.5397e-05
17930.0 3.523e-05
17950.0 3.5058e-05
17970.0 3.4883e-05
17990.0 3.4713e-05
18010.0 3.4542e-05
18030.0 3.4363e-05
18050.0 3.4188e-05
18070.0 3.4016e-05
18090.0 3.3839e-05
18110.0 3.366e-05
18130.0 3.3487e-05
18150.0 3.3312e-05
18170.0 3.3132e-05
18190.0 3.2954e-05
18210.0 3.278e-05
18230.0 3.2599e-05
18250.0 3.2416e-05
18270.0 3.224e-05
18290.0 3.2062e-05
18310.0 3.188e-05
18330.0 3.1701e-05
18350.0 3.1525e-05
18370.0 3.1342e-05
18390.0 3.116e-05
18410.0 3.0982e-05
18430.0 3.0802e-05
18450.0 3.0616e-05
18470.0 3.0436e-05
18490.0 3.0258e-05
18510.0 3.0076e-05
18530.0 2.9893e-05
18550.0 2.9716e-05
18570.0 2.9535e-05
18590.0 2.935e-05
18610.0 2.917e-05
18630.0 2.8991e-05
18650.0 2.8808e-05
18670.0 2.8624e-05
18690.0 2.8448e-05
18710.0 2.8267e-05
18730.0 2.8084e-05
18750.0 2.7905e-05
18770.0 2.7728e-05
18790.0 2.7543e-05
18810.0 2.7362e-05
18830.0 2.7185e-05
18850.0 2.7006e-05
18870.0 2.6824e-05
18890.0 2.6647e-05
18910.0 2.6471e-05
18930.0 2.6289e-05
18950.0 2.6111e-05
18970.0 2.5936e-05
18990.0 2.5758e-05
19010.0 2.5575e-05
19030.0 2.5401e-05
19050.0 2.5227e-05
19070.0 2.5048e-05
19090.0 2.4872e-05
19110.0 2.4701e-05
19130.0 2.4524e-05
19150.0 2.4347e-05
19170.0 2.4175e-05
19190.0 2.4002e-05
19210.0 2.3825e-05
19230.0 2.3652e-05
19250.0 2.3483e-05
19270.0 2.331e-05
19290.0 2.3137e-05
19310.0 2.2969e-05
19330.0 2.28e-05
19350.0 2.2625e-05
19370.0 2.2456e-05
19390.0 2.229e-05
19410.0 2.212e-05
19430.0 2.1949e-05
19450.0 2.1785e-05
19470.0 2.162e-05
19490.0 2.1451e-05
19510.0 2.1286e-05
19530.0 2.1124e-05
19550.0 2.0956e-05
19570.0 2.0789e-05
19590.0 2.0629e-05
19610.0 2.0467e-05
19630.0 2.0302e-05
19650.0 2.0141e-05
19670.0 1.9984e-05
19690.0 1.9821e-05
19710.0 1.9659e-05
19730.0 1.9503e-05
19750.0 1.9344e-05
19770.0 1.9182e-05
19790.0 1.9026e-05
19810.0 1.8872e-05
19830.0 1.8713e-05
19850.0 1.8556e-05
19870.0 1.8402e-05
19890.0 1.8241e-05
19910.0 1.8071e-05
19930.0 1.7896e-05
19950.0 1.7707e-05
19970.0 1.7491e-05
19990.0 1.7247e-05
20010.0 1.7022e-05
20030.0 1.6717e-05
20050.0 1.6376e-05
20070.0 1.6018e-05
20090.0 1.5643e-05
20110.0 1.5232e-05
20130.0 1.4824e-05
20150.0 1.4426e-05
20170.0 1.4022e-05
20190.0 1.3619e-05
20210.0 1.3241e-05
20230.0 1.2876e-05
20250.0 1.2514e-05
20270.0 1.2179e-05
20290.0 1.1872e-05
20310.0 1.1582e-05
20330.0 1.1309e-05
20350.0 1.108e-05
20370.0 1.0874e-05
20390.0 1.0692e-05
20410.0 1.0542e-05
20430.0 1.0422e-05
20450.0 1.0325e-05
20470.0 1.0255e-05
20490.0 1.0213e-05
20510.0 1.0193e-05
20530.0 1.0196e-05
20550.0 1.0219e-05
20570.0 1.0258e-05
20590.0 1.0316e-05
20610.0 1.0389e-05
20630.0 1.0471e-05
20650.0 1.0564e-05
20670.0 1.0673e-05
20690.0 1.0784e-05
20710.0 1.0899e-05
20730.0 1.1023e-05
20750.0 1.1151e-05
20770.0 1.1276e-05
20790.0 1.1405e-05
20810.0 1.1541e-05
20830.0 1.1674e-05
20850.0 1.1804e-05
20870.0 1.1943e-05
20890.0 1.2083e-05
20910.0 1.2215e-05
20930.0 1.2352e-05
20950.0 1.2492e-05
20970.0 1.2628e-05
20990.0 1.2761e-05
21010.0 1.2902e-05
21030.0 1.3039e-05
21050.0 1.317e-05
21070.0 1.3301e-05
21090.0 1.3434e-05
21110.0 1.3555e-05
21130.0 1.3671e-05
21150.0 1.3786e-05
21170.0 1.3892e-05
21190.0 1.3986e-05
21210.0 1.4075e-05
21230.0 1.4156e-05
21250.0 1.4221e-05
21270.0 1.4272e-05
21290.0 1.4312e-05
21310.0 1.4334e-05
21330.0 1.4337e-05
21350.0 1.4323e-05
21370.0 1.4287e-05
21390.0 1.423e-05
21410.0 1.4151e-05
21430.0 1.4044e-05
21450.0 1.3914e-05
21470.0 1.3765e-05
21490.0 1.3589e-05
21510.0 1.3388e-05
21530.0 1.3175e-05
21550.0 1.2944e-05
21570.0 1.269e-05
21590.0 1.2431e-05
21610.0 1.2171e-05
21630.0 1.1902e-05
21650.0 1.1629e-05
21670.0 1.1379e-05
21690.0 1.1137e-05
21710.0 1.0905e-05
21730.0 1.0697e-05
21750.0 1.0518e-05
21770.0 1.0355e-05
21790.0 1.0223e-05
21810.0 1.0124e-05
21830.0 1.0055e-05
21850.0 1.0017e-05
21870.0 1.001e-05
21890.0 1.0032e-05
21910.0 1.0084e-05
21930.0 1.0164e-05
21950.0 1.0265e-05
21970.0 1.039e-05
21990.0 1.0544e-05
22010.0 1.0708e-05
22030.0 1.0885e-05
22050.0 1.1081e-05
22070.0 1.1288e-05
22090.0 1.1492e-05
22110.0 1.1708e-05
22130.0 1.1931e-05
22150.0 1.2148e-05
22170.0 1.236e-05
22190.0 1.2577e-05
22210.0 1.2785e-05
22230.0 1.2973e-05
22250.0 1.3156e-05
22270.0 1.3328e-05
22290.0 1.3478e-05
22310.0 1.361e-05
22330.0 1.3729e-05
22350.0 1.3824e-05
22370.0 1.3895e-05
22390.0 1.3943e-05
22410.0 1.3968e-05
22430.0 1.3965e-05
22450.0 1.3937e-05
22470.0 1.3882e-05
22490.0 1.38e-05
22510.0 1.3695e-05
22530.0 1.3559e-05
22550.0 1.3393e-05
22570.0 1.3207e-05
22590.0 1.2998e-05
22610.0 1.2756e-05
22630.0 1.2494e-05
