#lamb flux
1010.0 8.2899e-07
1030.0 8.7648e-07
1050.0 9.3142e-07
1070.0 9.9337e-07
1090.0 1.0638e-06
1110.0 1.1362e-06
1130.0 1.2094e-06
1150.0 1.2864e-06
1170.0 1.3661e-06
1190.0 1.442e-06
1210.0 1.5194e-06
1230.0 1.5998e-06
1250.0 1.679e-06
1270.0 1.7565e-06
1290.0 1.8388e-06
1310.0 1.9216e-06
1330.0 2.0017e-06
1350.0 2.0832e-06
1370.0 2.168e-06
1390.0 2.2513e-06
1410.0 2.3331e-06
1430.0 2.419e-06
1450.0 2.5056e-06
1470.0 2.5902e-06
1490.0 2.6763e-06
1510.0 2.7675e-06
1530.0 2.8549e-06
1550.0 2.9418e-06
1570.0 3.0319e-06
1590.0 3.1225e-06
1610.0 3.2097e-06
1630.0 3.2995e-06
1650.0 3.3916e-06
1670.0 3.4808e-06
1690.0 3.5688e-06
1710.0 3.6594e-06
1730.0 3.75e-06
1750.0 3.8348e-06
1770.0 3.921e-06
1790.0 4.0078e-06
1810.0 4.0906e-06
1830.0 4.1705e-06
1850.0 4.2537e-06
1870.0 4.3329e-06
1890.0 4.4074e-06
1910.0 4.4815e-06
1930.0 4.5553e-06
1950.0 4.6231e-06
1970.0 4.6876e-06
1990.0 4.7528e-06
2010.0 4.8143e-06
2030.0 4.8707e-06
2050.0 4.9273e-06
2070.0 4.9838e-06
2090.0 5.0338e-06
2110.0 5.0819e-06
2130.0 5.1307e-06
2150.0 5.1768e-06
2170.0 5.2186e-06
2190.0 5.2625e-06
2210.0 5.3065e-06
2230.0 5.3474e-06
2250.0 5.3884e-06
2270.0 5.4332e-06
2290.0 5.4767e-06
2310.0 5.5188e-06
2330.0 5.5649e-06
2350.0 5.6137e-06
2370.0 5.662e-06
2390.0 5.714e-06
2410.0 5.7724e-06
2430.0 5.8321e-06
2450.0 5.8943e-06
2470.0 5.9633e-06
2490.0 6.0407e-06
2510.0 6.1272e-06
2530.0 6.2419e-06
2550.0 6.416e-06
2570.0 6.6855e-06
2590.0 7.0945e-06
2610.0 7.7517e-06
2630.0 8.6971e-06
2650.0 9.897e-06
2670.0 1.1376e-05
2690.0 1.3099e-05
2710.0 1.4859e-05
2730.0 1.655e-05
2750.0 1.8203e-05
2770.0 1.9686e-05
2790.0 2.0975e-05
2810.0 2.2164e-05
2830.0 2.3332e-05
2850.0 2.4426e-05
2870.0 2.5531e-05
2890.0 2.6706e-05
2910.0 2.7932e-05
2930.0 2.9174e-05
2950.0 3.0505e-05
2970.0 3.1915e-05
2990.0 3.3347e-05
3010.0 9.3295e-05
3030.0 9.7433e-05
3050.0 0.00010156
3070.0 0.00010533
3090.0 0.00010854
3110.0 0.00011036
3130.0 0.00010978
3150.0 0.00010568
3170.0 9.5834e-05
3190.0 8.0011e-05
3210.0 5.846e-05
3230.0 3.4207e-05
3250.0 6.0202e-05
3270.0 3.1896e-05
3290.0 9.2218e-05
3310.0 2.7057e-05
3330.0 2.6529e-05
3350.0 3.4576e-05
3370.0 4.4086e-05
3390.0 5.4393e-05
3410.0 6.4696e-05
3430.0 7.5535e-05
3450.0 8.6424e-05
3470.0 9.6415e-05
3490.0 0.00010318
3510.0 0.00012707
3530.0 0.00017002
3550.0 0.00016514
3570.0 0.00013285
3590.0 0.00018707
3610.0 0.0001132
3630.0 0.00019596
3650.0 0.00023008
3670.0 0.00029843
3690.0 0.00027636
3710.0 0.0001793
3730.0 0.00023964
3750.0 0.00024663
3770.0 0.00026209
3790.0 0.00024725
3810.0 0.00024331
3830.0 0.00038442
3850.0 0.00046186
3870.0 0.00057429
3890.0 0.0005488
3910.0 0.00048389
3930.0 0.00049502
3950.0 0.00054172
3970.0 0.00063267
3990.0 0.00042484
4010.0 0.00022992
4030.0 0.00039337
4050.0 0.00050227
4070.0 0.00055516
4090.0 0.00041357
4110.0 0.00025661
4130.0 0.000405
4150.0 0.00039899
4170.0 0.00038799
4190.0 0.00036299
4210.0 0.00050084
4230.0 0.00035071
4250.0 0.00039588
4270.0 0.00039382
4290.0 0.00038104
4310.0 0.00048831
4330.0 0.00051702
4350.0 0.00040813
4370.0 0.00033968
4390.0 0.00042816
4410.0 0.0004453
4430.0 0.00032923
4450.0 0.00031192
4470.0 0.00038274
4490.0 0.00028088
4510.0 0.00038058
4530.0 0.00039895
4550.0 0.00049747
4570.0 0.00071948
4590.0 0.00068992
4610.0 0.00048337
4630.0 0.00081189
4650.0 0.0011397
4670.0 0.001068
4690.0 0.00068189
4710.0 0.0007413
4730.0 0.00090832
4750.0 0.00077357
4770.0 0.00058351
4790.0 0.0003837
4810.0 0.00055283
4830.0 0.00065021
4850.0 0.00055903
4870.0 0.00017898
4890.0 0.00062071
4910.0 0.00085734
4930.0 0.00092777
4950.0 0.00092622
4970.0 0.00058252
4990.0 0.00068455
5010.0 0.00082314
5030.0 0.00091473
5050.0 0.00088527
5070.0 0.00062537
5090.0 0.00050445
5110.0 0.0004804
5130.0 0.00044306
5150.0 0.00047839
5170.0 0.00041855
5190.0 0.00051464
5210.0 0.00051925
5230.0 0.00057438
5250.0 0.00070193
5270.0 0.00056859
5290.0 0.00057257
5310.0 0.00086943
5330.0 0.0010095
5350.0 0.00082985
5370.0 0.0007249
5390.0 0.00085194
5410.0 0.0010598
5430.0 0.0011512
5450.0 0.0012146
5470.0 0.0012031
5490.0 0.001196
5510.0 0.0014277
5530.0 0.0014829
5550.0 0.0015868
5570.0 0.0016875
5590.0 0.0016668
5610.0 0.0015595
5630.0 0.0015108
5650.0 0.0015576
5670.0 0.001528
5690.0 0.0012937
5710.0 0.0012749
5730.0 0.0012983
5750.0 0.0013927
5770.0 0.0011937
5790.0 0.0011112
5810.0 0.0011288
5830.0 0.0012092
5850.0 0.0011113
5870.0 0.0011238
5890.0 0.0013446
5910.0 0.0012612
5930.0 0.0010203
5950.0 0.00089738
5970.0 0.00098487
5990.0 0.00090254
6010.0 0.00084098
6030.0 0.00084668
6050.0 0.00077953
6070.0 0.00058149
6090.0 0.00053539
6110.0 0.00070844
6130.0 0.0008135
6150.0 0.00084528
6170.0 0.00081175
6190.0 0.00075544
6210.0 0.00076499
6230.0 0.00093085
6250.0 0.00085986
6270.0 0.00077993
6290.0 0.00071711
6310.0 0.0006643
6330.0 0.00062368
6350.0 0.00054824
6370.0 0.00054865
6390.0 0.00064586
6410.0 0.00080696
6430.0 0.00094197
6450.0 0.00090863
6470.0 0.00089708
6490.0 0.001121
6510.0 0.0013015
6530.0 0.0012303
6550.0 0.0011669
6570.0 0.0011849
6590.0 0.0011602
6610.0 0.0012487
6630.0 0.0011628
6650.0 0.0010049
6670.0 0.00091495
6690.0 0.00090722
6710.0 0.0011138
6730.0 0.0009992
6750.0 0.00081993
6770.0 0.00072703
6790.0 0.0007705
6810.0 0.00088488
6830.0 0.00087504
6850.0 0.0007826
6870.0 0.00081684
6890.0 0.0008118
6910.0 0.00076309
6930.0 0.00086653
6950.0 0.00079751
6970.0 0.00073469
6990.0 0.00072829
7010.0 0.00071932
7030.0 0.00069303
7050.0 0.00067138
7070.0 0.00073834
7090.0 0.00069623
7110.0 0.00059007
7130.0 0.00048825
7150.0 0.00046529
7170.0 0.00061211
7190.0 0.00065846
7210.0 0.00062278
7230.0 0.00064832
7250.0 0.0006117
7270.0 0.00058657
7290.0 0.00064773
7310.0 0.00072638
7330.0 0.00071295
7350.0 0.00066214
7370.0 0.00061485
7390.0 0.00062416
7410.0 0.00072496
7430.0 0.00080764
7450.0 0.0008543
7470.0 0.00084826
7490.0 0.00092263
7510.0 0.00090627
7530.0 0.00085082
7550.0 0.00082635
7570.0 0.00072104
7590.0 0.00070057
7610.0 0.00067627
7630.0 0.00061604
7650.0 0.00066361
7670.0 0.00073006
7690.0 0.00079361
7710.0 0.00090296
7730.0 0.00095241
7750.0 0.00099162
7770.0 0.0010174
7790.0 0.0011135
7810.0 0.0011316
7830.0 0.0010166
7850.0 0.0010231
7870.0 0.00098099
7890.0 0.0010203
7910.0 0.00096441
7930.0 0.00096659
7950.0 0.00081951
7970.0 0.0008305
7990.0 0.00079735
8010.0 0.00084581
8030.0 0.00084169
8050.0 0.00089298
8070.0 0.00085553
8090.0 0.00085915
8110.0 0.00084487
8130.0 0.00084028
8150.0 0.00079318
8170.0 0.00077581
8190.0 0.00077112
8210.0 0.00077822
8230.0 0.00067962
8250.0 0.00062033
8270.0 0.00054795
8290.0 0.00046488
8310.0 0.00041044
8330.0 0.00032772
8350.0 0.00026807
8370.0 0.00026267
8390.0 0.00025517
8410.0 0.00026558
8430.0 0.00033909
8450.0 0.00036756
8470.0 0.00039398
8490.0 0.00046071
8510.0 0.00050123
8530.0 0.00057229
8550.0 0.0006768
8570.0 0.00074372
8590.0 0.00078348
8610.0 0.00086517
8630.0 0.00097735
8650.0 0.00099955
8670.0 0.0010182
8690.0 0.0010594
8710.0 0.00104
8730.0 0.0010117
8750.0 0.00093599
8770.0 0.00093706
8790.0 0.00092488
8810.0 0.00085043
8830.0 0.0008541
8850.0 0.00078843
8870.0 0.0007541
8890.0 0.00067648
8910.0 0.00074839
8930.0 0.00067654
8950.0 0.00067491
8970.0 0.00068652
8990.0 0.00066501
9010.0 0.00068316
9030.0 0.00064945
9050.0 0.00064614
9070.0 0.00064618
9090.0 0.00064609
9110.0 0.00064638
9130.0 0.00064608
9150.0 0.00064546
9170.0 0.00064306
9190.0 0.00063798
9210.0 0.00064778
9230.0 0.00064465
9250.0 0.00064272
9270.0 0.00064102
9290.0 0.00063945
9310.0 0.00063797
9330.0 0.0006365
9350.0 0.00063502
9370.0 0.00063349
9390.0 0.00063191
9410.0 0.00063027
9430.0 0.00062858
9450.0 0.00062682
9470.0 0.00062502
9490.0 0.00062318
9510.0 0.00062129
9530.0 0.00061935
9550.0 0.0006174
9570.0 0.00061542
9590.0 0.0006134
9610.0 0.00061136
9630.0 0.00060932
9650.0 0.00060726
9670.0 0.00060516
9690.0 0.00060308
9710.0 0.00060101
9730.0 0.00059891
9750.0 0.00059681
9770.0 0.00059477
9790.0 0.0005927
9810.0 0.00059063
9830.0 0.0005886
9850.0 0.00058659
9870.0 0.00058457
9890.0 0.00058258
9910.0 0.00058064
9930.0 0.0005787
9950.0 0.00057574
9970.0 0.0005742
9990.0 0.00057264
10010.0 0.00057103
10030.0 0.00056939
10050.0 0.00056755
10070.0 0.00056475
10090.0 0.00056352
10110.0 0.00056226
10130.0 0.00056094
10150.0 0.0005596
10170.0 0.00055821
10190.0 0.00055678
10210.0 0.00055542
10230.0 0.00055412
10250.0 0.0005528
10270.0 0.00055153
10290.0 0.00055036
10310.0 0.00054919
10330.0 0.00054803
10350.0 0.00054697
10370.0 0.00054597
10390.0 0.00054497
10410.0 0.00054402
10430.0 0.00054318
10450.0 0.00054233
10470.0 0.00054152
10490.0 0.00054079
10510.0 0.00054011
10530.0 0.00053941
10550.0 0.00053879
10570.0 0.00053825
10590.0 0.00053773
10610.0 0.00053723
10630.0 0.00053681
10650.0 0.00053643
10670.0 0.00053606
10690.0 0.00053574
10710.0 0.00053549
10730.0 0.00053526
10750.0 0.00053504
10770.0 0.00053491
10790.0 0.00053481
10810.0 0.00053471
10830.0 0.00053465
10850.0 0.0005346
10870.0 0.00053444
10890.0 0.00053411
10910.0 0.00053348
10930.0 0.00053228
10950.0 0.00053006
10970.0 0.00052664
10990.0 0.0005219
11010.0 0.000528
11030.0 0.00051927
11050.0 0.00050898
11070.0 0.00049705
11090.0 0.0004832
11110.0 0.00046936
11130.0 0.00045549
11150.0 0.00044126
11170.0 0.00042739
11190.0 0.0004147
11210.0 0.00040239
11230.0 0.00039059
11250.0 0.00038006
11270.0 0.00037057
11290.0 0.0003616
11310.0 0.00035353
11330.0 0.00034667
11350.0 0.0003403
11370.0 0.00033435
11390.0 0.00032902
11410.0 0.00032404
11430.0 0.00031893
11450.0 0.00031395
11470.0 0.00030905
11490.0 0.00030389
11510.0 0.00029833
11530.0 0.00029278
11550.0 0.00028702
11570.0 0.00028077
11590.0 0.00027436
11610.0 0.00026798
11630.0 0.0002612
11650.0 0.00025414
11670.0 0.00024737
11690.0 0.00024062
11710.0 0.0002337
11730.0 0.00022697
11750.0 0.0002207
11770.0 0.00021436
11790.0 0.00020817
11810.0 0.00020245
11830.0 0.00019699
11850.0 0.00019151
11870.0 0.00018647
11890.0 0.00018184
11910.0 0.00017729
11930.0 0.00017288
11950.0 0.00016884
11970.0 0.00016492
11990.0 0.00016095
12010.0 0.00015723
12030.0 0.00015371
12050.0 0.00015019
12070.0 0.00014672
12090.0 0.00014362
12110.0 0.00014064
12130.0 0.00013776
12150.0 0.00013521
12170.0 0.00013301
12190.0 0.00013101
12210.0 0.00012943
12230.0 0.00012838
12250.0 0.00012778
12270.0 0.00012771
12290.0 0.00012823
12310.0 0.0001293
12330.0 0.00013097
12350.0 0.00013321
12370.0 0.00013587
12390.0 0.000139
12410.0 0.00014267
12430.0 0.00014643
12450.0 0.00015031
12470.0 0.00015438
12490.0 0.00015841
12510.0 0.00016216
12530.0 0.00016583
12550.0 0.0001693
12570.0 0.00017238
12590.0 0.0001751
12610.0 0.00017756
12630.0 0.00017965
12650.0 0.00018131
12670.0 0.00018269
12690.0 0.00018375
12710.0 0.00018452
12730.0 0.00018502
12750.0 0.00018527
12770.0 0.00018528
12790.0 0.0001851
12810.0 0.0001847
12830.0 0.00018406
12850.0 0.00018329
12870.0 0.00018233
12890.0 0.00018111
12910.0 0.0001797
12930.0 0.00017814
12950.0 0.00017628
12970.0 0.00017413
12990.0 0.00017189
13010.0 0.00016944
13030.0 0.0001667
13050.0 0.00016383
13070.0 0.00016096
13090.0 0.00015786
13110.0 0.00015467
13130.0 0.00015163
13150.0 0.00014863
13170.0 0.0001456
13190.0 0.00014288
13210.0 0.00014049
13230.0 0.0001383
13250.0 0.00013643
13270.0 0.00013499
13290.0 0.00013388
13310.0 0.00013308
13330.0 0.00013265
13350.0 0.00013252
13370.0 0.00013261
13390.0 0.00013287
13410.0 0.00013323
13430.0 0.00013359
13450.0 0.00013389
13470.0 0.00013407
13490.0 0.00013407
13510.0 0.00013384
13530.0 0.00013336
13550.0 0.00013267
13570.0 0.00013175
13590.0 0.00013059
13610.0 0.00012932
13630.0 0.00012798
13650.0 0.00012651
13670.0 0.00012503
13690.0 0.00012362
13710.0 0.00012224
13730.0 0.00012087
13750.0 0.00011967
13770.0 0.00011856
13790.0 0.0001175
13810.0 0.00011651
13830.0 0.00011561
13850.0 0.0001147
13870.0 0.00011379
13890.0 0.00011289
13910.0 0.00011198
13930.0 0.000111
13950.0 0.00010998
13970.0 0.00010899
13990.0 0.00010796
14010.0 0.0001069
14030.0 0.0001059
14050.0 0.00010494
14070.0 0.00010399
14090.0 0.00010314
14110.0 0.0001024
14130.0 0.00010174
14150.0 0.00010118
14170.0 0.00010074
14190.0 0.00010041
14210.0 0.00010019
14230.0 0.00010007
14250.0 0.00010005
14270.0 0.00010015
14290.0 0.00010035
14310.0 0.00010064
14330.0 0.00010102
14350.0 0.0001015
14370.0 0.00010205
14390.0 0.00010262
14410.0 0.00010328
14430.0 0.00010398
14450.0 0.00010465
14470.0 0.00010532
14490.0 0.00010602
14510.0 0.00010666
14530.0 0.00010725
14550.0 0.00010785
14570.0 0.00010845
14590.0 0.00010902
14610.0 0.00010964
14630.0 0.00011035
14650.0 0.00011112
14670.0 0.00011197
14690.0 0.000113
14710.0 0.00011422
14730.0 0.0001155
14750.0 0.000117
14770.0 0.00011872
14790.0 0.00012055
14810.0 0.00012247
14830.0 0.00012467
14850.0 0.00012692
14870.0 0.00012911
14890.0 0.00013134
14910.0 0.00013355
14930.0 0.00013551
14950.0 0.00013718
14970.0 0.00013864
14990.0 0.00013969
15010.0 0.00014031
15030.0 0.00014058
15050.0 0.00014053
15070.0 0.00014019
15090.0 0.00013966
15110.0 0.00013901
15130.0 0.00013828
15150.0 0.00013752
15170.0 0.00013672
15190.0 0.00013592
15210.0 0.00013512
15230.0 0.00013432
15250.0 0.00013351
15270.0 0.00013271
15290.0 0.00013192
15310.0 0.00013112
15330.0 0.00013032
15350.0 0.00012953
15370.0 0.00012874
15390.0 0.00012794
15410.0 0.00012715
15430.0 0.00012638
15450.0 0.00012559
15470.0 0.00012481
15490.0 0.00012403
15510.0 0.00012327
15530.0 0.00012249
15550.0 0.00012172
15570.0 0.00012097
15590.0 0.0001202
15610.0 0.00011944
15630.0 0.00011869
15650.0 0.00011794
15670.0 0.00011719
15690.0 0.00011645
15710.0 0.00011572
15730.0 0.00011499
15750.0 0.00011425
15770.0 0.00011353
15790.0 0.00011281
15810.0 0.00011209
15830.0 0.00011137
15850.0 0.00011067
15870.0 0.00010997
15890.0 0.00010926
15910.0 0.00010857
15930.0 0.00010789
15950.0 0.00010719
15970.0 0.00010651
15990.0 0.00010584
16010.0 0.00010516
16030.0 0.00010449
16050.0 0.00010384
16070.0 0.00010318
16090.0 0.00010252
16110.0 0.00010187
16130.0 0.00010124
16150.0 0.00010059
16170.0 9.9953e-05
16190.0 9.9329e-05
16210.0 9.8705e-05
16230.0 9.8079e-05
16250.0 9.7466e-05
16270.0 9.6862e-05
16290.0 9.6252e-05
16310.0 9.5649e-05
16330.0 9.5058e-05
16350.0 9.4467e-05
16370.0 9.3869e-05
16390.0 9.3291e-05
16410.0 9.2718e-05
16430.0 9.2141e-05
16450.0 9.1571e-05
16470.0 9.1016e-05
16490.0 9.0454e-05
16510.0 8.9894e-05
16530.0 8.9347e-05
16550.0 8.8805e-05
16570.0 8.8257e-05
16590.0 8.7717e-05
16610.0 8.7192e-05
16630.0 8.6664e-05
16650.0 8.6136e-05
16670.0 8.5621e-05
16690.0 8.5111e-05
16710.0 8.4591e-05
16730.0 8.4084e-05
16750.0 8.3587e-05
16770.0 8.3087e-05
16790.0 8.2587e-05
16810.0 8.2102e-05
16830.0 8.162e-05
16850.0 8.1133e-05
16870.0 8.0656e-05
16890.0 8.0188e-05
16910.0 7.9713e-05
16930.0 7.924e-05
16950.0 7.8783e-05
16970.0 7.8326e-05
16990.0 7.7867e-05
17010.0 7.7416e-05
17030.0 7.6976e-05
17050.0 7.6528e-05
17070.0 7.6084e-05
17090.0 7.5652e-05
17110.0 7.5221e-05
17130.0 7.4782e-05
17150.0 7.4357e-05
17170.0 7.394e-05
17190.0 7.3518e-05
17210.0 7.3099e-05
17230.0 7.2693e-05
17250.0 7.2284e-05
17270.0 7.1871e-05
17290.0 7.1469e-05
17310.0 7.1073e-05
17330.0 7.0672e-05
17350.0 7.0273e-05
17370.0 6.989e-05
17390.0 6.9503e-05
17410.0 6.9114e-05
17430.0 6.8735e-05
17450.0 6.8363e-05
17470.0 6.7978e-05
17490.0 6.7602e-05
17510.0 6.7237e-05
17530.0 6.687e-05
17550.0 6.65e-05
17570.0 6.6141e-05
17590.0 6.5787e-05
17610.0 6.5426e-05
17630.0 6.507e-05
17650.0 6.4724e-05
17670.0 6.4375e-05
17690.0 6.4019e-05
17710.0 6.368e-05
17730.0 6.3342e-05
17750.0 6.3e-05
17770.0 6.2662e-05
17790.0 6.2336e-05
17810.0 6.2001e-05
17830.0 6.1667e-05
17850.0 6.1343e-05
17870.0 6.1021e-05
17890.0 6.0693e-05
17910.0 6.037e-05
17930.0 6.0059e-05
17950.0 5.9743e-05
17970.0 5.9425e-05
17990.0 5.9119e-05
18010.0 5.8813e-05
18030.0 5.8497e-05
18050.0 5.8192e-05
18070.0 5.7893e-05
18090.0 5.759e-05
18110.0 5.7286e-05
18130.0 5.6994e-05
18150.0 5.6702e-05
18170.0 5.6404e-05
18190.0 5.6114e-05
18210.0 5.583e-05
18230.0 5.5538e-05
18250.0 5.5246e-05
18270.0 5.4968e-05
18290.0 5.4687e-05
18310.0 5.4402e-05
18330.0 5.4125e-05
18350.0 5.3855e-05
18370.0 5.3576e-05
18390.0 5.33e-05
18410.0 5.3033e-05
18430.0 5.2764e-05
18450.0 5.2488e-05
18470.0 5.2223e-05
18490.0 5.1963e-05
18510.0 5.1698e-05
18530.0 5.1434e-05
18550.0 5.118e-05
18570.0 5.0922e-05
18590.0 5.0658e-05
18610.0 5.0404e-05
18630.0 5.0154e-05
18650.0 4.9898e-05
18670.0 4.9643e-05
18690.0 4.9401e-05
18710.0 4.9153e-05
18730.0 4.8903e-05
18750.0 4.866e-05
18770.0 4.8422e-05
18790.0 4.8172e-05
18810.0 4.7929e-05
18830.0 4.7694e-05
18850.0 4.7456e-05
18870.0 4.7214e-05
18890.0 4.6983e-05
18910.0 4.6753e-05
18930.0 4.6515e-05
18950.0 4.6283e-05
18970.0 4.6058e-05
18990.0 4.5828e-05
19010.0 4.5591e-05
19030.0 4.5369e-05
19050.0 4.5147e-05
19070.0 4.492e-05
19090.0 4.4696e-05
19110.0 4.4482e-05
19130.0 4.4258e-05
19150.0 4.4034e-05
19170.0 4.3819e-05
19190.0 4.3604e-05
19210.0 4.3383e-05
19230.0 4.3166e-05
19250.0 4.2959e-05
19270.0 4.2745e-05
19290.0 4.253e-05
19310.0 4.2324e-05
19330.0 4.2118e-05
19350.0 4.1901e-05
19370.0 4.1694e-05
19390.0 4.1492e-05
19410.0 4.1284e-05
19430.0 4.1075e-05
19450.0 4.0878e-05
19470.0 4.0677e-05
19490.0 4.0471e-05
19510.0 4.0271e-05
19530.0 4.0077e-05
19550.0 3.9873e-05
19570.0 3.967e-05
19590.0 3.9478e-05
19610.0 3.9284e-05
19630.0 3.9084e-05
19650.0 3.8892e-05
19670.0 3.8704e-05
19690.0 3.8507e-05
19710.0 3.8312e-05
19730.0 3.8126e-05
19750.0 3.7936e-05
19770.0 3.7739e-05
19790.0 3.7552e-05
19810.0 3.7369e-05
19830.0 3.7178e-05
19850.0 3.6987e-05
19870.0 3.68e-05
19890.0 3.6599e-05
19910.0 3.6377e-05
19930.0 3.614e-05
19950.0 3.5868e-05
19970.0 3.5532e-05
19990.0 3.513e-05
20010.0 3.4679e-05
20030.0 3.414e-05
20050.0 3.3522e-05
20070.0 3.2872e-05
20090.0 3.2193e-05
20110.0 3.1451e-05
20130.0 3.0729e-05
20150.0 3.0043e-05
20170.0 2.9358e-05
20190.0 2.8692e-05
20210.0 2.8087e-05
20230.0 2.752e-05
20250.0 2.6972e-05
20270.0 2.6484e-05
20290.0 2.6058e-05
20310.0 2.5671e-05
20330.0 2.533e-05
20350.0 2.5071e-05
20370.0 2.4865e-05
20390.0 2.4715e-05
20410.0 2.4631e-05
20430.0 2.4611e-05
20450.0 2.4652e-05
20470.0 2.476e-05
20490.0 2.4926e-05
20510.0 2.5151e-05
20530.0 2.5442e-05
20550.0 2.5781e-05
20570.0 2.6152e-05
20590.0 2.6578e-05
20610.0 2.7039e-05
20630.0 2.7508e-05
20650.0 2.7997e-05
20670.0 2.8518e-05
20690.0 2.9013e-05
20710.0 2.9488e-05
20730.0 2.9958e-05
20750.0 3.0401e-05
20770.0 3.0793e-05
20790.0 3.1158e-05
20810.0 3.1493e-05
20830.0 3.1779e-05
20850.0 3.2023e-05
20870.0 3.2242e-05
20890.0 3.2425e-05
20910.0 3.2572e-05
20930.0 3.2698e-05
20950.0 3.2803e-05
20970.0 3.2887e-05
20990.0 3.2953e-05
21010.0 3.3004e-05
21030.0 3.3037e-05
21050.0 3.3053e-05
21070.0 3.3051e-05
21090.0 3.3027e-05
21110.0 3.2984e-05
21130.0 3.2922e-05
21150.0 3.2837e-05
21170.0 3.2733e-05
21190.0 3.2617e-05
21210.0 3.2481e-05
21230.0 3.233e-05
21250.0 3.2177e-05
21270.0 3.202e-05
21290.0 3.1856e-05
21310.0 3.1697e-05
21330.0 3.1552e-05
21350.0 3.141e-05
21370.0 3.1279e-05
21390.0 3.1168e-05
21410.0 3.1074e-05
21430.0 3.0993e-05
21450.0 3.0935e-05
21470.0 3.09e-05
21490.0 3.0883e-05
21510.0 3.0888e-05
21530.0 3.0913e-05
21550.0 3.0956e-05
21570.0 3.1022e-05
21590.0 3.1105e-05
21610.0 3.1205e-05
21630.0 3.1325e-05
21650.0 3.1468e-05
21670.0 3.162e-05
21690.0 3.1791e-05
21710.0 3.1985e-05
21730.0 3.2194e-05
21750.0 3.2413e-05
21770.0 3.2664e-05
21790.0 3.2933e-05
21810.0 3.3211e-05
21830.0 3.3509e-05
21850.0 3.3836e-05
21870.0 3.4172e-05
21890.0 3.4513e-05
21910.0 3.4882e-05
21930.0 3.5263e-05
21950.0 3.5641e-05
21970.0 3.6031e-05
21990.0 3.6444e-05
22010.0 3.6838e-05
22030.0 3.7223e-05
22050.0 3.7612e-05
22070.0 3.7988e-05
22090.0 3.8331e-05
22110.0 3.866e-05
22130.0 3.8968e-05
22150.0 3.9235e-05
22170.0 3.9462e-05
22190.0 3.9656e-05
22210.0 3.98e-05
22230.0 3.9888e-05
22250.0 3.9926e-05
22270.0 3.9908e-05
22290.0 3.9832e-05
22310.0 3.9702e-05
22330.0 3.9504e-05
22350.0 3.9247e-05
22370.0 3.8943e-05
22390.0 3.8578e-05
22410.0 3.8145e-05
22430.0 3.7684e-05
22450.0 3.7185e-05
22470.0 3.6627e-05
22490.0 3.6041e-05
22510.0 3.5449e-05
22530.0 3.4809e-05
22550.0 3.4141e-05
22570.0 3.3492e-05
22590.0 3.2838e-05
22610.0 3.2163e-05
22630.0 3.1504e-05
22650.0 3.0882e-05
22670.0 3.0251e-05
