#lamb flux
1010.0 1.4346e-07
1030.0 1.5223e-07
1050.0 1.6232e-07
1070.0 1.7367e-07
1090.0 1.8657e-07
1110.0 1.9981e-07
1130.0 2.1313e-07
1150.0 2.2708e-07
1170.0 2.4148e-07
1190.0 2.5513e-07
1210.0 2.6898e-07
1230.0 2.8329e-07
1250.0 2.9731e-07
1270.0 3.1094e-07
1290.0 3.2533e-07
1310.0 3.3973e-07
1330.0 3.5354e-07
1350.0 3.6751e-07
1370.0 3.8194e-07
1390.0 3.9601e-07
1410.0 4.0968e-07
1430.0 4.2397e-07
1450.0 4.3826e-07
1470.0 4.5209e-07
1490.0 4.6607e-07
1510.0 4.8085e-07
1530.0 4.9486e-07
1550.0 5.0869e-07
1570.0 5.23e-07
1590.0 5.3734e-07
1610.0 5.5105e-07
1630.0 5.6519e-07
1650.0 5.7972e-07
1670.0 5.9378e-07
1690.0 6.0767e-07
1710.0 6.2211e-07
1730.0 6.3665e-07
1750.0 6.5034e-07
1770.0 6.6444e-07
1790.0 6.7884e-07
1810.0 6.9281e-07
1830.0 7.0655e-07
1850.0 7.2116e-07
1870.0 7.3541e-07
1890.0 7.4922e-07
1910.0 7.6334e-07
1930.0 7.7783e-07
1950.0 7.9171e-07
1970.0 8.0546e-07
1990.0 8.1978e-07
2010.0 8.3392e-07
2030.0 8.4761e-07
2050.0 8.6178e-07
2070.0 8.7637e-07
2090.0 8.9021e-07
2110.0 9.041e-07
2130.0 9.1847e-07
2150.0 9.3266e-07
2170.0 9.4636e-07
2190.0 9.6065e-07
2210.0 9.7514e-07
2230.0 9.8918e-07
2250.0 1.0033e-06
2270.0 1.0181e-06
2290.0 1.0326e-06
2310.0 1.0467e-06
2330.0 1.0613e-06
2350.0 1.0762e-06
2370.0 1.0906e-06
2390.0 1.1053e-06
2410.0 1.1207e-06
2430.0 1.1358e-06
2450.0 1.1503e-06
2470.0 1.1645e-06
2490.0 1.1778e-06
2510.0 1.1892e-06
2530.0 1.2005e-06
2550.0 1.2145e-06
2570.0 1.2358e-06
2590.0 1.271e-06
2610.0 1.3334e-06
2630.0 1.431e-06
2650.0 1.5627e-06
2670.0 1.7333e-06
2690.0 1.9411e-06
2710.0 2.1622e-06
2730.0 2.3828e-06
2750.0 2.6069e-06
2770.0 2.8159e-06
2790.0 3.0024e-06
2810.0 3.178e-06
2830.0 3.3527e-06
2850.0 3.5138e-06
2870.0 3.6731e-06
2890.0 3.8394e-06
2910.0 4.0077e-06
2930.0 4.1711e-06
2950.0 4.3419e-06
2970.0 4.5176e-06
2990.0 4.6886e-06
3010.0 1.0065e-05
3030.0 1.0433e-05
3050.0 1.0805e-05
3070.0 1.116e-05
3090.0 1.1534e-05
3110.0 1.1922e-05
3130.0 1.2305e-05
3150.0 1.2685e-05
3170.0 1.3074e-05
3190.0 1.341e-05
3210.0 1.3671e-05
3230.0 1.3875e-05
3250.0 1.2228e-05
3270.0 1.0593e-05
3290.0 8.0898e-06
3310.0 9.0652e-06
3330.0 9.7632e-06
3350.0 1.0427e-05
3370.0 1.1086e-05
3390.0 1.1745e-05
3410.0 1.2405e-05
3430.0 1.3063e-05
3450.0 1.3723e-05
3470.0 1.438e-05
3490.0 1.4937e-05
3510.0 1.5124e-05
3530.0 1.5826e-05
3550.0 1.9336e-05
3570.0 2.4511e-05
3590.0 2.7735e-05
3610.0 3.157e-05
3630.0 2.9408e-05
3650.0 2.69e-05
3670.0 2.5926e-05
3690.0 3.0816e-05
3710.0 3.9106e-05
3730.0 4.2038e-05
3750.0 4.3642e-05
3770.0 4.4073e-05
3790.0 4.3343e-05
3810.0 3.934e-05
3830.0 3.0467e-05
3850.0 2.4332e-05
3870.0 2.3702e-05
3890.0 3.2348e-05
3910.0 4.3983e-05
3930.0 5.1569e-05
3950.0 5.4415e-05
3970.0 5.4135e-05
3990.0 6.1777e-05
4010.0 6.9058e-05
4030.0 6.4597e-05
4050.0 5.651e-05
4070.0 4.7807e-05
4090.0 4.7522e-05
4110.0 5.384e-05
4130.0 5.4643e-05
4150.0 5.5083e-05
4170.0 5.19e-05
4190.0 4.9486e-05
4210.0 5.0096e-05
4230.0 5.7579e-05
4250.0 5.8142e-05
4270.0 5.776e-05
4290.0 5.7212e-05
4310.0 5.7259e-05
4330.0 6.3265e-05
4350.0 7.286e-05
4370.0 7.4041e-05
4390.0 6.4075e-05
4410.0 5.2929e-05
4430.0 4.5379e-05
4450.0 3.9044e-05
4470.0 3.7829e-05
4490.0 4.5227e-05
4510.0 5.0742e-05
4530.0 5.5627e-05
4550.0 5.9792e-05
4570.0 7.0639e-05
4590.0 0.00010073
4610.0 0.00013493
4630.0 0.00013976
4650.0 0.00013268
4670.0 0.00014101
4690.0 0.00015468
4710.0 0.00013677
4730.0 0.00010071
4750.0 7.6645e-05
4770.0 6.9777e-05
4790.0 7.0042e-05
4810.0 6.566e-05
4830.0 7.1638e-05
4850.0 9.0951e-05
4870.0 0.00011297
4890.0 0.00010096
4910.0 8.8746e-05
4930.0 9.8458e-05
4950.0 0.00012935
4970.0 0.00016783
4990.0 0.00017297
5010.0 0.00014902
5030.0 0.00011182
5050.0 8.0176e-05
5070.0 6.742e-05
5090.0 6.395e-05
5110.0 6.4889e-05
5130.0 6.7513e-05
5150.0 6.662e-05
5170.0 6.7897e-05
5190.0 6.5741e-05
5210.0 6.8127e-05
5230.0 7.332e-05
5250.0 8.1313e-05
5270.0 0.00010082
5290.0 0.00011581
5310.0 0.00011714
5330.0 0.00012274
5350.0 0.0001394
5370.0 0.00014921
5390.0 0.00013933
5410.0 0.0001201
5430.0 0.000115
5450.0 0.00013365
5470.0 0.00017361
5490.0 0.00021701
5510.0 0.00024036
5530.0 0.00024714
5550.0 0.00023727
5570.0 0.00022257
5590.0 0.00021667
5610.0 0.00022088
5630.0 0.0002277
5650.0 0.00022979
5670.0 0.00022803
5690.0 0.00022333
5710.0 0.00020194
5730.0 0.00017021
5750.0 0.00014394
5770.0 0.0001459
5790.0 0.00016156
5810.0 0.00017515
5830.0 0.00018235
5850.0 0.00018365
5870.0 0.00017114
5890.0 0.00015104
5910.0 0.00014903
5930.0 0.00016301
5950.0 0.00016986
5970.0 0.00015702
5990.0 0.00013638
6010.0 0.000113
6030.0 9.4895e-05
6050.0 9.345e-05
6070.0 0.00010622
6090.0 0.00011183
6110.0 0.00010226
6130.0 9.4647e-05
6150.0 0.00010055
6170.0 0.00012038
6190.0 0.00014363
6210.0 0.00015618
6230.0 0.00015078
6250.0 0.0001382
6270.0 0.00011959
6290.0 9.9142e-05
6310.0 8.206e-05
6330.0 7.4123e-05
6350.0 7.7201e-05
6370.0 8.3694e-05
6390.0 9.0587e-05
6410.0 0.00010307
6430.0 0.0001269
6450.0 0.00015982
6470.0 0.00018193
6490.0 0.00018239
6510.0 0.00017808
6530.0 0.00018146
6550.0 0.00018551
6570.0 0.00018715
6590.0 0.00018716
6610.0 0.00018207
6630.0 0.00018233
6650.0 0.00018294
6670.0 0.0001759
6690.0 0.00015774
6710.0 0.00013334
6730.0 0.00012767
6750.0 0.0001372
6770.0 0.00014919
6790.0 0.00015379
6810.0 0.00015206
6830.0 0.00014998
6850.0 0.00014671
6870.0 0.00013834
6890.0 0.00013035
6910.0 0.00012458
6930.0 0.00012008
6950.0 0.00012746
6970.0 0.00013873
6990.0 0.00014632
7010.0 0.00014803
7030.0 0.0001399
7050.0 0.00012145
7070.0 9.8459e-05
7090.0 8.3652e-05
7110.0 8.0691e-05
7130.0 8.5113e-05
7150.0 8.6167e-05
7170.0 7.9256e-05
7190.0 7.7705e-05
7210.0 8.5609e-05
7230.0 9.8313e-05
7250.0 0.00011237
7270.0 0.00011833
7290.0 0.00011141
7310.0 9.8857e-05
7330.0 9.0472e-05
7350.0 8.8556e-05
7370.0 9.0874e-05
7390.0 9.4969e-05
7410.0 0.00010176
7430.0 0.00011567
7450.0 0.00013446
7470.0 0.00015352
7490.0 0.0001624
7510.0 0.00015698
7530.0 0.00013517
7550.0 0.00010957
7570.0 9.0662e-05
7590.0 7.9508e-05
7610.0 8.1392e-05
7630.0 9.3569e-05
7650.0 0.00010706
7670.0 0.00012053
7690.0 0.00013178
7710.0 0.00013968
7730.0 0.00014615
7750.0 0.00015211
7770.0 0.00015725
7790.0 0.00015709
7810.0 0.000158
7830.0 0.0001622
7850.0 0.00016171
7870.0 0.00015667
7890.0 0.00014483
7910.0 0.00013542
7930.0 0.00012849
7950.0 0.00012779
7970.0 0.00012638
7990.0 0.00012704
8010.0 0.00012602
8030.0 0.00012597
8050.0 0.00012876
8070.0 0.00012635
8090.0 0.00012583
8110.0 0.00012046
8130.0 0.00011924
8150.0 0.00011549
8170.0 0.00011181
8190.0 0.00010984
8210.0 0.0001102
8230.0 0.00010304
8250.0 9.6234e-05
8270.0 8.3758e-05
8290.0 6.7306e-05
8310.0 5.202e-05
8330.0 3.982e-05
8350.0 3.5022e-05
8370.0 3.9291e-05
8390.0 4.5257e-05
8410.0 4.9822e-05
8430.0 5.5133e-05
8450.0 5.7918e-05
8470.0 6.0457e-05
8490.0 6.7003e-05
8510.0 7.4435e-05
8530.0 8.6218e-05
8550.0 0.00010079
8570.0 0.00011382
8590.0 0.00012413
8610.0 0.00013279
8630.0 0.00013882
8650.0 0.00013942
8670.0 0.00013931
8690.0 0.00014348
8710.0 0.00014572
8730.0 0.00014819
8750.0 0.00014473
8770.0 0.00014474
8790.0 0.00014228
8810.0 0.00013208
8830.0 0.00012813
8850.0 0.0001205
8870.0 0.00011474
8890.0 0.00010926
8910.0 0.00011169
8930.0 0.00010477
8950.0 0.00010059
8970.0 9.8821e-05
8990.0 9.6237e-05
9010.0 9.4371e-05
9030.0 9.1883e-05
9050.0 9.1327e-05
9070.0 9.1075e-05
9090.0 9.0829e-05
9110.0 9.0595e-05
9130.0 9.0336e-05
9150.0 9.0069e-05
9170.0 8.9685e-05
9190.0 8.9165e-05
9210.0 8.9608e-05
9230.0 8.9146e-05
9250.0 8.8774e-05
9270.0 8.8425e-05
9290.0 8.8091e-05
9310.0 8.7764e-05
9330.0 8.7441e-05
9350.0 8.7121e-05
9370.0 8.6799e-05
9390.0 8.6471e-05
9410.0 8.6143e-05
9430.0 8.5807e-05
9450.0 8.5435e-05
9470.0 8.5071e-05
9490.0 8.4763e-05
9510.0 8.4434e-05
9530.0 8.4098e-05
9550.0 8.3757e-05
9570.0 8.341e-05
9590.0 8.3061e-05
9610.0 8.2709e-05
9630.0 8.2355e-05
9650.0 8.2e-05
9670.0 8.1643e-05
9690.0 8.1286e-05
9710.0 8.0928e-05
9730.0 8.0569e-05
9750.0 8.021e-05
9770.0 7.9851e-05
9790.0 7.9491e-05
9810.0 7.9131e-05
9830.0 7.8772e-05
9850.0 7.8413e-05
9870.0 7.8053e-05
9890.0 7.7693e-05
9910.0 7.7333e-05
9930.0 7.6967e-05
9950.0 7.6123e-05
9970.0 7.5908e-05
9990.0 7.5667e-05
10010.0 7.5412e-05
10030.0 7.5117e-05
10050.0 7.4785e-05
10070.0 7.4428e-05
10090.0 7.4107e-05
10110.0 7.3755e-05
10130.0 7.3419e-05
10150.0 7.3079e-05
10170.0 7.2724e-05
10190.0 7.2352e-05
10210.0 7.2005e-05
10230.0 7.1665e-05
10250.0 7.1307e-05
10270.0 7.0953e-05
10290.0 7.0619e-05
10310.0 7.0267e-05
10330.0 6.9901e-05
10350.0 6.9559e-05
10370.0 6.9219e-05
10390.0 6.8861e-05
10410.0 6.8506e-05
10430.0 6.8175e-05
10450.0 6.7826e-05
10470.0 6.7467e-05
10490.0 6.7125e-05
10510.0 6.6787e-05
10530.0 6.6418e-05
10550.0 6.6063e-05
10570.0 6.5726e-05
10590.0 6.5373e-05
10610.0 6.5011e-05
10630.0 6.4669e-05
10650.0 6.4325e-05
10670.0 6.3955e-05
10690.0 6.3598e-05
10710.0 6.3253e-05
10730.0 6.2891e-05
10750.0 6.2511e-05
10770.0 6.2164e-05
10790.0 6.181e-05
10810.0 6.1436e-05
10830.0 6.107e-05
10850.0 6.0718e-05
10870.0 6.0328e-05
10890.0 5.9929e-05
10910.0 5.9534e-05
10930.0 5.9106e-05
10950.0 5.8614e-05
10970.0 5.8081e-05
10990.0 5.7511e-05
11010.0 5.1904e-05
11030.0 5.1216e-05
11050.0 5.055e-05
11070.0 4.9869e-05
11090.0 4.9135e-05
11110.0 4.8456e-05
11130.0 4.7797e-05
11150.0 4.7115e-05
11170.0 4.6437e-05
11190.0 4.5806e-05
11210.0 4.5157e-05
11230.0 4.4486e-05
11250.0 4.3849e-05
11270.0 4.323e-05
11290.0 4.2586e-05
11310.0 4.1955e-05
11330.0 4.1387e-05
11350.0 4.0817e-05
11370.0 4.0252e-05
11390.0 3.9733e-05
11410.0 3.9243e-05
11430.0 3.8732e-05
11450.0 3.8247e-05
11470.0 3.779e-05
11490.0 3.732e-05
11510.0 3.6822e-05
11530.0 3.6343e-05
11550.0 3.5853e-05
11570.0 3.5312e-05
11590.0 3.4751e-05
11610.0 3.4188e-05
11630.0 3.3568e-05
11650.0 3.2898e-05
11670.0 3.2241e-05
11690.0 3.1566e-05
11710.0 3.0847e-05
11730.0 3.013e-05
11750.0 2.9448e-05
11770.0 2.874e-05
11790.0 2.8037e-05
11810.0 2.7382e-05
11830.0 2.6754e-05
11850.0 2.6117e-05
11870.0 2.5537e-05
11890.0 2.5015e-05
11910.0 2.4505e-05
11930.0 2.4022e-05
11950.0 2.3595e-05
11970.0 2.319e-05
11990.0 2.2792e-05
12010.0 2.2433e-05
12030.0 2.2106e-05
12050.0 2.1787e-05
12070.0 2.148e-05
12090.0 2.1217e-05
12110.0 2.0967e-05
12130.0 2.0727e-05
12150.0 2.0518e-05
12170.0 2.034e-05
12190.0 2.0174e-05
12210.0 2.0041e-05
12230.0 1.9951e-05
12250.0 1.9896e-05
12270.0 1.9882e-05
12290.0 1.9918e-05
12310.0 2.0004e-05
12330.0 2.0143e-05
12350.0 2.0338e-05
12370.0 2.0582e-05
12390.0 2.0879e-05
12410.0 2.124e-05
12430.0 2.1631e-05
12450.0 2.2054e-05
12470.0 2.2517e-05
12490.0 2.3e-05
12510.0 2.3475e-05
12530.0 2.3961e-05
12550.0 2.4449e-05
12570.0 2.4905e-05
12590.0 2.5333e-05
12610.0 2.5741e-05
12630.0 2.6108e-05
12650.0 2.6418e-05
12670.0 2.6691e-05
12690.0 2.6918e-05
12710.0 2.7092e-05
12730.0 2.7219e-05
12750.0 2.73e-05
12770.0 2.7332e-05
12790.0 2.7324e-05
12810.0 2.7275e-05
12830.0 2.7182e-05
12850.0 2.7064e-05
12870.0 2.6918e-05
12890.0 2.6737e-05
12910.0 2.6537e-05
12930.0 2.6327e-05
12950.0 2.6089e-05
12970.0 2.5829e-05
12990.0 2.5571e-05
13010.0 2.5301e-05
13030.0 2.5009e-05
13050.0 2.471e-05
13070.0 2.4416e-05
13090.0 2.4098e-05
13110.0 2.3769e-05
13130.0 2.3449e-05
13150.0 2.3127e-05
13170.0 2.2791e-05
13190.0 2.2477e-05
13210.0 2.219e-05
13230.0 2.1914e-05
13250.0 2.1667e-05
13270.0 2.1467e-05
13290.0 2.1305e-05
13310.0 2.1182e-05
13330.0 2.1114e-05
13350.0 2.1094e-05
13370.0 2.1117e-05
13390.0 2.1181e-05
13410.0 2.1272e-05
13430.0 2.1381e-05
13450.0 2.15e-05
13470.0 2.161e-05
13490.0 2.1698e-05
13510.0 2.1758e-05
13530.0 2.1774e-05
13550.0 2.1741e-05
13570.0 2.1655e-05
13590.0 2.1509e-05
13610.0 2.1316e-05
13630.0 2.1084e-05
13650.0 2.0802e-05
13670.0 2.0489e-05
13690.0 2.0165e-05
13710.0 1.9825e-05
13730.0 1.9464e-05
13750.0 1.9129e-05
13770.0 1.8808e-05
13790.0 1.8492e-05
13810.0 1.82e-05
13830.0 1.7941e-05
13850.0 1.7695e-05
13870.0 1.7469e-05
13890.0 1.7272e-05
13910.0 1.7096e-05
13930.0 1.6933e-05
13950.0 1.6788e-05
13970.0 1.6664e-05
13990.0 1.6549e-05
14010.0 1.6444e-05
14030.0 1.6353e-05
14050.0 1.627e-05
14070.0 1.6192e-05
14090.0 1.6121e-05
14110.0 1.6057e-05
14130.0 1.5996e-05
14150.0 1.5936e-05
14170.0 1.588e-05
14190.0 1.5825e-05
14210.0 1.577e-05
14230.0 1.5716e-05
14250.0 1.5666e-05
14270.0 1.5617e-05
14290.0 1.5571e-05
14310.0 1.553e-05
14330.0 1.5495e-05
14350.0 1.5465e-05
14370.0 1.544e-05
14390.0 1.5421e-05
14410.0 1.5406e-05
14430.0 1.5395e-05
14450.0 1.5384e-05
14470.0 1.5373e-05
14490.0 1.5362e-05
14510.0 1.5347e-05
14530.0 1.5329e-05
14550.0 1.5308e-05
14570.0 1.5285e-05
14590.0 1.5259e-05
14610.0 1.5235e-05
14630.0 1.5215e-05
14650.0 1.5201e-05
14670.0 1.5195e-05
14690.0 1.5203e-05
14710.0 1.5228e-05
14730.0 1.5267e-05
14750.0 1.5328e-05
14770.0 1.5414e-05
14790.0 1.5522e-05
14810.0 1.5651e-05
14830.0 1.5818e-05
14850.0 1.6009e-05
14870.0 1.6216e-05
14890.0 1.6448e-05
14910.0 1.6701e-05
14930.0 1.6947e-05
14950.0 1.7177e-05
14970.0 1.7395e-05
14990.0 1.7573e-05
15010.0 1.77e-05
15030.0 1.7783e-05
15050.0 1.7823e-05
15070.0 1.782e-05
15090.0 1.7788e-05
15110.0 1.7738e-05
15130.0 1.7675e-05
15150.0 1.7606e-05
15170.0 1.7533e-05
15190.0 1.7458e-05
15210.0 1.7382e-05
15230.0 1.7306e-05
15250.0 1.723e-05
15270.0 1.7153e-05
15290.0 1.7077e-05
15310.0 1.7001e-05
15330.0 1.6924e-05
15350.0 1.6848e-05
15370.0 1.6772e-05
15390.0 1.6694e-05
15410.0 1.6618e-05
15430.0 1.6542e-05
15450.0 1.6465e-05
15470.0 1.6388e-05
15490.0 1.6312e-05
15510.0 1.6236e-05
15530.0 1.6159e-05
15550.0 1.6083e-05
15570.0 1.6008e-05
15590.0 1.5931e-05
15610.0 1.5855e-05
15630.0 1.578e-05
15650.0 1.5704e-05
15670.0 1.5629e-05
15690.0 1.5553e-05
15710.0 1.5479e-05
15730.0 1.5404e-05
15750.0 1.5329e-05
15770.0 1.5254e-05
15790.0 1.518e-05
15810.0 1.5106e-05
15830.0 1.5032e-05
15850.0 1.4959e-05
15870.0 1.4885e-05
15890.0 1.4812e-05
15910.0 1.4739e-05
15930.0 1.4667e-05
15950.0 1.4594e-05
15970.0 1.4522e-05
15990.0 1.445e-05
16010.0 1.4379e-05
16030.0 1.4307e-05
16050.0 1.4237e-05
16070.0 1.4166e-05
16090.0 1.4095e-05
16110.0 1.4026e-05
16130.0 1.3956e-05
16150.0 1.3886e-05
16170.0 1.3817e-05
16190.0 1.3749e-05
16210.0 1.368e-05
16230.0 1.3612e-05
16250.0 1.3544e-05
16270.0 1.3477e-05
16290.0 1.341e-05
16310.0 1.3343e-05
16330.0 1.3277e-05
16350.0 1.3212e-05
16370.0 1.3145e-05
16390.0 1.308e-05
16410.0 1.3016e-05
16430.0 1.2951e-05
16450.0 1.2887e-05
16470.0 1.2824e-05
16490.0 1.276e-05
16510.0 1.2697e-05
16530.0 1.2635e-05
16550.0 1.2573e-05
16570.0 1.2511e-05
16590.0 1.2449e-05
16610.0 1.2388e-05
16630.0 1.2328e-05
16650.0 1.2267e-05
16670.0 1.2208e-05
16690.0 1.2148e-05
16710.0 1.2089e-05
16730.0 1.203e-05
16750.0 1.1972e-05
16770.0 1.1914e-05
16790.0 1.1856e-05
16810.0 1.1799e-05
16830.0 1.1743e-05
16850.0 1.1686e-05
16870.0 1.163e-05
16890.0 1.1575e-05
16910.0 1.152e-05
16930.0 1.1465e-05
16950.0 1.1411e-05
16970.0 1.1357e-05
16990.0 1.1303e-05
17010.0 1.125e-05
17030.0 1.1197e-05
17050.0 1.1145e-05
17070.0 1.1092e-05
17090.0 1.1041e-05
17110.0 1.099e-05
17130.0 1.0939e-05
17150.0 1.0888e-05
17170.0 1.0838e-05
17190.0 1.0789e-05
17210.0 1.0739e-05
17230.0 1.069e-05
17250.0 1.0642e-05
17270.0 1.0593e-05
17290.0 1.0546e-05
17310.0 1.0498e-05
17330.0 1.0451e-05
17350.0 1.0404e-05
17370.0 1.0358e-05
17390.0 1.0312e-05
17410.0 1.0267e-05
17430.0 1.0221e-05
17450.0 1.0177e-05
17470.0 1.0132e-05
17490.0 1.0088e-05
17510.0 1.0044e-05
17530.0 1.0001e-05
17550.0 9.9573e-06
17570.0 9.9148e-06
17590.0 9.8726e-06
17610.0 9.8304e-06
17630.0 9.7886e-06
17650.0 9.7475e-06
17670.0 9.7065e-06
17690.0 9.6654e-06
17710.0 9.6253e-06
17730.0 9.5855e-06
17750.0 9.5457e-06
17770.0 9.5063e-06
17790.0 9.4677e-06
17810.0 9.4289e-06
17830.0 9.3903e-06
17850.0 9.3525e-06
17870.0 9.3149e-06
17890.0 9.2773e-06
17910.0 9.2401e-06
17930.0 9.2037e-06
17950.0 9.1672e-06
17970.0 9.1309e-06
17990.0 9.0953e-06
18010.0 9.06e-06
18030.0 9.0244e-06
18050.0 8.9895e-06
18070.0 8.9551e-06
18090.0 8.9207e-06
18110.0 8.8865e-06
18130.0 8.853e-06
18150.0 8.8197e-06
18170.0 8.7864e-06
18190.0 8.7535e-06
18210.0 8.7212e-06
18230.0 8.6887e-06
18250.0 8.6564e-06
18270.0 8.6249e-06
18290.0 8.5936e-06
18310.0 8.5622e-06
18330.0 8.5313e-06
18350.0 8.5009e-06
18370.0 8.4704e-06
18390.0 8.4401e-06
18410.0 8.4105e-06
18430.0 8.3809e-06
18450.0 8.3512e-06
18470.0 8.3222e-06
18490.0 8.2936e-06
18510.0 8.2649e-06
18530.0 8.2365e-06
18550.0 8.2087e-06
18570.0 8.1808e-06
18590.0 8.1529e-06
18610.0 8.1256e-06
18630.0 8.0987e-06
18650.0 8.0716e-06
18670.0 8.0448e-06
18690.0 8.0186e-06
18710.0 7.9925e-06
18730.0 7.9663e-06
18750.0 7.9407e-06
18770.0 7.9154e-06
18790.0 7.8898e-06
18810.0 7.8646e-06
18830.0 7.8399e-06
18850.0 7.8153e-06
18870.0 7.7906e-06
18890.0 7.7666e-06
18910.0 7.7427e-06
18930.0 7.7187e-06
18950.0 7.6951e-06
18970.0 7.6719e-06
18990.0 7.6486e-06
19010.0 7.6253e-06
19030.0 7.6027e-06
19050.0 7.5802e-06
19070.0 7.5576e-06
19090.0 7.5354e-06
19110.0 7.5136e-06
19130.0 7.4916e-06
19150.0 7.4698e-06
19170.0 7.4485e-06
19190.0 7.4273e-06
19210.0 7.4059e-06
19230.0 7.3849e-06
19250.0 7.3644e-06
19270.0 7.3438e-06
19290.0 7.3232e-06
19310.0 7.3032e-06
19330.0 7.2832e-06
19350.0 7.263e-06
19370.0 7.2433e-06
19390.0 7.2239e-06
19410.0 7.2044e-06
19430.0 7.185e-06
19450.0 7.1661e-06
19470.0 7.1473e-06
19490.0 7.1283e-06
19510.0 7.1097e-06
19530.0 7.0915e-06
19550.0 7.073e-06
19570.0 7.0546e-06
19590.0 7.0368e-06
19610.0 7.019e-06
19630.0 7.0011e-06
19650.0 6.9836e-06
19670.0 6.9664e-06
19690.0 6.9489e-06
19710.0 6.9316e-06
19730.0 6.9148e-06
19750.0 6.8979e-06
19770.0 6.8809e-06
19790.0 6.8643e-06
19810.0 6.848e-06
19830.0 6.8314e-06
19850.0 6.8146e-06
19870.0 6.7977e-06
19890.0 6.7795e-06
19910.0 6.7587e-06
19930.0 6.7346e-06
19950.0 6.7052e-06
19970.0 6.6669e-06
19990.0 6.6182e-06
20010.0 6.5605e-06
20030.0 6.4893e-06
20050.0 6.4051e-06
20070.0 6.3135e-06
20090.0 6.2153e-06
20110.0 6.1056e-06
20130.0 5.9956e-06
20150.0 5.8876e-06
20170.0 5.777e-06
20190.0 5.6659e-06
20210.0 5.5614e-06
20230.0 5.4597e-06
20250.0 5.3577e-06
20270.0 5.2622e-06
20290.0 5.1739e-06
20310.0 5.0885e-06
20330.0 5.0068e-06
20350.0 4.9364e-06
20370.0 4.8713e-06
20390.0 4.8112e-06
20410.0 4.7592e-06
20430.0 4.7152e-06
20450.0 4.676e-06
20470.0 4.644e-06
20490.0 4.6195e-06
20510.0 4.601e-06
20530.0 4.5882e-06
20550.0 4.5813e-06
20570.0 4.5795e-06
20590.0 4.5822e-06
20610.0 4.5892e-06
20630.0 4.5991e-06
20650.0 4.6118e-06
20670.0 4.6277e-06
20690.0 4.6443e-06
20710.0 4.6614e-06
20730.0 4.6794e-06
20750.0 4.6971e-06
20770.0 4.7129e-06
20790.0 4.7277e-06
20810.0 4.7411e-06
20830.0 4.7517e-06
20850.0 4.7595e-06
20870.0 4.7648e-06
20890.0 4.7666e-06
20910.0 4.7649e-06
20930.0 4.7599e-06
20950.0 4.7513e-06
20970.0 4.7395e-06
20990.0 4.7247e-06
21010.0 4.7061e-06
21030.0 4.6847e-06
21050.0 4.6613e-06
21070.0 4.6352e-06
21090.0 4.6061e-06
21110.0 4.5768e-06
21130.0 4.5467e-06
21150.0 4.5147e-06
21170.0 4.4827e-06
21190.0 4.452e-06
21210.0 4.4206e-06
21230.0 4.3895e-06
21250.0 4.361e-06
21270.0 4.3341e-06
21290.0 4.3084e-06
21310.0 4.2852e-06
21330.0 4.2653e-06
21350.0 4.2474e-06
21370.0 4.2321e-06
21390.0 4.2201e-06
21410.0 4.211e-06
21430.0 4.2047e-06
21450.0 4.2016e-06
21470.0 4.2013e-06
21490.0 4.2039e-06
21510.0 4.2095e-06
21530.0 4.2173e-06
21550.0 4.2277e-06
21570.0 4.241e-06
21590.0 4.2563e-06
21610.0 4.2733e-06
21630.0 4.2929e-06
21650.0 4.3151e-06
21670.0 4.3374e-06
21690.0 4.3615e-06
21710.0 4.3878e-06
21730.0 4.4147e-06
21750.0 4.4416e-06
21770.0 4.471e-06
21790.0 4.5007e-06
21810.0 4.5298e-06
21830.0 4.5592e-06
21850.0 4.5896e-06
21870.0 4.6188e-06
21890.0 4.6465e-06
21910.0 4.6746e-06
21930.0 4.7017e-06
21950.0 4.7265e-06
21970.0 4.7503e-06
21990.0 4.7734e-06
22010.0 4.7934e-06
22030.0 4.811e-06
22050.0 4.8269e-06
22070.0 4.84e-06
22090.0 4.8498e-06
22110.0 4.8569e-06
22130.0 4.861e-06
22150.0 4.8615e-06
22170.0 4.8588e-06
22190.0 4.8522e-06
22210.0 4.8418e-06
22230.0 4.8283e-06
22250.0 4.8109e-06
22270.0 4.7894e-06
22290.0 4.7649e-06
22310.0 4.7375e-06
22330.0 4.7051e-06
22350.0 4.6699e-06
22370.0 4.6327e-06
22390.0 4.5919e-06
22410.0 4.547e-06
22430.0 4.5019e-06
22450.0 4.455e-06
22470.0 4.4045e-06
22490.0 4.3531e-06
22510.0 4.3022e-06
22530.0 4.2483e-06
22550.0 4.1927e-06
22570.0 4.1393e-06
22590.0 4.086e-06
22610.0 4.0313e-06
22630.0 3.978e-06
