#lamb flux
1010.0 4.1851e-08
1030.0 4.5975e-08
1050.0 5.0718e-08
1070.0 5.6058e-08
1090.0 6.2123e-08
1110.0 6.8344e-08
1130.0 7.4605e-08
1150.0 8.1163e-08
1170.0 8.7928e-08
1190.0 9.4342e-08
1210.0 1.0084e-07
1230.0 1.0756e-07
1250.0 1.1414e-07
1270.0 1.2054e-07
1290.0 1.2729e-07
1310.0 1.3404e-07
1330.0 1.4051e-07
1350.0 1.4705e-07
1370.0 1.5381e-07
1390.0 1.604e-07
1410.0 1.6679e-07
1430.0 1.7347e-07
1450.0 1.8015e-07
1470.0 1.866e-07
1490.0 1.9312e-07
1510.0 2.0001e-07
1530.0 2.0654e-07
1550.0 2.1298e-07
1570.0 2.1963e-07
1590.0 2.2629e-07
1610.0 2.3266e-07
1630.0 2.3921e-07
1650.0 2.4594e-07
1670.0 2.5244e-07
1690.0 2.5885e-07
1710.0 2.6551e-07
1730.0 2.722e-07
1750.0 2.7847e-07
1770.0 2.8493e-07
1790.0 2.915e-07
1810.0 2.9785e-07
1830.0 3.0407e-07
1850.0 3.1066e-07
1870.0 3.1706e-07
1890.0 3.2321e-07
1910.0 3.2946e-07
1930.0 3.3583e-07
1950.0 3.4187e-07
1970.0 3.4778e-07
1990.0 3.5389e-07
2010.0 3.5984e-07
2030.0 3.6549e-07
2050.0 3.7127e-07
2070.0 3.7713e-07
2090.0 3.8253e-07
2110.0 3.8783e-07
2130.0 3.9321e-07
2150.0 3.9835e-07
2170.0 4.0311e-07
2190.0 4.0797e-07
2210.0 4.1272e-07
2230.0 4.1708e-07
2250.0 4.2125e-07
2270.0 4.2552e-07
2290.0 4.2941e-07
2310.0 4.3287e-07
2330.0 4.3632e-07
2350.0 4.3963e-07
2370.0 4.425e-07
2390.0 4.4527e-07
2410.0 4.4823e-07
2430.0 4.5101e-07
2450.0 4.538e-07
2470.0 4.5719e-07
2490.0 4.6161e-07
2510.0 4.6716e-07
2530.0 4.7598e-07
2550.0 4.9129e-07
2570.0 5.1602e-07
2590.0 5.536e-07
2610.0 6.1362e-07
2630.0 6.9715e-07
2650.0 7.9843e-07
2670.0 9.1758e-07
2690.0 1.0489e-06
2710.0 1.1731e-06
2730.0 1.2816e-06
2750.0 1.3765e-06
2770.0 1.4487e-06
2790.0 1.4984e-06
2810.0 1.5339e-06
2830.0 1.5609e-06
2850.0 1.5787e-06
2870.0 1.5932e-06
2890.0 1.6075e-06
2910.0 1.6211e-06
2930.0 1.6327e-06
2950.0 1.6453e-06
2970.0 1.6584e-06
2990.0 1.6699e-06
3010.0 1.6625e-05
3030.0 1.674e-05
3050.0 1.6847e-05
3070.0 1.6921e-05
3090.0 1.6979e-05
3110.0 1.6998e-05
3130.0 1.6945e-05
3150.0 1.6813e-05
3170.0 1.6584e-05
3190.0 1.6265e-05
3210.0 1.5897e-05
3230.0 1.5518e-05
3250.0 1.5152e-05
3270.0 1.4961e-05
3290.0 1.4857e-05
3310.0 1.5054e-05
3330.0 1.5382e-05
3350.0 1.5846e-05
3370.0 1.646e-05
3390.0 1.7196e-05
3410.0 1.7964e-05
3430.0 1.8791e-05
3450.0 1.9693e-05
3470.0 2.062e-05
3490.0 2.155e-05
3510.0 2.2536e-05
3530.0 2.3546e-05
3550.0 2.4606e-05
3570.0 2.5753e-05
3590.0 2.6955e-05
3610.0 2.8305e-05
3630.0 2.9508e-05
3650.0 3.0713e-05
3670.0 3.168e-05
3690.0 3.2381e-05
3710.0 3.2791e-05
3730.0 3.2766e-05
3750.0 3.2762e-05
3770.0 3.2942e-05
3790.0 3.3908e-05
3810.0 3.5933e-05
3830.0 3.8644e-05
3850.0 4.2526e-05
3870.0 4.7714e-05
3890.0 5.3563e-05
3910.0 5.952e-05
3930.0 6.4377e-05
3950.0 6.7403e-05
3970.0 6.0084e-05
3990.0 4.6691e-05
4010.0 4.5038e-05
4030.0 5.4659e-05
4050.0 6.3501e-05
4070.0 5.606e-05
4090.0 3.8853e-05
4110.0 4.0434e-05
4130.0 5.1063e-05
4150.0 5.6249e-05
4170.0 4.9949e-05
4190.0 4.4736e-05
4210.0 5.3887e-05
4230.0 5.8485e-05
4250.0 5.7194e-05
4270.0 5.8213e-05
4290.0 5.46e-05
4310.0 5.883e-05
4330.0 6.7283e-05
4350.0 7.8961e-05
4370.0 8.1849e-05
4390.0 7.8214e-05
4410.0 6.7304e-05
4430.0 5.4986e-05
4450.0 4.2934e-05
4470.0 4.3825e-05
4490.0 4.8936e-05
4510.0 6.3557e-05
4530.0 6.7329e-05
4550.0 6.8087e-05
4570.0 7.8536e-05
4590.0 0.00010089
4610.0 0.00013882
4630.0 0.00016702
4650.0 0.00016651
4670.0 0.00017079
4690.0 0.00018722
4710.0 0.00018453
4730.0 0.00014765
4750.0 0.00010634
4770.0 8.8719e-05
4790.0 8.1682e-05
4810.0 7.5579e-05
4830.0 7.9773e-05
4850.0 9.2717e-05
4870.0 0.00011505
4890.0 0.00012171
4910.0 0.00010496
4930.0 0.0001052
4950.0 0.00012996
4970.0 0.00016874
4990.0 0.00019721
5010.0 0.00019718
5030.0 0.00016243
5050.0 0.00011374
5070.0 8.3689e-05
5090.0 7.2933e-05
5110.0 7.4343e-05
5130.0 8.1376e-05
5150.0 7.8511e-05
5170.0 7.8575e-05
5190.0 7.7518e-05
5210.0 7.771e-05
5230.0 8.2921e-05
5250.0 8.5984e-05
5270.0 9.6327e-05
5290.0 0.00011536
5310.0 0.00012666
5330.0 0.00013205
5350.0 0.00013822
5370.0 0.00014972
5390.0 0.00015383
5410.0 0.0001396
5430.0 0.00012486
5450.0 0.00012551
5470.0 0.00015082
5490.0 0.00019542
5510.0 0.0002356
5530.0 0.00024982
5550.0 0.0002411
5570.0 0.00022464
5590.0 0.00020757
5610.0 0.00019871
5630.0 0.00020123
5650.0 0.00020626
5670.0 0.00020033
5690.0 0.00019036
5710.0 0.00018416
5730.0 0.00016131
5750.0 0.00012457
5770.0 0.0001131
5790.0 0.00012765
5810.0 0.00014477
5830.0 0.00016209
5850.0 0.00016918
5870.0 0.00016548
5890.0 0.00015339
5910.0 0.00014448
5930.0 0.00014679
5950.0 0.00015603
5970.0 0.00015866
5990.0 0.00014159
6010.0 0.00011487
6030.0 9.2283e-05
6050.0 8.3856e-05
6070.0 9.0199e-05
6090.0 0.00010173
6110.0 0.00010276
6130.0 9.4899e-05
6150.0 9.3474e-05
6170.0 0.00010435
6190.0 0.00012428
6210.0 0.00014976
6230.0 0.00016722
6250.0 0.00016087
6270.0 0.00014134
6290.0 0.00011681
6310.0 9.2159e-05
6330.0 7.718e-05
6350.0 7.5598e-05
6370.0 8.3308e-05
6390.0 9.2612e-05
6410.0 0.00010759
6430.0 0.0001303
6450.0 0.00016031
6470.0 0.00019283
6490.0 0.00022204
6510.0 0.00023389
6530.0 0.00022381
6550.0 0.00021493
6570.0 0.00021541
6590.0 0.00021197
6610.0 0.0001987
6630.0 0.00018641
6650.0 0.00017567
6670.0 0.00017544
6690.0 0.0001711
6710.0 0.0001543
6730.0 0.00013437
6750.0 0.00012131
6770.0 0.0001265
6790.0 0.00013515
6810.0 0.00014467
6830.0 0.00014744
6850.0 0.00014017
6870.0 0.0001347
6890.0 0.0001316
6910.0 0.0001246
6930.0 0.00011917
6950.0 0.00012069
6970.0 0.00012446
6990.0 0.00013352
7010.0 0.00014323
7030.0 0.00013934
7050.0 0.00012647
7070.0 0.00011142
7090.0 9.4219e-05
7110.0 8.5314e-05
7130.0 9.0501e-05
7150.0 9.7557e-05
7170.0 9.8079e-05
7190.0 9.5266e-05
7210.0 9.4883e-05
7230.0 0.0001072
7250.0 0.00012404
7270.0 0.00013575
7290.0 0.00013796
7310.0 0.00012927
7330.0 0.00011738
7350.0 0.00010819
7370.0 0.00010428
7390.0 0.00010479
7410.0 0.00011136
7430.0 0.00012644
7450.0 0.00014152
7470.0 0.00015929
7490.0 0.00017765
7510.0 0.00016485
7530.0 0.00014441
7550.0 0.00012297
7570.0 0.00010304
7590.0 8.4261e-05
7610.0 8.1079e-05
7630.0 8.6772e-05
7650.0 9.722e-05
7670.0 0.00011122
7690.0 0.0001227
7710.0 0.00013765
7730.0 0.00014571
7750.0 0.0001512
7770.0 0.00015651
7790.0 0.00015657
7810.0 0.00015604
7830.0 0.00015045
7850.0 0.00014596
7870.0 0.00014002
7890.0 0.00012806
7910.0 0.00011592
7930.0 0.00010389
7950.0 9.1345e-05
7970.0 8.7423e-05
7990.0 9.1068e-05
8010.0 0.00010213
8030.0 0.00010307
8050.0 0.00010613
8070.0 0.00010484
8090.0 0.0001048
8110.0 0.00010189
8130.0 9.567e-05
8150.0 8.9361e-05
8170.0 8.8623e-05
8190.0 9.0004e-05
8210.0 9.1037e-05
8230.0 8.705e-05
8250.0 8.2559e-05
8270.0 7.2759e-05
8290.0 5.9093e-05
8310.0 4.544e-05
8330.0 3.1785e-05
8350.0 2.3481e-05
8370.0 2.2425e-05
8390.0 2.5767e-05
8410.0 3.129e-05
8430.0 3.8892e-05
8450.0 4.2956e-05
8470.0 4.5798e-05
8490.0 4.9457e-05
8510.0 5.2731e-05
8530.0 5.8415e-05
8550.0 6.8892e-05
8570.0 7.9607e-05
8590.0 8.876e-05
8610.0 0.0001028
8630.0 0.00011916
8650.0 0.00012669
8670.0 0.0001281
8690.0 0.00012625
8710.0 0.00012127
8730.0 0.00011635
8750.0 0.00011009
8770.0 0.00010784
8790.0 0.00010401
8810.0 9.6389e-05
8830.0 8.9921e-05
8850.0 7.7813e-05
8870.0 7.0493e-05
8890.0 6.532e-05
8910.0 7.0776e-05
8930.0 6.7921e-05
8950.0 6.9355e-05
8970.0 7.0502e-05
8990.0 7.0522e-05
9010.0 7.1408e-05
9030.0 6.9396e-05
9050.0 6.9259e-05
9070.0 6.9323e-05
9090.0 6.939e-05
9110.0 6.947e-05
9130.0 6.9544e-05
9150.0 6.9622e-05
9170.0 6.9626e-05
9190.0 6.953e-05
9210.0 7.0131e-05
9230.0 7.0112e-05
9250.0 7.0164e-05
9270.0 7.0237e-05
9290.0 7.0327e-05
9310.0 7.0431e-05
9330.0 7.0545e-05
9350.0 7.0667e-05
9370.0 7.0795e-05
9390.0 7.0928e-05
9410.0 7.1067e-05
9430.0 7.1212e-05
9450.0 7.136e-05
9470.0 7.1514e-05
9490.0 7.1672e-05
9510.0 7.1835e-05
9530.0 7.2002e-05
9550.0 7.2176e-05
9570.0 7.2353e-05
9590.0 7.2535e-05
9610.0 7.2722e-05
9630.0 7.2914e-05
9650.0 7.3111e-05
9670.0 7.331e-05
9690.0 7.3516e-05
9710.0 7.3726e-05
9730.0 7.3938e-05
9750.0 7.4156e-05
9770.0 7.4379e-05
9790.0 7.4604e-05
9810.0 7.4833e-05
9830.0 7.5066e-05
9850.0 7.5303e-05
9870.0 7.5541e-05
9890.0 7.5783e-05
9910.0 7.603e-05
9930.0 7.6277e-05
9950.0 7.649e-05
9970.0 7.6754e-05
9990.0 7.7019e-05
10010.0 7.7255e-05
10030.0 7.7517e-05
10050.0 7.7754e-05
10070.0 7.7862e-05
10090.0 7.8176e-05
10110.0 7.8483e-05
10130.0 7.8775e-05
10150.0 7.9061e-05
10170.0 7.9334e-05
10190.0 7.9595e-05
10210.0 7.9858e-05
10230.0 8.0122e-05
10250.0 8.0375e-05
10270.0 8.0628e-05
10290.0 8.0885e-05
10310.0 8.1133e-05
10330.0 8.1373e-05
10350.0 8.1618e-05
10370.0 8.1861e-05
10390.0 8.2093e-05
10410.0 8.2323e-05
10430.0 8.2556e-05
10450.0 8.2779e-05
10470.0 8.2993e-05
10490.0 8.3208e-05
10510.0 8.3419e-05
10530.0 8.3613e-05
10550.0 8.3807e-05
10570.0 8.4001e-05
10590.0 8.4183e-05
10610.0 8.4355e-05
10630.0 8.4528e-05
10650.0 8.4693e-05
10670.0 8.4842e-05
10690.0 8.4988e-05
10710.0 8.5131e-05
10730.0 8.5261e-05
10750.0 8.5376e-05
10770.0 8.5496e-05
10790.0 8.5604e-05
10810.0 8.5696e-05
10830.0 8.5779e-05
10850.0 8.5852e-05
10870.0 8.5887e-05
10890.0 8.5874e-05
10910.0 8.5795e-05
10930.0 8.5595e-05
10950.0 8.5196e-05
10970.0 8.4564e-05
10990.0 8.368e-05
11010.0 8.2913e-05
11030.0 8.1181e-05
11050.0 7.9199e-05
11070.0 7.6933e-05
11090.0 7.4314e-05
11110.0 7.1713e-05
11130.0 6.911e-05
11150.0 6.6439e-05
11170.0 6.3844e-05
11190.0 6.1492e-05
11210.0 5.9236e-05
11230.0 5.7113e-05
11250.0 5.5267e-05
11270.0 5.3656e-05
11290.0 5.2193e-05
11310.0 5.0937e-05
11330.0 4.992e-05
11350.0 4.9013e-05
11370.0 4.8195e-05
11390.0 4.7468e-05
11410.0 4.6779e-05
11430.0 4.6043e-05
11450.0 4.528e-05
11470.0 4.4478e-05
11490.0 4.3582e-05
11510.0 4.2567e-05
11530.0 4.1512e-05
11550.0 4.0394e-05
11570.0 3.9173e-05
11590.0 3.7922e-05
11610.0 3.6692e-05
11630.0 3.5419e-05
11650.0 3.4141e-05
11670.0 3.296e-05
11690.0 3.1836e-05
11710.0 3.0743e-05
11730.0 2.9739e-05
11750.0 2.8844e-05
11770.0 2.799e-05
11790.0 2.7197e-05
11810.0 2.6488e-05
11830.0 2.5829e-05
11850.0 2.5181e-05
11870.0 2.4578e-05
11890.0 2.4009e-05
11910.0 2.343e-05
11930.0 2.2841e-05
11950.0 2.2265e-05
11970.0 2.1671e-05
11990.0 2.104e-05
12010.0 2.041e-05
12030.0 1.9785e-05
12050.0 1.9141e-05
12070.0 1.8492e-05
12090.0 1.7898e-05
12110.0 1.7326e-05
12130.0 1.6786e-05
12150.0 1.6314e-05
12170.0 1.592e-05
12190.0 1.5589e-05
12210.0 1.5355e-05
12230.0 1.5224e-05
12250.0 1.5191e-05
12270.0 1.5267e-05
12290.0 1.5441e-05
12310.0 1.5697e-05
12330.0 1.6055e-05
12350.0 1.6489e-05
12370.0 1.6964e-05
12390.0 1.7489e-05
12410.0 1.8075e-05
12430.0 1.8634e-05
12450.0 1.9176e-05
12470.0 1.9712e-05
12490.0 2.0206e-05
12510.0 2.0624e-05
12530.0 2.0996e-05
12550.0 2.1308e-05
12570.0 2.1531e-05
12590.0 2.1678e-05
12610.0 2.1757e-05
12630.0 2.1758e-05
12650.0 2.1685e-05
12670.0 2.155e-05
12690.0 2.1353e-05
12710.0 2.1108e-05
12730.0 2.0823e-05
12750.0 2.0487e-05
12770.0 2.0124e-05
12790.0 1.9744e-05
12810.0 1.9338e-05
12830.0 1.8907e-05
12850.0 1.8476e-05
12870.0 1.8036e-05
12890.0 1.757e-05
12910.0 1.7096e-05
12930.0 1.6622e-05
12950.0 1.6119e-05
12970.0 1.5591e-05
12990.0 1.5072e-05
13010.0 1.4542e-05
13030.0 1.399e-05
13050.0 1.3443e-05
13070.0 1.2919e-05
13090.0 1.2388e-05
13110.0 1.1874e-05
13130.0 1.1403e-05
13150.0 1.0966e-05
13170.0 1.0556e-05
13190.0 1.0208e-05
13210.0 9.9218e-06
13230.0 9.6831e-06
13250.0 9.5021e-06
13270.0 9.3811e-06
13290.0 9.3105e-06
13310.0 9.2902e-06
13330.0 9.3141e-06
13350.0 9.3722e-06
13370.0 9.4632e-06
13390.0 9.5799e-06
13410.0 9.7009e-06
13430.0 9.8313e-06
13450.0 9.967e-06
13470.0 1.0093e-05
13490.0 1.0207e-05
13510.0 1.0317e-05
13530.0 1.0411e-05
13550.0 1.0485e-05
13570.0 1.0548e-05
13590.0 1.0601e-05
13610.0 1.064e-05
13630.0 1.0669e-05
13650.0 1.0693e-05
13670.0 1.071e-05
13690.0 1.0722e-05
13710.0 1.073e-05
13730.0 1.0736e-05
13750.0 1.0735e-05
13770.0 1.073e-05
13790.0 1.0719e-05
13810.0 1.0699e-05
13830.0 1.0671e-05
13850.0 1.0633e-05
13870.0 1.0582e-05
13890.0 1.052e-05
13910.0 1.0446e-05
13930.0 1.0357e-05
13950.0 1.0257e-05
13970.0 1.0153e-05
13990.0 1.004e-05
14010.0 9.9223e-06
14030.0 9.8072e-06
14050.0 9.6952e-06
14070.0 9.5834e-06
14090.0 9.482e-06
14110.0 9.3919e-06
14130.0 9.3104e-06
14150.0 9.2393e-06
14170.0 9.1823e-06
14190.0 9.1364e-06
14210.0 9.1014e-06
14230.0 9.0788e-06
14250.0 9.0679e-06
14270.0 9.0695e-06
14290.0 9.0848e-06
14310.0 9.1115e-06
14330.0 9.1507e-06
14350.0 9.2045e-06
14370.0 9.269e-06
14390.0 9.3413e-06
14410.0 9.4267e-06
14430.0 9.5213e-06
14450.0 9.6192e-06
14470.0 9.7235e-06
14490.0 9.8395e-06
14510.0 9.9572e-06
14530.0 1.0078e-05
14550.0 1.0213e-05
14570.0 1.036e-05
14590.0 1.0516e-05
14610.0 1.0691e-05
14630.0 1.0897e-05
14650.0 1.112e-05
14670.0 1.1366e-05
14690.0 1.1647e-05
14710.0 1.1963e-05
14730.0 1.2284e-05
14750.0 1.2635e-05
14770.0 1.3014e-05
14790.0 1.3395e-05
14810.0 1.3771e-05
14830.0 1.417e-05
14850.0 1.4552e-05
14870.0 1.4901e-05
14890.0 1.5229e-05
14910.0 1.5532e-05
14930.0 1.5783e-05
14950.0 1.5988e-05
14970.0 1.6156e-05
14990.0 1.6274e-05
15010.0 1.6349e-05
15030.0 1.6389e-05
15050.0 1.6399e-05
15070.0 1.6387e-05
15090.0 1.6362e-05
15110.0 1.6326e-05
15130.0 1.6286e-05
15150.0 1.6245e-05
15170.0 1.6201e-05
15190.0 1.6156e-05
15210.0 1.6113e-05
15230.0 1.607e-05
15250.0 1.6026e-05
15270.0 1.5982e-05
15290.0 1.5942e-05
15310.0 1.59e-05
15330.0 1.5857e-05
15350.0 1.5816e-05
15370.0 1.5776e-05
15390.0 1.5734e-05
15410.0 1.5693e-05
15430.0 1.5654e-05
15450.0 1.5613e-05
15470.0 1.5572e-05
15490.0 1.5533e-05
15510.0 1.5494e-05
15530.0 1.5454e-05
15550.0 1.5415e-05
15570.0 1.5377e-05
15590.0 1.5337e-05
15610.0 1.5297e-05
15630.0 1.5259e-05
15650.0 1.5221e-05
15670.0 1.5182e-05
15690.0 1.5144e-05
15710.0 1.5107e-05
15730.0 1.5068e-05
15750.0 1.5029e-05
15770.0 1.4992e-05
15790.0 1.4954e-05
15810.0 1.4914e-05
15830.0 1.4876e-05
15850.0 1.4839e-05
15870.0 1.4801e-05
15890.0 1.4762e-05
15910.0 1.4726e-05
15930.0 1.4688e-05
15950.0 1.4648e-05
15970.0 1.461e-05
15990.0 1.4573e-05
16010.0 1.4534e-05
16030.0 1.4494e-05
16050.0 1.4457e-05
16070.0 1.4419e-05
16090.0 1.438e-05
16110.0 1.4341e-05
16130.0 1.4304e-05
16150.0 1.4263e-05
16170.0 1.4224e-05
16190.0 1.4186e-05
16210.0 1.4147e-05
16230.0 1.4106e-05
16250.0 1.4067e-05
16270.0 1.4029e-05
16290.0 1.3988e-05
16310.0 1.3948e-05
16330.0 1.3909e-05
16350.0 1.3869e-05
16370.0 1.3826e-05
16390.0 1.3786e-05
16410.0 1.3746e-05
16430.0 1.3705e-05
16450.0 1.3663e-05
16470.0 1.3624e-05
16490.0 1.3582e-05
16510.0 1.3539e-05
16530.0 1.3498e-05
16550.0 1.3456e-05
16570.0 1.3413e-05
16590.0 1.337e-05
16610.0 1.3328e-05
16630.0 1.3285e-05
16650.0 1.3242e-05
16670.0 1.3199e-05
16690.0 1.3157e-05
16710.0 1.3111e-05
16730.0 1.3067e-05
16750.0 1.3024e-05
16770.0 1.2979e-05
16790.0 1.2933e-05
16810.0 1.289e-05
16830.0 1.2845e-05
16850.0 1.2799e-05
16870.0 1.2754e-05
16890.0 1.2709e-05
16910.0 1.2662e-05
16930.0 1.2615e-05
16950.0 1.2569e-05
16970.0 1.2523e-05
16990.0 1.2475e-05
17010.0 1.2428e-05
17030.0 1.2383e-05
17050.0 1.2334e-05
17070.0 1.2286e-05
17090.0 1.2239e-05
17110.0 1.2191e-05
17130.0 1.2141e-05
17150.0 1.2092e-05
17170.0 1.2045e-05
17190.0 1.1995e-05
17210.0 1.1945e-05
17230.0 1.1897e-05
17250.0 1.1848e-05
17270.0 1.1796e-05
17290.0 1.1747e-05
17310.0 1.1697e-05
17330.0 1.1646e-05
17350.0 1.1594e-05
17370.0 1.1545e-05
17390.0 1.1494e-05
17410.0 1.1442e-05
17430.0 1.1391e-05
17450.0 1.134e-05
17470.0 1.1287e-05
17490.0 1.1234e-05
17510.0 1.1183e-05
17530.0 1.1131e-05
17550.0 1.1077e-05
17570.0 1.1025e-05
17590.0 1.0973e-05
17610.0 1.0919e-05
17630.0 1.0865e-05
17650.0 1.0813e-05
17670.0 1.076e-05
17690.0 1.0704e-05
17710.0 1.0651e-05
17730.0 1.0598e-05
17750.0 1.0543e-05
17770.0 1.0488e-05
17790.0 1.0435e-05
17810.0 1.038e-05
17830.0 1.0324e-05
17850.0 1.027e-05
17870.0 1.0216e-05
17890.0 1.0159e-05
17910.0 1.0104e-05
17930.0 1.005e-05
17950.0 9.9943e-06
17970.0 9.938e-06
17990.0 9.8834e-06
18010.0 9.8285e-06
18030.0 9.7706e-06
18050.0 9.7147e-06
18070.0 9.6598e-06
18090.0 9.6032e-06
18110.0 9.5458e-06
18130.0 9.4909e-06
18150.0 9.4352e-06
18170.0 9.3777e-06
18190.0 9.3214e-06
18210.0 9.2661e-06
18230.0 9.2085e-06
18250.0 9.1504e-06
18270.0 9.0949e-06
18290.0 9.0385e-06
18310.0 8.9806e-06
18330.0 8.9241e-06
18350.0 8.8687e-06
18370.0 8.8108e-06
18390.0 8.7531e-06
18410.0 8.6971e-06
18430.0 8.6403e-06
18450.0 8.5814e-06
18470.0 8.5247e-06
18490.0 8.4688e-06
18510.0 8.4111e-06
18530.0 8.3535e-06
18550.0 8.2979e-06
18570.0 8.2407e-06
18590.0 8.182e-06
18610.0 8.1253e-06
18630.0 8.069e-06
18650.0 8.011e-06
18670.0 7.9529e-06
18690.0 7.8975e-06
18710.0 7.8405e-06
18730.0 7.7825e-06
18750.0 7.7261e-06
18770.0 7.6703e-06
18790.0 7.6114e-06
18810.0 7.554e-06
18830.0 7.4983e-06
18850.0 7.4413e-06
18870.0 7.3833e-06
18890.0 7.3274e-06
18910.0 7.2717e-06
18930.0 7.2139e-06
18950.0 7.157e-06
18970.0 7.1015e-06
18990.0 7.0447e-06
19010.0 6.9861e-06
19030.0 6.9308e-06
19050.0 6.8752e-06
19070.0 6.818e-06
19090.0 6.7616e-06
19110.0 6.7071e-06
19130.0 6.6502e-06
19150.0 6.593e-06
19170.0 6.5378e-06
19190.0 6.4824e-06
19210.0 6.4252e-06
19230.0 6.3691e-06
19250.0 6.315e-06
19270.0 6.259e-06
19290.0 6.2028e-06
19310.0 6.1484e-06
19330.0 6.0937e-06
19350.0 6.0365e-06
19370.0 5.9814e-06
19390.0 5.9273e-06
19410.0 5.8718e-06
19430.0 5.8159e-06
19450.0 5.7624e-06
19470.0 5.7082e-06
19490.0 5.6525e-06
19510.0 5.5982e-06
19530.0 5.5449e-06
19550.0 5.4895e-06
19570.0 5.434e-06
19590.0 5.3811e-06
19610.0 5.3274e-06
19630.0 5.2725e-06
19650.0 5.2191e-06
19670.0 5.1667e-06
19690.0 5.112e-06
19710.0 5.058e-06
19730.0 5.0055e-06
19750.0 4.9524e-06
19770.0 4.8974e-06
19790.0 4.8448e-06
19810.0 4.7929e-06
19830.0 4.7393e-06
19850.0 4.6857e-06
19870.0 4.6334e-06
19890.0 4.5784e-06
19910.0 4.5198e-06
19930.0 4.4598e-06
19950.0 4.3949e-06
19970.0 4.3204e-06
19990.0 4.2371e-06
20010.0 4.1486e-06
20030.0 4.0487e-06
20050.0 3.9399e-06
20070.0 3.8301e-06
20090.0 3.7203e-06
20110.0 3.606e-06
20130.0 3.5001e-06
20150.0 3.4041e-06
20170.0 3.3136e-06
20190.0 3.2307e-06
20210.0 3.1601e-06
20230.0 3.0981e-06
20250.0 3.0428e-06
20270.0 2.9975e-06
20290.0 2.9612e-06
20310.0 2.9316e-06
20330.0 2.9091e-06
20350.0 2.8947e-06
20370.0 2.8864e-06
20390.0 2.8842e-06
20410.0 2.8881e-06
20430.0 2.8972e-06
20450.0 2.9128e-06
20470.0 2.9342e-06
20490.0 2.9601e-06
20510.0 2.9915e-06
20530.0 3.0297e-06
20550.0 3.072e-06
20570.0 3.117e-06
20590.0 3.1681e-06
20610.0 3.2228e-06
20630.0 3.2781e-06
20650.0 3.3359e-06
20670.0 3.3978e-06
20690.0 3.4569e-06
20710.0 3.5144e-06
20730.0 3.5724e-06
20750.0 3.6288e-06
20770.0 3.6804e-06
20790.0 3.731e-06
20810.0 3.7812e-06
20830.0 3.8284e-06
20850.0 3.8738e-06
20870.0 3.9212e-06
20890.0 3.9692e-06
20910.0 4.0158e-06
20930.0 4.065e-06
20950.0 4.1174e-06
20970.0 4.1698e-06
20990.0 4.2227e-06
21010.0 4.2793e-06
21030.0 4.335e-06
21050.0 4.3877e-06
21070.0 4.4393e-06
21090.0 4.4891e-06
21110.0 4.5318e-06
21130.0 4.5687e-06
21150.0 4.6007e-06
21170.0 4.6252e-06
21190.0 4.6418e-06
21210.0 4.6516e-06
21230.0 4.6535e-06
21250.0 4.6475e-06
21270.0 4.6345e-06
21290.0 4.6139e-06
21310.0 4.5865e-06
21330.0 4.5543e-06
21350.0 4.5154e-06
21370.0 4.4707e-06
21390.0 4.4229e-06
21410.0 4.3717e-06
21430.0 4.3141e-06
21450.0 4.2557e-06
21470.0 4.1975e-06
21490.0 4.1367e-06
21510.0 4.075e-06
21530.0 4.0165e-06
21550.0 3.9592e-06
21570.0 3.902e-06
21590.0 3.8494e-06
21610.0 3.8018e-06
21630.0 3.7574e-06
21650.0 3.7175e-06
21670.0 3.6858e-06
21690.0 3.6598e-06
21710.0 3.6399e-06
21730.0 3.6274e-06
21750.0 3.622e-06
21770.0 3.6238e-06
21790.0 3.6332e-06
21810.0 3.6492e-06
21830.0 3.672e-06
21850.0 3.7026e-06
21870.0 3.7386e-06
21890.0 3.7789e-06
21910.0 3.8262e-06
21930.0 3.8783e-06
21950.0 3.9326e-06
21970.0 3.9912e-06
21990.0 4.0559e-06
22010.0 4.1197e-06
22030.0 4.1843e-06
22050.0 4.2519e-06
22070.0 4.3198e-06
22090.0 4.3841e-06
22110.0 4.4488e-06
22130.0 4.5131e-06
22150.0 4.5727e-06
22170.0 4.628e-06
22190.0 4.6814e-06
22210.0 4.7292e-06
22230.0 4.7688e-06
22250.0 4.8031e-06
22270.0 4.8306e-06
22290.0 4.8494e-06
22310.0 4.8601e-06
22330.0 4.8623e-06
22350.0 4.8549e-06
22370.0 4.8386e-06
22390.0 4.8126e-06
22410.0 4.7757e-06
22430.0 4.7312e-06
22450.0 4.6784e-06
22470.0 4.6149e-06
22490.0 4.5438e-06
22510.0 4.4681e-06
22530.0 4.3824e-06
22550.0 4.2886e-06
22570.0 4.1937e-06
22590.0 4.0945e-06
22610.0 3.9883e-06
