#lamb flux
1010.0 5.759e-05
1030.0 6.2649e-05
1050.0 6.8621e-05
1070.0 7.5343e-05
1090.0 8.2936e-05
1110.0 9.0732e-05
1130.0 9.8586e-05
1150.0 0.00010682
1170.0 0.0001153
1190.0 0.00012334
1210.0 0.00013147
1230.0 0.00013986
1250.0 0.00014805
1270.0 0.00015597
1290.0 0.00016431
1310.0 0.00017261
1330.0 0.00018051
1350.0 0.00018848
1370.0 0.00019668
1390.0 0.00020464
1410.0 0.00021234
1430.0 0.0002204
1450.0 0.00022846
1470.0 0.00023625
1490.0 0.00024415
1510.0 0.00025253
1530.0 0.00026049
1550.0 0.00026838
1570.0 0.0002766
1590.0 0.00028486
1610.0 0.00029281
1630.0 0.00030107
1650.0 0.00030959
1670.0 0.00031789
1690.0 0.00032613
1710.0 0.00033472
1730.0 0.00034338
1750.0 0.00035157
1770.0 0.00036
1790.0 0.00036859
1810.0 0.00037689
1830.0 0.00038501
1850.0 0.00039355
1870.0 0.0004018
1890.0 0.00040967
1910.0 0.00041757
1930.0 0.00042553
1950.0 0.00043294
1970.0 0.00044008
1990.0 0.00044733
2010.0 0.00045424
2030.0 0.00046066
2050.0 0.00046711
2070.0 0.00047355
2090.0 0.00047932
2110.0 0.00048489
2130.0 0.0004905
2150.0 0.0004958
2170.0 0.00050062
2190.0 0.00050559
2210.0 0.00051049
2230.0 0.00051499
2250.0 0.00051938
2270.0 0.00052404
2290.0 0.00052841
2310.0 0.00053244
2330.0 0.00053669
2350.0 0.00054099
2370.0 0.00054501
2390.0 0.00054915
2410.0 0.00055372
2430.0 0.00055822
2450.0 0.00056275
2470.0 0.00056778
2490.0 0.0005734
2510.0 0.00057938
2530.0 0.00058727
2550.0 0.00059938
2570.0 0.00061813
2590.0 0.00064672
2610.0 0.00069335
2630.0 0.0007607
2650.0 0.00084597
2670.0 0.00095076
2690.0 0.0010716
2710.0 0.0011913
2730.0 0.0012998
2750.0 0.0013946
2770.0 0.0014618
2790.0 0.0014976
2810.0 0.0015054
2830.0 0.0014857
2850.0 0.0014464
2870.0 0.001394
2890.0 0.0013306
2910.0 0.001262
2930.0 0.0011942
2950.0 0.0011229
2970.0 0.0010499
2990.0 0.00097977
3010.0 0.0013252
3030.0 0.0012217
3050.0 0.0011194
3070.0 0.0010253
3090.0 0.00093123
3110.0 0.00084136
3130.0 0.00076391
3150.0 0.00071165
3170.0 0.00066995
3190.0 0.0011058
3210.0 0.0031123
3230.0 0.0063626
3250.0 0.0080735
3270.0 0.0071292
3290.0 0.0054721
3310.0 0.0045285
3330.0 0.004243
3350.0 0.0043569
3370.0 0.0045881
3390.0 0.0048339
3410.0 0.0050823
3430.0 0.0053146
3450.0 0.0055666
3470.0 0.0058405
3490.0 0.0060272
3510.0 0.0058353
3530.0 0.0059603
3550.0 0.0074753
3570.0 0.0093873
3590.0 0.010367
3610.0 0.010691
3630.0 0.010955
3650.0 0.01094
3670.0 0.011597
3690.0 0.013878
3710.0 0.016445
3730.0 0.018124
3750.0 0.019316
3770.0 0.019552
3790.0 0.018796
3810.0 0.017375
3830.0 0.01519
3850.0 0.012877
3870.0 0.011684
3890.0 0.01307
3910.0 0.016533
3930.0 0.019995
3950.0 0.022053
3970.0 0.022924
3990.0 0.02388
4010.0 0.024433
4030.0 0.022044
4050.0 0.017396
4070.0 0.015012
4090.0 0.015824
4110.0 0.017421
4130.0 0.018317
4150.0 0.018416
4170.0 0.017996
4190.0 0.01769
4210.0 0.018138
4230.0 0.019196
4250.0 0.020056
4270.0 0.020376
4290.0 0.020095
4310.0 0.020224
4330.0 0.021452
4350.0 0.022904
4370.0 0.022798
4390.0 0.021144
4410.0 0.018663
4430.0 0.015624
4450.0 0.013479
4470.0 0.013409
4490.0 0.014646
4510.0 0.016229
4530.0 0.017941
4550.0 0.020621
4570.0 0.025769
4590.0 0.033109
4610.0 0.039108
4630.0 0.042132
4650.0 0.044621
4670.0 0.047038
4690.0 0.046007
4710.0 0.040121
4730.0 0.032338
4750.0 0.026067
4770.0 0.022284
4790.0 0.020889
4810.0 0.020885
4830.0 0.022345
4850.0 0.025265
4870.0 0.027879
4890.0 0.028732
4910.0 0.029407
4930.0 0.032168
4950.0 0.035891
4970.0 0.037812
4990.0 0.036767
5010.0 0.032931
5030.0 0.027579
5050.0 0.023051
5070.0 0.020281
5090.0 0.019145
5110.0 0.019145
5130.0 0.019329
5150.0 0.019158
5170.0 0.018735
5190.0 0.018942
5210.0 0.020387
5230.0 0.023036
5250.0 0.026998
5270.0 0.031165
5290.0 0.03407
5310.0 0.036446
5330.0 0.039439
5350.0 0.041728
5370.0 0.041443
5390.0 0.039399
5410.0 0.037933
5430.0 0.039328
5450.0 0.044205
5470.0 0.050233
5490.0 0.054529
5510.0 0.056052
5530.0 0.055594
5550.0 0.054046
5570.0 0.052089
5590.0 0.050251
5610.0 0.04897
5630.0 0.048537
5650.0 0.047768
5670.0 0.045017
5690.0 0.040942
5710.0 0.037274
5730.0 0.034676
5750.0 0.033865
5770.0 0.034762
5790.0 0.035814
5810.0 0.036267
5830.0 0.036409
5850.0 0.035862
5870.0 0.034885
5890.0 0.034754
5910.0 0.035378
5930.0 0.035007
5950.0 0.032802
5970.0 0.029143
5990.0 0.024937
6010.0 0.021795
6030.0 0.020875
6050.0 0.022011
6070.0 0.02307
6090.0 0.022296
6110.0 0.021035
6130.0 0.021463
6150.0 0.023275
6170.0 0.024938
6190.0 0.02589
6210.0 0.026185
6230.0 0.025471
6250.0 0.023208
6270.0 0.019975
6290.0 0.017316
6310.0 0.016374
6330.0 0.016871
6350.0 0.017737
6370.0 0.018851
6390.0 0.021234
6410.0 0.024816
6430.0 0.027796
6450.0 0.029282
6470.0 0.030104
6490.0 0.030706
6510.0 0.030955
6530.0 0.031121
6550.0 0.03154
6570.0 0.032064
6590.0 0.032422
6610.0 0.032034
6630.0 0.030598
6650.0 0.028423
6670.0 0.026351
6690.0 0.025016
6710.0 0.024006
6730.0 0.022936
6750.0 0.022424
6770.0 0.022938
6790.0 0.023675
6810.0 0.023903
6830.0 0.023523
6850.0 0.022603
6870.0 0.021665
6890.0 0.021139
6910.0 0.021197
6930.0 0.021556
6950.0 0.021841
6970.0 0.02209
6990.0 0.02202
7010.0 0.021322
7030.0 0.019875
7050.0 0.01799
7070.0 0.01667
7090.0 0.016495
7110.0 0.016765
7130.0 0.01619
7150.0 0.015035
7170.0 0.014888
7190.0 0.016218
7210.0 0.018081
7230.0 0.019592
7250.0 0.020209
7270.0 0.019771
7290.0 0.018753
7310.0 0.017975
7330.0 0.018004
7350.0 0.018438
7370.0 0.01879
7390.0 0.019598
7410.0 0.021217
7430.0 0.023071
7450.0 0.02451
7470.0 0.024928
7490.0 0.023734
7510.0 0.022009
7530.0 0.021015
7550.0 0.019883
7570.0 0.018699
7590.0 0.01809
7610.0 0.01806
7630.0 0.018639
7650.0 0.019881
7670.0 0.021473
7690.0 0.02291
7710.0 0.023923
7730.0 0.024761
7750.0 0.025437
7770.0 0.025707
7790.0 0.026022
7810.0 0.025986
7830.0 0.025117
7850.0 0.024164
7870.0 0.023603
7890.0 0.023541
7910.0 0.023518
7930.0 0.022928
7950.0 0.022119
7970.0 0.021279
7990.0 0.020552
8010.0 0.019545
8030.0 0.019539
8050.0 0.019467
8070.0 0.019169
8090.0 0.018945
8110.0 0.018615
8130.0 0.018593
8150.0 0.018419
8170.0 0.01806
8190.0 0.01752
8210.0 0.016913
8230.0 0.01634
8250.0 0.016119
8270.0 0.015161
8290.0 0.013141
8310.0 0.010897
8330.0 0.0093688
8350.0 0.0089734
8370.0 0.0099249
8390.0 0.011315
8410.0 0.012056
8430.0 0.01249
8450.0 0.013325
8470.0 0.014358
8490.0 0.015769
8510.0 0.017405
8530.0 0.019107
8550.0 0.020449
8570.0 0.021431
8590.0 0.022156
8610.0 0.022554
8630.0 0.02245
8650.0 0.022036
8670.0 0.022037
8690.0 0.023132
8710.0 0.024626
8730.0 0.025322
8750.0 0.025106
8770.0 0.025329
8790.0 0.025304
8810.0 0.024163
8830.0 0.022395
8850.0 0.02019
8870.0 0.01851
8890.0 0.01798
8910.0 0.017649
8930.0 0.016506
8950.0 0.015261
8970.0 0.014743
8990.0 0.01477
9010.0 0.014503
9030.0 0.014245
9050.0 0.014113
9070.0 0.014043
9090.0 0.013981
9110.0 0.013922
9130.0 0.013862
9150.0 0.013804
9170.0 0.013744
9190.0 0.013695
9210.0 0.013665
9230.0 0.013596
9250.0 0.013534
9270.0 0.013476
9290.0 0.013421
9310.0 0.013367
9330.0 0.013314
9350.0 0.013264
9370.0 0.013214
9390.0 0.013164
9410.0 0.013116
9430.0 0.013065
9450.0 0.012997
9470.0 0.012936
9490.0 0.012908
9510.0 0.012871
9530.0 0.012833
9550.0 0.012791
9570.0 0.012749
9590.0 0.012707
9610.0 0.012665
9630.0 0.012623
9650.0 0.012581
9670.0 0.01254
9690.0 0.012499
9710.0 0.012458
9730.0 0.012418
9750.0 0.012378
9770.0 0.012337
9790.0 0.012298
9810.0 0.012259
9830.0 0.012219
9850.0 0.012179
9870.0 0.012141
9890.0 0.012102
9910.0 0.012062
9930.0 0.012023
9950.0 0.01194
9970.0 0.011913
9990.0 0.011883
10010.0 0.011854
10030.0 0.011819
10050.0 0.011782
10070.0 0.011744
10090.0 0.011706
10110.0 0.011662
10130.0 0.011607
10150.0 0.011569
10170.0 0.011531
10190.0 0.011488
10210.0 0.011448
10230.0 0.011407
10250.0 0.011362
10270.0 0.011316
10290.0 0.011273
10310.0 0.011225
10330.0 0.011174
10350.0 0.011127
10370.0 0.011079
10390.0 0.011026
10410.0 0.010974
10430.0 0.010925
10450.0 0.010871
10470.0 0.010815
10490.0 0.010761
10510.0 0.010706
10530.0 0.010645
10550.0 0.010585
10570.0 0.010528
10590.0 0.010466
10610.0 0.010401
10630.0 0.01034
10650.0 0.010277
10670.0 0.010207
10690.0 0.010139
10710.0 0.010072
10730.0 0.010001
10750.0 0.0099247
10770.0 0.0098543
10790.0 0.009781
10810.0 0.0097027
10830.0 0.0096252
10850.0 0.0095499
10870.0 0.0094663
10890.0 0.0093815
10910.0 0.0092995
10930.0 0.0092147
10950.0 0.0091239
10970.0 0.009034
10990.0 0.0089467
11010.0 0.0095827
11030.0 0.0094855
11050.0 0.009392
11070.0 0.0092969
11090.0 0.0091951
11110.0 0.0091002
11130.0 0.0090075
11150.0 0.0089113
11170.0 0.0088155
11190.0 0.0087255
11210.0 0.0086335
11230.0 0.0085395
11250.0 0.0084502
11270.0 0.0083639
11290.0 0.0082751
11310.0 0.0081879
11330.0 0.0081076
11350.0 0.0080262
11370.0 0.0079435
11390.0 0.0078637
11410.0 0.0077843
11430.0 0.0076983
11450.0 0.007611
11470.0 0.0075229
11490.0 0.0074282
11510.0 0.0073249
11530.0 0.0072205
11550.0 0.0071114
11570.0 0.0069923
11590.0 0.0068691
11610.0 0.0067455
11630.0 0.0066136
11650.0 0.0064755
11670.0 0.0063413
11690.0 0.0062061
11710.0 0.006066
11730.0 0.0059276
11750.0 0.0057949
11770.0 0.0056585
11790.0 0.0055217
11810.0 0.0053905
11830.0 0.0052609
11850.0 0.0051267
11870.0 0.0049978
11890.0 0.0048747
11910.0 0.0047501
11930.0 0.0046268
11950.0 0.0045106
11970.0 0.0043966
11990.0 0.0042823
12010.0 0.0041748
12030.0 0.004074
12050.0 0.0039756
12070.0 0.0038812
12090.0 0.0037976
12110.0 0.003719
12130.0 0.0036455
12150.0 0.0035806
12170.0 0.0035242
12190.0 0.0034733
12210.0 0.0034312
12230.0 0.0033983
12250.0 0.0033733
12270.0 0.0033566
12290.0 0.003348
12310.0 0.0033464
12330.0 0.0033524
12350.0 0.003365
12370.0 0.0033819
12390.0 0.0034038
12410.0 0.0034319
12430.0 0.0034603
12450.0 0.0034899
12470.0 0.0035221
12490.0 0.0035543
12510.0 0.0035836
12530.0 0.003613
12550.0 0.0036413
12570.0 0.0036651
12590.0 0.003685
12610.0 0.0037021
12630.0 0.0037139
12650.0 0.0037184
12670.0 0.0037178
12690.0 0.0037109
12710.0 0.0036968
12730.0 0.0036761
12750.0 0.0036483
12770.0 0.0036138
12790.0 0.0035737
12810.0 0.0035278
12830.0 0.003476
12850.0 0.0034217
12870.0 0.0033647
12890.0 0.0033041
12910.0 0.0032428
12930.0 0.0031825
12950.0 0.0031207
12970.0 0.0030589
12990.0 0.0030005
13010.0 0.0029435
13030.0 0.0028869
13050.0 0.0028329
13070.0 0.002782
13090.0 0.0027315
13110.0 0.0026825
13130.0 0.0026364
13150.0 0.0025918
13170.0 0.0025474
13190.0 0.0025056
13210.0 0.0024661
13230.0 0.0024273
13250.0 0.0023898
13270.0 0.0023548
13290.0 0.0023209
13310.0 0.0022876
13330.0 0.0022564
13350.0 0.002227
13370.0 0.0021983
13390.0 0.0021707
13410.0 0.0021454
13430.0 0.002121
13450.0 0.0020974
13470.0 0.0020752
13490.0 0.0020543
13510.0 0.0020334
13530.0 0.0020133
13550.0 0.0019942
13570.0 0.0019753
13590.0 0.0019563
13610.0 0.0019377
13630.0 0.0019195
13650.0 0.0019008
13670.0 0.0018821
13690.0 0.0018638
13710.0 0.0018453
13730.0 0.0018264
13750.0 0.0018083
13770.0 0.0017906
13790.0 0.0017728
13810.0 0.0017554
13830.0 0.0017391
13850.0 0.0017228
13870.0 0.0017069
13890.0 0.0016919
13910.0 0.0016776
13930.0 0.0016634
13950.0 0.0016496
13970.0 0.0016367
13990.0 0.0016238
14010.0 0.0016109
14030.0 0.0015984
14050.0 0.0015859
14070.0 0.0015726
14090.0 0.0015594
14110.0 0.0015463
14130.0 0.0015327
14150.0 0.0015185
14170.0 0.0015049
14190.0 0.0014913
14210.0 0.0014774
14230.0 0.0014641
14250.0 0.0014517
14270.0 0.0014395
14290.0 0.0014281
14310.0 0.0014181
14330.0 0.0014092
14350.0 0.0014012
14370.0 0.0013945
14390.0 0.001389
14410.0 0.0013844
14430.0 0.0013806
14450.0 0.0013777
14470.0 0.0013754
14490.0 0.0013734
14510.0 0.0013718
14530.0 0.0013706
14550.0 0.0013695
14570.0 0.0013686
14590.0 0.0013681
14610.0 0.001368
14630.0 0.0013685
14650.0 0.0013699
14670.0 0.0013725
14690.0 0.0013766
14710.0 0.0013826
14730.0 0.0013905
14750.0 0.0014009
14770.0 0.0014143
14790.0 0.0014307
14810.0 0.0014499
14830.0 0.0014738
14850.0 0.0015013
14870.0 0.0015315
14890.0 0.0015653
14910.0 0.0016025
14930.0 0.0016401
14950.0 0.0016768
14970.0 0.0017133
14990.0 0.0017461
15010.0 0.0017737
15030.0 0.001797
15050.0 0.0018159
15070.0 0.0018299
15090.0 0.001841
15110.0 0.0018501
15130.0 0.001858
15150.0 0.0018652
15170.0 0.0018721
15190.0 0.001879
15210.0 0.001886
15230.0 0.0018932
15250.0 0.0019004
15270.0 0.0019078
15290.0 0.0019153
15310.0 0.001923
15330.0 0.0019308
15350.0 0.0019388
15370.0 0.0019469
15390.0 0.0019551
15410.0 0.0019634
15430.0 0.0019719
15450.0 0.0019805
15470.0 0.0019893
15490.0 0.0019982
15510.0 0.0020071
15530.0 0.0020163
15550.0 0.0020255
15570.0 0.0020348
15590.0 0.0020443
15610.0 0.0020538
15630.0 0.0020635
15650.0 0.0020733
15670.0 0.0020832
15690.0 0.0020932
15710.0 0.0021033
15730.0 0.0021134
15750.0 0.0021237
15770.0 0.0021341
15790.0 0.0021445
15810.0 0.002155
15830.0 0.0021656
15850.0 0.0021763
15870.0 0.0021871
15890.0 0.0021979
15910.0 0.0022088
15930.0 0.0022197
15950.0 0.0022307
15970.0 0.0022418
15990.0 0.002253
16010.0 0.0022641
16030.0 0.0022753
16050.0 0.0022866
16070.0 0.0022979
16090.0 0.0023093
16110.0 0.0023206
16130.0 0.002332
16150.0 0.0023434
16170.0 0.0023549
16190.0 0.0023663
16210.0 0.0023778
16230.0 0.0023893
16250.0 0.0024007
16270.0 0.0024122
16290.0 0.0024237
16310.0 0.0024352
16330.0 0.0024466
16350.0 0.002458
16370.0 0.0024694
16390.0 0.0024808
16410.0 0.0024922
16430.0 0.0025035
16450.0 0.0025147
16470.0 0.002526
16490.0 0.0025372
16510.0 0.0025483
16530.0 0.0025594
16550.0 0.0025704
16570.0 0.0025813
16590.0 0.0025922
16610.0 0.002603
16630.0 0.0026137
16650.0 0.0026243
16670.0 0.0026348
16690.0 0.0026453
16710.0 0.0026556
16730.0 0.0026659
16750.0 0.002676
16770.0 0.002686
16790.0 0.0026959
16810.0 0.0027057
16830.0 0.0027154
16850.0 0.0027249
16870.0 0.0027343
16890.0 0.0027436
16910.0 0.0027527
16930.0 0.0027617
16950.0 0.0027705
16970.0 0.0027792
16990.0 0.0027877
17010.0 0.0027961
17030.0 0.0028043
17050.0 0.0028123
17070.0 0.0028201
17090.0 0.0028278
17110.0 0.0028353
17130.0 0.0028426
17150.0 0.0028497
17170.0 0.0028566
17190.0 0.0028634
17210.0 0.0028699
17230.0 0.0028762
17250.0 0.0028824
17270.0 0.0028883
17290.0 0.002894
17310.0 0.0028995
17330.0 0.0029048
17350.0 0.0029098
17370.0 0.0029147
17390.0 0.0029193
17410.0 0.0029237
17430.0 0.0029279
17450.0 0.0029319
17470.0 0.0029356
17490.0 0.002939
17510.0 0.0029423
17530.0 0.0029453
17550.0 0.0029481
17570.0 0.0029506
17590.0 0.0029529
17610.0 0.0029549
17630.0 0.0029567
17650.0 0.0029583
17670.0 0.0029596
17690.0 0.0029607
17710.0 0.0029615
17730.0 0.0029621
17750.0 0.0029624
17770.0 0.0029625
17790.0 0.0029624
17810.0 0.002962
17830.0 0.0029613
17850.0 0.0029604
17870.0 0.0029593
17890.0 0.0029579
17910.0 0.0029562
17930.0 0.0029543
17950.0 0.0029522
17970.0 0.0029498
17990.0 0.0029472
18010.0 0.0029443
18030.0 0.0029412
18050.0 0.0029379
18070.0 0.0029343
18090.0 0.0029305
18110.0 0.0029264
18130.0 0.0029222
18150.0 0.0029176
18170.0 0.0029129
18190.0 0.0029079
18210.0 0.0029027
18230.0 0.0028973
18250.0 0.0028916
18270.0 0.0028858
18290.0 0.0028797
18310.0 0.0028734
18330.0 0.0028669
18350.0 0.0028602
18370.0 0.0028533
18390.0 0.0028461
18410.0 0.0028388
18430.0 0.0028313
18450.0 0.0028235
18470.0 0.0028156
18490.0 0.0028075
18510.0 0.0027992
18530.0 0.0027907
18550.0 0.0027821
18570.0 0.0027733
18590.0 0.0027642
18610.0 0.0027551
18630.0 0.0027457
18650.0 0.0027362
18670.0 0.0027265
18690.0 0.0027167
18710.0 0.0027068
18730.0 0.0026966
18750.0 0.0026864
18770.0 0.0026759
18790.0 0.0026654
18810.0 0.0026547
18830.0 0.0026439
18850.0 0.0026329
18870.0 0.0026218
18890.0 0.0026106
18910.0 0.0025993
18930.0 0.0025879
18950.0 0.0025764
18970.0 0.0025647
18990.0 0.002553
19010.0 0.0025411
19030.0 0.0025292
19050.0 0.0025172
19070.0 0.002505
19090.0 0.0024928
19110.0 0.0024805
19130.0 0.0024682
19150.0 0.0024557
19170.0 0.0024432
19190.0 0.0024306
19210.0 0.002418
19230.0 0.0024053
19250.0 0.0023925
19270.0 0.0023797
19290.0 0.0023669
19310.0 0.0023539
19330.0 0.002341
19350.0 0.002328
19370.0 0.002315
19390.0 0.0023019
19410.0 0.0022888
19430.0 0.0022757
19450.0 0.0022625
19470.0 0.0022493
19490.0 0.0022361
19510.0 0.0022229
19530.0 0.0022097
19550.0 0.0021965
19570.0 0.0021832
19590.0 0.00217
19610.0 0.0021568
19630.0 0.0021435
19650.0 0.0021303
19670.0 0.002117
19690.0 0.0021038
19710.0 0.0020906
19730.0 0.0020774
19750.0 0.0020642
19770.0 0.002051
19790.0 0.0020379
19810.0 0.0020247
19830.0 0.0020116
19850.0 0.0019983
19870.0 0.001985
19890.0 0.0019713
19910.0 0.0019568
19930.0 0.0019413
19950.0 0.0019241
19970.0 0.0019043
19990.0 0.0018815
20010.0 0.0018561
20030.0 0.0018269
20050.0 0.0017943
20070.0 0.0017598
20090.0 0.0017239
20110.0 0.0016853
20130.0 0.001647
20150.0 0.0016098
20170.0 0.0015724
20190.0 0.0015354
20210.0 0.0015004
20230.0 0.0014665
20250.0 0.001433
20270.0 0.0014013
20290.0 0.0013716
20310.0 0.0013429
20330.0 0.0013151
20350.0 0.0012902
20370.0 0.0012666
20390.0 0.0012442
20410.0 0.0012236
20430.0 0.0012049
20450.0 0.001187
20470.0 0.0011707
20490.0 0.0011559
20510.0 0.0011423
20530.0 0.0011297
20550.0 0.0011182
20570.0 0.0011078
20590.0 0.001098
20610.0 0.0010889
20630.0 0.0010804
20650.0 0.0010724
20670.0 0.0010647
20690.0 0.0010572
20710.0 0.0010499
20730.0 0.0010426
20750.0 0.0010352
20770.0 0.0010277
20790.0 0.00102
20810.0 0.001012
20830.0 0.0010037
20850.0 0.00099514
20870.0 0.00098609
20890.0 0.00097664
20910.0 0.00096698
20930.0 0.00095692
20950.0 0.00094644
20970.0 0.0009358
20990.0 0.00092501
21010.0 0.00091378
21030.0 0.00090247
21050.0 0.00089122
21070.0 0.00087983
21090.0 0.00086824
21110.0 0.00085697
21130.0 0.00084583
21150.0 0.00083461
21170.0 0.0008236
21190.0 0.00081295
21210.0 0.00080231
21230.0 0.00079179
21250.0 0.00078173
21270.0 0.00077193
21290.0 0.00076225
21310.0 0.0007529
21330.0 0.00074404
21350.0 0.00073533
21370.0 0.00072689
21390.0 0.0007189
21410.0 0.00071124
21430.0 0.00070376
21450.0 0.00069672
21470.0 0.00069008
21490.0 0.00068371
21510.0 0.00067764
21530.0 0.00067194
21550.0 0.00066652
21570.0 0.00066133
21590.0 0.00065642
21610.0 0.00065176
21630.0 0.00064729
21650.0 0.00064299
21670.0 0.00063888
21690.0 0.0006349
21710.0 0.00063103
21730.0 0.00062727
21750.0 0.0006236
21770.0 0.00062001
21790.0 0.00061649
21810.0 0.00061302
21830.0 0.0006096
21850.0 0.00060625
21870.0 0.00060293
21890.0 0.00059964
21910.0 0.0005964
21930.0 0.00059318
21950.0 0.00058997
21970.0 0.00058677
21990.0 0.00058357
22010.0 0.00058035
22030.0 0.00057711
22050.0 0.00057382
22070.0 0.00057048
22090.0 0.0005671
22110.0 0.00056364
22130.0 0.0005601
22150.0 0.0005565
22170.0 0.00055283
22190.0 0.00054904
22210.0 0.00054516
22230.0 0.00054125
22250.0 0.00053723
22270.0 0.00053308
22290.0 0.00052889
22310.0 0.00052462
22330.0 0.00052014
22350.0 0.00051557
22370.0 0.00051093
22390.0 0.00050609
22410.0 0.000501
22430.0 0.00049586
22450.0 0.00049056
22470.0 0.00048496
22490.0 0.00047918
22510.0 0.00047335
22530.0 0.00046717
22550.0 0.00046072
22570.0 0.00045429
22590.0 0.00044773
22610.0 0.0004409
22630.0 0.00043406
22650.0 0.00042738
22670.0 0.00042051
22690.0 0.00041363
22710.0 0.00040699
22730.0 0.00040047
22750.0 0.00039384
22770.0 0.00038757
22790.0 0.00038164
22810.0 0.0003758
22830.0 0.00037018
22850.0 0.00036499
22870.0 0.00036001
22890.0 0.00035517
22910.0 0.0003507
22930.0 0.00034653
22950.0 0.00034252
22970.0 0.00033869
22990.0 0.00033523
23010.0 0.0003319
23030.0 0.00032868
23050.0 0.00032565
23070.0 0.0003228
23090.0 0.00031994
23110.0 0.00031719
23130.0 0.00031457
23150.0 0.00031199
23170.0 0.00030941
23190.0 0.00030693
23210.0 0.00030452
23230.0 0.00030211
23250.0 0.00029976
23270.0 0.0002975
23290.0 0.00029529
23310.0 0.0002931
23330.0 0.00029106
23350.0 0.00028911
23370.0 0.00028722
23390.0 0.00028543
23410.0 0.00028378
23430.0 0.0002822
23450.0 0.00028069
23470.0 0.0002793
23490.0 0.000278
23510.0 0.00027675
23530.0 0.00027559
23550.0 0.00027452
23570.0 0.00027351
23590.0 0.00027257
23610.0 0.00027173
23630.0 0.00027098
23650.0 0.00027034
23670.0 0.00026983
23690.0 0.00026946
23710.0 0.00026928
23730.0 0.00026933
23750.0 0.00026959
23770.0 0.0002701
23790.0 0.00027095
23810.0 0.00027211
23830.0 0.00027353
23850.0 0.0002754
23870.0 0.00027769
23890.0 0.0002802
23910.0 0.00028304
23930.0 0.00028629
23950.0 0.00028974
