#lamb flux
1010.0 2.8268e-08
1030.0 3.1844e-08
1050.0 3.5957e-08
1070.0 4.0587e-08
1090.0 4.5845e-08
1110.0 5.1239e-08
1130.0 5.6668e-08
1150.0 6.2354e-08
1170.0 6.822e-08
1190.0 7.3782e-08
1210.0 7.942e-08
1230.0 8.5245e-08
1250.0 9.0952e-08
1270.0 9.6495e-08
1290.0 1.0235e-07
1310.0 1.082e-07
1330.0 1.1382e-07
1350.0 1.1949e-07
1370.0 1.2535e-07
1390.0 1.3106e-07
1410.0 1.366e-07
1430.0 1.424e-07
1450.0 1.4819e-07
1470.0 1.5379e-07
1490.0 1.5944e-07
1510.0 1.6542e-07
1530.0 1.7108e-07
1550.0 1.7666e-07
1570.0 1.8243e-07
1590.0 1.882e-07
1610.0 1.9371e-07
1630.0 1.9939e-07
1650.0 2.0522e-07
1670.0 2.1085e-07
1690.0 2.1639e-07
1710.0 2.2215e-07
1730.0 2.2793e-07
1750.0 2.3335e-07
1770.0 2.3892e-07
1790.0 2.4459e-07
1810.0 2.5005e-07
1830.0 2.554e-07
1850.0 2.6106e-07
1870.0 2.6654e-07
1890.0 2.7179e-07
1910.0 2.7712e-07
1930.0 2.8255e-07
1950.0 2.8766e-07
1970.0 2.9266e-07
1990.0 2.978e-07
2010.0 3.0279e-07
2030.0 3.075e-07
2050.0 3.1229e-07
2070.0 3.1713e-07
2090.0 3.2155e-07
2110.0 3.2584e-07
2130.0 3.3018e-07
2150.0 3.3428e-07
2170.0 3.3801e-07
2190.0 3.4179e-07
2210.0 3.4544e-07
2230.0 3.4871e-07
2250.0 3.5178e-07
2270.0 3.5489e-07
2290.0 3.5764e-07
2310.0 3.5997e-07
2330.0 3.6225e-07
2350.0 3.6437e-07
2370.0 3.6609e-07
2390.0 3.6772e-07
2410.0 3.6954e-07
2430.0 3.7126e-07
2450.0 3.7305e-07
2470.0 3.7543e-07
2490.0 3.7859e-07
2510.0 3.8225e-07
2530.0 3.8764e-07
2550.0 3.9652e-07
2570.0 4.1047e-07
2590.0 4.3186e-07
2610.0 4.6742e-07
2630.0 5.1903e-07
2650.0 5.8418e-07
2670.0 6.6399e-07
2690.0 7.5544e-07
2710.0 8.4472e-07
2730.0 9.2464e-07
2750.0 9.9577e-07
2770.0 1.0497e-06
2790.0 1.0852e-06
2810.0 1.1075e-06
2830.0 1.12e-06
2850.0 1.1229e-06
2870.0 1.1209e-06
2890.0 1.1166e-06
2910.0 1.1106e-06
2930.0 1.1033e-06
2950.0 1.0961e-06
2970.0 1.0892e-06
2990.0 1.082e-06
3010.0 2.5285e-05
3030.0 2.5116e-05
3050.0 2.4949e-05
3070.0 2.4765e-05
3090.0 2.4572e-05
3110.0 2.4347e-05
3130.0 2.4058e-05
3150.0 2.3691e-05
3170.0 2.3217e-05
3190.0 2.2646e-05
3210.0 2.2023e-05
3230.0 2.1389e-05
3250.0 2.0831e-05
3270.0 2.0446e-05
3290.0 2.0282e-05
3310.0 2.0376e-05
3330.0 2.0737e-05
3350.0 2.1312e-05
3370.0 2.2113e-05
3390.0 2.3112e-05
3410.0 2.4198e-05
3430.0 2.5421e-05
3450.0 2.683e-05
3470.0 2.8363e-05
3490.0 2.9984e-05
3510.0 3.1802e-05
3530.0 3.3746e-05
3550.0 3.5725e-05
3570.0 3.7821e-05
3590.0 4.0166e-05
3610.0 4.2643e-05
3630.0 4.523e-05
3650.0 4.7946e-05
3670.0 5.0488e-05
3690.0 5.2464e-05
3710.0 5.3647e-05
3730.0 5.3691e-05
3750.0 5.2572e-05
3770.0 4.9233e-05
3790.0 4.4973e-05
3810.0 4.0516e-05
3830.0 3.5892e-05
3850.0 3.0009e-05
3870.0 2.1461e-05
3890.0 3.1074e-05
3910.0 4.9308e-05
3930.0 6.0247e-05
3950.0 5.9713e-05
3970.0 6.3138e-05
3990.0 7.0576e-05
4010.0 9.391e-05
4030.0 9.2949e-05
4050.0 8.1891e-05
4070.0 7.582e-05
4090.0 7.2095e-05
4110.0 8.5338e-05
4130.0 9.1749e-05
4150.0 9.4366e-05
4170.0 9.1764e-05
4190.0 9.1492e-05
4210.0 9.1832e-05
4230.0 0.00010411
4250.0 0.00011489
4270.0 0.00011796
4290.0 0.00011752
4310.0 0.00011796
4330.0 0.00012852
4350.0 0.00015117
4370.0 0.00017326
4390.0 0.00015975
4410.0 0.00012486
4430.0 0.00010325
4450.0 8.9157e-05
4470.0 8.4518e-05
4490.0 9.6179e-05
4510.0 0.00011576
4530.0 0.00013015
4550.0 0.00014699
4570.0 0.00016762
4590.0 0.0002001
4610.0 0.00027144
4630.0 0.00033812
4650.0 0.00034205
4670.0 0.00032374
4690.0 0.00034489
4710.0 0.00036637
4730.0 0.00030802
4750.0 0.00021492
4770.0 0.00017215
4790.0 0.00017009
4810.0 0.00016009
4830.0 0.00015163
4850.0 0.00017221
4870.0 0.00022431
4890.0 0.00026015
4910.0 0.00021651
4930.0 0.00019235
4950.0 0.00021555
4970.0 0.0002902
4990.0 0.00038094
5010.0 0.00041224
5030.0 0.00033858
5050.0 0.00021403
5070.0 0.00014725
5090.0 0.00012873
5110.0 0.00013311
5130.0 0.00014486
5150.0 0.00015047
5170.0 0.0001494
5190.0 0.0001449
5210.0 0.00014172
5230.0 0.00014895
5250.0 0.00016116
5270.0 0.00017948
5290.0 0.00020599
5310.0 0.0002335
5330.0 0.00024011
5350.0 0.0002402
5370.0 0.00026249
5390.0 0.00029133
5410.0 0.00027854
5430.0 0.00023525
5450.0 0.00021768
5470.0 0.00024458
5490.0 0.00031386
5510.0 0.00040121
5530.0 0.00045021
5550.0 0.00043098
5570.0 0.00038846
5590.0 0.00034166
5610.0 0.00031951
5630.0 0.00030989
5650.0 0.0003129
5670.0 0.00030304
5690.0 0.00027518
5710.0 0.00026368
5730.0 0.00024302
5750.0 0.00016529
5770.0 0.0001407
5790.0 0.00016042
5810.0 0.0001925
5830.0 0.00022743
5850.0 0.00025649
5870.0 0.00026574
5890.0 0.00025632
5910.0 0.00024553
5930.0 0.0002449
5950.0 0.00025599
5970.0 0.00028057
5990.0 0.00026086
6010.0 0.00021646
6030.0 0.00017923
6050.0 0.00015549
6070.0 0.00015813
6090.0 0.00017909
6110.0 0.00019582
6130.0 0.00018737
6150.0 0.00016833
6170.0 0.00017703
6190.0 0.00021447
6210.0 0.00026985
6230.0 0.00032226
6250.0 0.00032615
6270.0 0.0002857
6290.0 0.00023736
6310.0 0.00018741
6330.0 0.00014701
6350.0 0.00013288
6370.0 0.00014262
6390.0 0.00016986
6410.0 0.00019929
6430.0 0.00023246
6450.0 0.00027278
6470.0 0.0003263
6490.0 0.00040196
6510.0 0.00044731
6530.0 0.00041945
6550.0 0.00038417
6570.0 0.00036419
6590.0 0.00035069
6610.0 0.00030854
6630.0 0.00028246
6650.0 0.00026035
6670.0 0.00026523
6690.0 0.00025588
6710.0 0.00022939
6730.0 0.00019729
6750.0 0.00018121
6770.0 0.00018353
6790.0 0.00020922
6810.0 0.00020485
6830.0 0.00021056
6850.0 0.00020329
6870.0 0.00019424
6890.0 0.00018735
6910.0 0.00018449
6930.0 0.00017262
6950.0 0.00017944
6970.0 0.00018138
6990.0 0.00020271
7010.0 0.00021491
7030.0 0.00020133
7050.0 0.00018739
7070.0 0.00018068
7090.0 0.00016912
7110.0 0.00016038
7130.0 0.00016609
7150.0 0.00017724
7170.0 0.00018985
7190.0 0.00019249
7210.0 0.00018674
7230.0 0.0001926
7250.0 0.00021892
7270.0 0.00025462
7290.0 0.00028106
7310.0 0.00027727
7330.0 0.00024738
7350.0 0.00022109
7370.0 0.00020495
7390.0 0.00020757
7410.0 0.00022212
7430.0 0.00024352
7450.0 0.0002634
7470.0 0.0002831
7490.0 0.00030741
7510.0 0.00032474
7530.0 0.00030299
7550.0 0.00025512
7570.0 0.00020056
7590.0 0.00014771
7610.0 0.00013117
7630.0 0.00014194
7650.0 0.00016439
7670.0 0.00019072
7690.0 0.0002163
7710.0 0.000231
7730.0 0.00023735
7750.0 0.00024802
7770.0 0.00024716
7790.0 0.00023794
7810.0 0.00023725
7830.0 0.00023276
7850.0 0.00021257
7870.0 0.00019318
7890.0 0.0001734
7910.0 0.00014797
7930.0 0.00012921
7950.0 0.00011713
7970.0 0.00011395
7990.0 0.00011698
8010.0 0.00012332
8030.0 0.00012357
8050.0 0.00012447
8070.0 0.00012244
8090.0 0.00012543
8110.0 0.00011831
8130.0 0.00010354
8150.0 9.7277e-05
8170.0 8.9654e-05
8190.0 8.8734e-05
8210.0 9.5127e-05
8230.0 0.00010177
8250.0 9.4308e-05
8270.0 8.4067e-05
8290.0 6.9069e-05
8310.0 4.7604e-05
8330.0 3.0896e-05
8350.0 2.2504e-05
8370.0 2.3919e-05
8390.0 2.8326e-05
8410.0 3.5981e-05
8430.0 4.3967e-05
8450.0 4.8545e-05
8470.0 5.386e-05
8490.0 5.2946e-05
8510.0 5.3218e-05
8530.0 5.558e-05
8550.0 6.7285e-05
8570.0 8.2886e-05
8590.0 9.4706e-05
8610.0 0.00011447
8630.0 0.00013269
8650.0 0.00013962
8670.0 0.00014193
8690.0 0.00014108
8710.0 0.00013192
8730.0 0.00012663
8750.0 0.00011718
8770.0 0.00011252
8790.0 0.00011163
8810.0 0.00010642
8830.0 8.9514e-05
8850.0 7.3765e-05
8870.0 6.1514e-05
8890.0 6.0126e-05
8910.0 6.494e-05
8930.0 6.8921e-05
8950.0 7.7348e-05
8970.0 7.8563e-05
8990.0 7.7344e-05
9010.0 7.4375e-05
9030.0 7.3595e-05
9050.0 7.4316e-05
9070.0 7.489e-05
9090.0 7.532e-05
9110.0 7.5706e-05
9130.0 7.6048e-05
9150.0 7.6371e-05
9170.0 7.6713e-05
9190.0 7.7075e-05
9210.0 7.7467e-05
9230.0 7.7869e-05
9250.0 7.8298e-05
9270.0 7.8744e-05
9290.0 7.9208e-05
9310.0 7.9696e-05
9330.0 8.0204e-05
9350.0 8.0725e-05
9370.0 8.1268e-05
9390.0 8.1832e-05
9410.0 8.2412e-05
9430.0 8.3006e-05
9450.0 8.3625e-05
9470.0 8.426e-05
9490.0 8.4909e-05
9510.0 8.5577e-05
9530.0 8.6267e-05
9550.0 8.6966e-05
9570.0 8.768e-05
9590.0 8.8416e-05
9610.0 8.9166e-05
9630.0 8.9927e-05
9650.0 9.0704e-05
9670.0 9.1502e-05
9690.0 9.2307e-05
9710.0 9.3126e-05
9730.0 9.3962e-05
9750.0 9.4809e-05
9770.0 9.5661e-05
9790.0 9.653e-05
9810.0 9.7414e-05
9830.0 9.8303e-05
9850.0 9.92e-05
9870.0 0.00010011
9890.0 0.00010103
9910.0 0.00010196
9930.0 0.00010289
9950.0 0.00010383
9970.0 0.00010478
9990.0 0.00010572
10010.0 0.00010181
10030.0 0.00010271
10050.0 0.0001036
10070.0 0.00010449
10090.0 0.0001054
10110.0 0.0001063
10130.0 0.0001072
10150.0 0.00010811
10170.0 0.00010901
10190.0 0.0001099
10210.0 0.00011079
10230.0 0.00011168
10250.0 0.00011257
10270.0 0.00011344
10290.0 0.00011432
10310.0 0.00011518
10330.0 0.00011603
10350.0 0.00011688
10370.0 0.00011772
10390.0 0.00011854
10410.0 0.00011936
10430.0 0.00012017
10450.0 0.00012096
10470.0 0.00012173
10490.0 0.00012249
10510.0 0.00012324
10530.0 0.00012397
10550.0 0.00012468
10570.0 0.00012538
10590.0 0.00012606
10610.0 0.00012671
10630.0 0.00012736
10650.0 0.00012798
10670.0 0.00012857
10690.0 0.00012915
10710.0 0.00012971
10730.0 0.00013024
10750.0 0.00013074
10770.0 0.00013123
10790.0 0.0001317
10810.0 0.00013213
10830.0 0.00013254
10850.0 0.00013292
10870.0 0.00013323
10890.0 0.00013346
10910.0 0.00013359
10930.0 0.00013355
10950.0 0.00013321
10970.0 0.00013253
10990.0 0.00013149
11010.0 0.0001277
11030.0 0.00012565
11050.0 0.00012321
11070.0 0.00012032
11090.0 0.00011686
11110.0 0.00011328
11130.0 0.00010955
11150.0 0.00010553
11170.0 0.00010141
11190.0 9.7461e-05
11210.0 9.3425e-05
11230.0 8.9354e-05
11250.0 8.5545e-05
11270.0 8.1965e-05
11290.0 7.8459e-05
11310.0 7.5218e-05
11330.0 7.2429e-05
11350.0 6.9843e-05
11370.0 6.749e-05
11390.0 6.547e-05
11410.0 6.3699e-05
11430.0 6.2026e-05
11450.0 6.0534e-05
11470.0 5.9177e-05
11490.0 5.7836e-05
11510.0 5.6453e-05
11530.0 5.5089e-05
11550.0 5.3672e-05
11570.0 5.2116e-05
11590.0 5.0482e-05
11610.0 4.8816e-05
11630.0 4.7018e-05
11650.0 4.5123e-05
11670.0 4.3287e-05
11690.0 4.146e-05
11710.0 3.9614e-05
11730.0 3.7861e-05
11750.0 3.6265e-05
11770.0 3.4726e-05
11790.0 3.3305e-05
11810.0 3.2065e-05
11830.0 3.0961e-05
11850.0 2.9944e-05
11870.0 2.9081e-05
11890.0 2.8343e-05
11910.0 2.7667e-05
11930.0 2.705e-05
11950.0 2.6493e-05
11970.0 2.5954e-05
11990.0 2.5399e-05
12010.0 2.4847e-05
12030.0 2.4287e-05
12050.0 2.369e-05
12070.0 2.3059e-05
12090.0 2.2445e-05
12110.0 2.1819e-05
12130.0 2.1187e-05
12150.0 2.0593e-05
12170.0 2.0054e-05
12190.0 1.9551e-05
12210.0 1.9135e-05
12230.0 1.8823e-05
12250.0 1.8612e-05
12270.0 1.8517e-05
12290.0 1.8545e-05
12310.0 1.8682e-05
12330.0 1.8946e-05
12350.0 1.9321e-05
12370.0 1.9776e-05
12390.0 2.0319e-05
12410.0 2.0969e-05
12430.0 2.1627e-05
12450.0 2.2302e-05
12470.0 2.3012e-05
12490.0 2.3709e-05
12510.0 2.434e-05
12530.0 2.4948e-05
12550.0 2.551e-05
12570.0 2.5973e-05
12590.0 2.6347e-05
12610.0 2.6648e-05
12630.0 2.6846e-05
12650.0 2.693e-05
12670.0 2.6927e-05
12690.0 2.6831e-05
12710.0 2.6647e-05
12730.0 2.6387e-05
12750.0 2.6045e-05
12770.0 2.5641e-05
12790.0 2.5192e-05
12810.0 2.469e-05
12830.0 2.4137e-05
12850.0 2.3571e-05
12870.0 2.2983e-05
12890.0 2.2356e-05
12910.0 2.1718e-05
12930.0 2.1083e-05
12950.0 2.0417e-05
12970.0 1.9728e-05
12990.0 1.9061e-05
13010.0 1.8389e-05
13030.0 1.7697e-05
13050.0 1.7018e-05
13070.0 1.6368e-05
13090.0 1.5707e-05
13110.0 1.5059e-05
13130.0 1.4455e-05
13150.0 1.388e-05
13170.0 1.3318e-05
13190.0 1.2819e-05
13210.0 1.2382e-05
13230.0 1.1988e-05
13250.0 1.1656e-05
13270.0 1.1399e-05
13290.0 1.1205e-05
13310.0 1.1078e-05
13330.0 1.1026e-05
13350.0 1.1039e-05
13370.0 1.1119e-05
13390.0 1.1266e-05
13410.0 1.1453e-05
13430.0 1.1687e-05
13450.0 1.1966e-05
13470.0 1.2265e-05
13490.0 1.257e-05
13510.0 1.2906e-05
13530.0 1.3234e-05
13550.0 1.3539e-05
13570.0 1.383e-05
13590.0 1.4106e-05
13610.0 1.4342e-05
13630.0 1.4539e-05
13650.0 1.471e-05
13670.0 1.4842e-05
13690.0 1.4932e-05
13710.0 1.4987e-05
13730.0 1.501e-05
13750.0 1.4994e-05
13770.0 1.4949e-05
13790.0 1.4875e-05
13810.0 1.4775e-05
13830.0 1.4654e-05
13850.0 1.4511e-05
13870.0 1.4346e-05
13890.0 1.4168e-05
13910.0 1.3977e-05
13930.0 1.3766e-05
13950.0 1.3544e-05
13970.0 1.3324e-05
13990.0 1.3092e-05
14010.0 1.2851e-05
14030.0 1.2617e-05
14050.0 1.2387e-05
14070.0 1.215e-05
14090.0 1.1929e-05
14110.0 1.1725e-05
14130.0 1.1532e-05
14150.0 1.1356e-05
14170.0 1.121e-05
14190.0 1.1087e-05
14210.0 1.0989e-05
14230.0 1.0922e-05
14250.0 1.0886e-05
14270.0 1.0879e-05
14290.0 1.0905e-05
14310.0 1.0958e-05
14330.0 1.1037e-05
14350.0 1.1146e-05
14370.0 1.1275e-05
14390.0 1.1417e-05
14410.0 1.1583e-05
14430.0 1.1763e-05
14450.0 1.1947e-05
14470.0 1.214e-05
14490.0 1.2349e-05
14510.0 1.2556e-05
14530.0 1.2762e-05
14550.0 1.2981e-05
14570.0 1.321e-05
14590.0 1.3438e-05
14610.0 1.3683e-05
14630.0 1.3955e-05
14650.0 1.4237e-05
14670.0 1.4536e-05
14690.0 1.4871e-05
14710.0 1.5239e-05
14730.0 1.5612e-05
14750.0 1.6021e-05
14770.0 1.6467e-05
14790.0 1.6925e-05
14810.0 1.739e-05
14830.0 1.79e-05
14850.0 1.841e-05
14870.0 1.8899e-05
14890.0 1.9387e-05
14910.0 1.9867e-05
14930.0 2.0296e-05
14950.0 2.0672e-05
14970.0 2.1008e-05
14990.0 2.1274e-05
15010.0 2.1467e-05
15030.0 2.1601e-05
15050.0 2.1681e-05
15070.0 2.1713e-05
15090.0 2.1715e-05
15110.0 2.1696e-05
15130.0 2.1664e-05
15150.0 2.1628e-05
15170.0 2.1588e-05
15190.0 2.1545e-05
15210.0 2.1503e-05
15230.0 2.1462e-05
15250.0 2.1419e-05
15270.0 2.1377e-05
15290.0 2.1338e-05
15310.0 2.1297e-05
15330.0 2.1256e-05
15350.0 2.1217e-05
15370.0 2.1178e-05
15390.0 2.1136e-05
15410.0 2.1097e-05
15430.0 2.1058e-05
15450.0 2.1019e-05
15470.0 2.0978e-05
15490.0 2.0941e-05
15510.0 2.0903e-05
15530.0 2.0863e-05
15550.0 2.0824e-05
15570.0 2.0787e-05
15590.0 2.0747e-05
15610.0 2.0707e-05
15630.0 2.0669e-05
15650.0 2.0631e-05
15670.0 2.0591e-05
15690.0 2.0552e-05
15710.0 2.0515e-05
15730.0 2.0475e-05
15750.0 2.0435e-05
15770.0 2.0397e-05
15790.0 2.0358e-05
15810.0 2.0316e-05
15830.0 2.0276e-05
15850.0 2.0238e-05
15870.0 2.0197e-05
15890.0 2.0156e-05
15910.0 2.0117e-05
15930.0 2.0076e-05
15950.0 2.0034e-05
15970.0 1.9993e-05
15990.0 1.9952e-05
16010.0 1.9909e-05
16030.0 1.9866e-05
16050.0 1.9825e-05
16070.0 1.9783e-05
16090.0 1.9738e-05
16110.0 1.9695e-05
16130.0 1.9653e-05
16150.0 1.9607e-05
16170.0 1.9562e-05
16190.0 1.9518e-05
16210.0 1.9473e-05
16230.0 1.9426e-05
16250.0 1.9381e-05
16270.0 1.9336e-05
16290.0 1.9288e-05
16310.0 1.924e-05
16330.0 1.9194e-05
16350.0 1.9146e-05
16370.0 1.9095e-05
16390.0 1.9047e-05
16410.0 1.8999e-05
16430.0 1.8948e-05
16450.0 1.8898e-05
16470.0 1.8849e-05
16490.0 1.8798e-05
16510.0 1.8745e-05
16530.0 1.8694e-05
16550.0 1.8642e-05
16570.0 1.8588e-05
16590.0 1.8533e-05
16610.0 1.8482e-05
16630.0 1.8427e-05
16650.0 1.8371e-05
16670.0 1.8317e-05
16690.0 1.8263e-05
16710.0 1.8204e-05
16730.0 1.8148e-05
16750.0 1.8092e-05
16770.0 1.8034e-05
16790.0 1.7975e-05
16810.0 1.7918e-05
16830.0 1.786e-05
16850.0 1.7799e-05
16870.0 1.7739e-05
16890.0 1.7681e-05
16910.0 1.7619e-05
16930.0 1.7556e-05
16950.0 1.7496e-05
16970.0 1.7434e-05
16990.0 1.7371e-05
17010.0 1.7308e-05
17030.0 1.7247e-05
17050.0 1.7182e-05
17070.0 1.7117e-05
17090.0 1.7053e-05
17110.0 1.6989e-05
17130.0 1.6921e-05
17150.0 1.6856e-05
17170.0 1.6791e-05
17190.0 1.6724e-05
17210.0 1.6656e-05
17230.0 1.6591e-05
17250.0 1.6523e-05
17270.0 1.6453e-05
17290.0 1.6385e-05
17310.0 1.6317e-05
17330.0 1.6247e-05
17350.0 1.6176e-05
17370.0 1.6108e-05
17390.0 1.6038e-05
17410.0 1.5967e-05
17430.0 1.5897e-05
17450.0 1.5827e-05
17470.0 1.5753e-05
17490.0 1.5681e-05
17510.0 1.561e-05
17530.0 1.5538e-05
17550.0 1.5464e-05
17570.0 1.5392e-05
17590.0 1.532e-05
17610.0 1.5246e-05
17630.0 1.5172e-05
17650.0 1.5099e-05
17670.0 1.5025e-05
17690.0 1.4948e-05
17710.0 1.4875e-05
17730.0 1.4801e-05
17750.0 1.4725e-05
17770.0 1.465e-05
17790.0 1.4577e-05
17810.0 1.45e-05
17830.0 1.4424e-05
17850.0 1.4349e-05
17870.0 1.4273e-05
17890.0 1.4196e-05
17910.0 1.4119e-05
17930.0 1.4044e-05
17950.0 1.3967e-05
17970.0 1.389e-05
17990.0 1.3814e-05
18010.0 1.3739e-05
18030.0 1.3659e-05
18050.0 1.3582e-05
18070.0 1.3507e-05
18090.0 1.3429e-05
18110.0 1.335e-05
18130.0 1.3275e-05
18150.0 1.3198e-05
18170.0 1.312e-05
18190.0 1.3042e-05
18210.0 1.2966e-05
18230.0 1.2888e-05
18250.0 1.2809e-05
18270.0 1.2733e-05
18290.0 1.2656e-05
18310.0 1.2577e-05
18330.0 1.25e-05
18350.0 1.2425e-05
18370.0 1.2346e-05
18390.0 1.2268e-05
18410.0 1.2192e-05
18430.0 1.2115e-05
18450.0 1.2036e-05
18470.0 1.1959e-05
18490.0 1.1884e-05
18510.0 1.1806e-05
18530.0 1.1729e-05
18550.0 1.1654e-05
18570.0 1.1577e-05
18590.0 1.1499e-05
18610.0 1.1423e-05
18630.0 1.1347e-05
18650.0 1.127e-05
18670.0 1.1193e-05
18690.0 1.1119e-05
18710.0 1.1043e-05
18730.0 1.0966e-05
18750.0 1.0891e-05
18770.0 1.0817e-05
18790.0 1.074e-05
18810.0 1.0664e-05
18830.0 1.059e-05
18850.0 1.0516e-05
18870.0 1.044e-05
18890.0 1.0366e-05
18910.0 1.0293e-05
18930.0 1.0218e-05
18950.0 1.0144e-05
18970.0 1.0071e-05
18990.0 9.9974e-06
19010.0 9.9217e-06
19030.0 9.8499e-06
19050.0 9.7777e-06
19070.0 9.7041e-06
19090.0 9.6315e-06
19110.0 9.561e-06
19130.0 9.488e-06
19150.0 9.415e-06
19170.0 9.3441e-06
19190.0 9.2732e-06
19210.0 9.2006e-06
19230.0 9.1292e-06
19250.0 9.0601e-06
19270.0 8.9892e-06
19290.0 8.9182e-06
19310.0 8.8493e-06
19330.0 8.7802e-06
19350.0 8.7086e-06
19370.0 8.6394e-06
19390.0 8.5713e-06
19410.0 8.502e-06
19430.0 8.4323e-06
19450.0 8.3654e-06
19470.0 8.2978e-06
19490.0 8.2289e-06
19510.0 8.1615e-06
19530.0 8.0954e-06
19550.0 8.0272e-06
19570.0 7.9591e-06
19590.0 7.8938e-06
19610.0 7.8278e-06
19630.0 7.7608e-06
19650.0 7.6955e-06
19670.0 7.6313e-06
19690.0 7.565e-06
19710.0 7.4994e-06
19730.0 7.4357e-06
19750.0 7.3713e-06
19770.0 7.3053e-06
19790.0 7.2419e-06
19810.0 7.1793e-06
19830.0 7.115e-06
19850.0 7.051e-06
19870.0 6.9885e-06
19890.0 6.9233e-06
19910.0 6.8546e-06
19930.0 6.7843e-06
19950.0 6.7088e-06
19970.0 6.6229e-06
19990.0 6.5267e-06
20010.0 6.5524e-06
20030.0 6.4322e-06
20050.0 6.2985e-06
20070.0 6.1592e-06
20090.0 6.0145e-06
20110.0 5.857e-06
20130.0 5.7021e-06
20150.0 5.5524e-06
20170.0 5.4012e-06
20190.0 5.2515e-06
20210.0 5.1123e-06
20230.0 4.9788e-06
20250.0 4.8473e-06
20270.0 4.7264e-06
20290.0 4.6169e-06
20310.0 4.5138e-06
20330.0 4.4183e-06
20350.0 4.3391e-06
20370.0 4.2694e-06
20390.0 4.2089e-06
20410.0 4.1607e-06
20430.0 4.1242e-06
20450.0 4.0968e-06
20470.0 4.0802e-06
20490.0 4.0736e-06
20510.0 4.0757e-06
20530.0 4.087e-06
20550.0 4.1056e-06
20570.0 4.1296e-06
20590.0 4.1608e-06
20610.0 4.1975e-06
20630.0 4.2367e-06
20650.0 4.28e-06
20670.0 4.3289e-06
20690.0 4.3777e-06
20710.0 4.4271e-06
20730.0 4.4798e-06
20750.0 4.5338e-06
20770.0 4.5856e-06
20790.0 4.6391e-06
20810.0 4.6949e-06
20830.0 4.7494e-06
20850.0 4.8033e-06
20870.0 4.8606e-06
20890.0 4.9185e-06
20910.0 4.9738e-06
20930.0 5.0312e-06
20950.0 5.0909e-06
20970.0 5.149e-06
20990.0 5.2065e-06
21010.0 5.2675e-06
21030.0 5.3276e-06
21050.0 5.385e-06
21070.0 5.4428e-06
21090.0 5.5016e-06
21110.0 5.5555e-06
21130.0 5.6066e-06
21150.0 5.6572e-06
21170.0 5.704e-06
21190.0 5.7454e-06
21210.0 5.7846e-06
21230.0 5.82e-06
21250.0 5.8485e-06
21270.0 5.8716e-06
21290.0 5.8896e-06
21310.0 5.9006e-06
21330.0 5.9041e-06
21350.0 5.9006e-06
21370.0 5.8888e-06
21390.0 5.8687e-06
21410.0 5.8404e-06
21430.0 5.8009e-06
21450.0 5.7529e-06
21470.0 5.6973e-06
21490.0 5.6313e-06
21510.0 5.5555e-06
21530.0 5.475e-06
21550.0 5.3874e-06
21570.0 5.2903e-06
21590.0 5.1909e-06
21610.0 5.0908e-06
21630.0 4.9864e-06
21650.0 4.8796e-06
21670.0 4.7817e-06
21690.0 4.6862e-06
21710.0 4.5937e-06
21730.0 4.5104e-06
21750.0 4.4376e-06
21770.0 4.3707e-06
21790.0 4.3156e-06
21810.0 4.2736e-06
21830.0 4.2429e-06
21850.0 4.2241e-06
21870.0 4.2183e-06
21890.0 4.224e-06
21910.0 4.2417e-06
21930.0 4.271e-06
21950.0 4.3093e-06
21970.0 4.3578e-06
21990.0 4.4184e-06
22010.0 4.4843e-06
22030.0 4.556e-06
22050.0 4.6363e-06
22070.0 4.722e-06
22090.0 4.8074e-06
22110.0 4.8978e-06
22130.0 4.9925e-06
22150.0 5.0849e-06
22170.0 5.1755e-06
22190.0 5.2688e-06
22210.0 5.3588e-06
22230.0 5.4403e-06
22250.0 5.5191e-06
22270.0 5.5934e-06
22290.0 5.6582e-06
22310.0 5.7147e-06
22330.0 5.7653e-06
22350.0 5.805e-06
22370.0 5.8336e-06
22390.0 5.8524e-06
22410.0 5.8599e-06
22430.0 5.8555e-06
22450.0 5.84e-06
22470.0 5.8122e-06
22490.0 5.7727e-06
22510.0 5.7235e-06
22530.0 5.6609e-06
22550.0 5.5854e-06
22570.0 5.5022e-06
22590.0 5.4091e-06
22610.0 5.3027e-06
