#lamb flux
1010.0 2.9292e-07
1030.0 3.2906e-07
1050.0 3.7063e-07
1070.0 4.1743e-07
1090.0 4.7058e-07
1110.0 5.2509e-07
1130.0 5.7996e-07
1150.0 6.3744e-07
1170.0 6.9673e-07
1190.0 7.5295e-07
1210.0 8.0993e-07
1230.0 8.6882e-07
1250.0 9.2651e-07
1270.0 9.8254e-07
1290.0 1.0417e-06
1310.0 1.1009e-06
1330.0 1.1576e-06
1350.0 1.215e-06
1370.0 1.2742e-06
1390.0 1.332e-06
1410.0 1.388e-06
1430.0 1.4466e-06
1450.0 1.5052e-06
1470.0 1.5617e-06
1490.0 1.6189e-06
1510.0 1.6793e-06
1530.0 1.7366e-06
1550.0 1.793e-06
1570.0 1.8514e-06
1590.0 1.9098e-06
1610.0 1.9655e-06
1630.0 2.023e-06
1650.0 2.0819e-06
1670.0 2.1388e-06
1690.0 2.195e-06
1710.0 2.2532e-06
1730.0 2.3117e-06
1750.0 2.3665e-06
1770.0 2.4229e-06
1790.0 2.4803e-06
1810.0 2.5356e-06
1830.0 2.5898e-06
1850.0 2.6471e-06
1870.0 2.7026e-06
1890.0 2.7559e-06
1910.0 2.81e-06
1930.0 2.865e-06
1950.0 2.917e-06
1970.0 2.9677e-06
1990.0 3.02e-06
2010.0 3.0707e-06
2030.0 3.1187e-06
2050.0 3.1676e-06
2070.0 3.2169e-06
2090.0 3.2621e-06
2110.0 3.3061e-06
2130.0 3.3506e-06
2150.0 3.3927e-06
2170.0 3.4312e-06
2190.0 3.4703e-06
2210.0 3.5081e-06
2230.0 3.5422e-06
2250.0 3.5743e-06
2270.0 3.607e-06
2290.0 3.636e-06
2310.0 3.6609e-06
2330.0 3.6854e-06
2350.0 3.7082e-06
2370.0 3.7269e-06
2390.0 3.7443e-06
2410.0 3.7628e-06
2430.0 3.7793e-06
2450.0 3.7952e-06
2470.0 3.8152e-06
2490.0 3.8415e-06
2510.0 3.8735e-06
2530.0 3.925e-06
2550.0 4.017e-06
2570.0 4.1683e-06
2590.0 4.4034e-06
2610.0 4.7901e-06
2630.0 5.3406e-06
2650.0 6.0195e-06
2670.0 6.8303e-06
2690.0 7.7343e-06
2710.0 8.5932e-06
2730.0 9.3418e-06
2750.0 9.9907e-06
2770.0 1.047e-05
2790.0 1.0778e-05
2810.0 1.0971e-05
2830.0 1.1085e-05
2850.0 1.1123e-05
2870.0 1.1127e-05
2890.0 1.1118e-05
2910.0 1.11e-05
2930.0 1.107e-05
2950.0 1.1044e-05
2970.0 1.1023e-05
2990.0 1.0996e-05
3010.0 0.00019828
3030.0 0.00019764
3050.0 0.00019699
3070.0 0.00019615
3090.0 0.00019522
3110.0 0.000194
3130.0 0.00019221
3150.0 0.00018977
3170.0 0.00018646
3190.0 0.00018238
3210.0 0.00017789
3230.0 0.00017342
3250.0 0.00017
3270.0 0.00016773
3290.0 0.00016784
3310.0 0.00016936
3330.0 0.00017344
3350.0 0.00017926
3370.0 0.00018696
3390.0 0.00019629
3410.0 0.00020624
3430.0 0.00021731
3450.0 0.00022987
3470.0 0.00024336
3490.0 0.0002574
3510.0 0.00027303
3530.0 0.00028955
3550.0 0.00030573
3570.0 0.0003223
3590.0 0.0003409
3610.0 0.00035928
3630.0 0.0003791
3650.0 0.00039934
3670.0 0.00041844
3690.0 0.00043313
3710.0 0.00044231
3730.0 0.00044544
3750.0 0.0004422
3770.0 0.00040312
3790.0 0.00036165
3810.0 0.00033762
3830.0 0.00029134
3850.0 0.00020995
3870.0 0.00016115
3890.0 0.0002709
3910.0 0.00043108
3930.0 0.00052191
3950.0 0.00052152
3970.0 0.0005213
3990.0 0.00061145
4010.0 0.00075893
4030.0 0.00078091
4050.0 0.00070299
4070.0 0.00061138
4090.0 0.00057299
4110.0 0.00068748
4130.0 0.00071199
4150.0 0.00067817
4170.0 0.00070019
4190.0 0.00071869
4210.0 0.0007083
4230.0 0.00076891
4250.0 0.00083754
4270.0 0.00084623
4290.0 0.00085939
4310.0 0.00089332
4330.0 0.00098767
4350.0 0.0011265
4370.0 0.0012736
4390.0 0.0012268
4410.0 0.0010286
4430.0 0.00086681
4450.0 0.00073746
4470.0 0.00072174
4490.0 0.00078351
4510.0 0.00085743
4530.0 0.0009381
4550.0 0.0010927
4570.0 0.0013142
4590.0 0.0016088
4610.0 0.0020217
4630.0 0.0024222
4650.0 0.0025065
4670.0 0.002458
4690.0 0.0026177
4710.0 0.0027357
4730.0 0.0023254
4750.0 0.001691
4770.0 0.0013878
4790.0 0.0013243
4810.0 0.0012301
4830.0 0.0011664
4850.0 0.0013434
4870.0 0.0017149
4890.0 0.0019456
4910.0 0.0016734
4930.0 0.001494
4950.0 0.001681
4970.0 0.0022391
4990.0 0.0028651
5010.0 0.0030028
5030.0 0.0024866
5050.0 0.0016371
5070.0 0.0011327
5090.0 0.0010074
5110.0 0.0010527
5130.0 0.001129
5150.0 0.0011885
5170.0 0.0011884
5190.0 0.0011681
5210.0 0.0011304
5230.0 0.0011488
5250.0 0.0012231
5270.0 0.0014285
5290.0 0.00165
5310.0 0.0017931
5330.0 0.0018395
5350.0 0.0018683
5370.0 0.0020289
5390.0 0.0021556
5410.0 0.0020966
5430.0 0.0018356
5450.0 0.0017002
5470.0 0.0019167
5490.0 0.002454
5510.0 0.0031107
5530.0 0.0034291
5550.0 0.0033481
5570.0 0.0030536
5590.0 0.0027481
5610.0 0.0025345
5630.0 0.0024024
5650.0 0.0024664
5670.0 0.002416
5690.0 0.0022685
5710.0 0.0021378
5730.0 0.0019179
5750.0 0.0014279
5770.0 0.0012522
5790.0 0.0013969
5810.0 0.0016843
5830.0 0.0018856
5850.0 0.0020329
5870.0 0.002079
5890.0 0.0020023
5910.0 0.0019172
5930.0 0.0019296
5950.0 0.0020255
5970.0 0.0021202
5990.0 0.0020137
6010.0 0.0017036
6030.0 0.001416
6050.0 0.0012352
6070.0 0.0012241
6090.0 0.0013733
6110.0 0.0014973
6130.0 0.0014422
6150.0 0.0013548
6170.0 0.0014999
6190.0 0.0018033
6210.0 0.0021638
6230.0 0.0024392
6250.0 0.0024289
6270.0 0.0021912
6290.0 0.0018138
6310.0 0.0014472
6330.0 0.0011618
6350.0 0.0010538
6370.0 0.001149
6390.0 0.0013486
6410.0 0.0015456
6430.0 0.0017878
6450.0 0.002078
6470.0 0.0025674
6490.0 0.0031484
6510.0 0.0034564
6530.0 0.0032134
6550.0 0.0029661
6570.0 0.002918
6590.0 0.0028041
6610.0 0.0025348
6630.0 0.0022759
6650.0 0.0021039
6670.0 0.0021846
6690.0 0.0021727
6710.0 0.0019262
6730.0 0.0017852
6750.0 0.0015875
6770.0 0.0015283
6790.0 0.0016484
6810.0 0.0017371
6830.0 0.0017795
6850.0 0.0017491
6870.0 0.0016767
6890.0 0.0016427
6910.0 0.0015617
6930.0 0.0014754
6950.0 0.0014839
6970.0 0.0015148
6990.0 0.0016864
7010.0 0.0017944
7030.0 0.0016342
7050.0 0.0015308
7070.0 0.0014724
7090.0 0.0013248
7110.0 0.0012342
7130.0 0.0012563
7150.0 0.0013047
7170.0 0.0013743
7190.0 0.0013764
7210.0 0.0013833
7230.0 0.001457
7250.0 0.001678
7270.0 0.0019601
7290.0 0.0021006
7310.0 0.0020353
7330.0 0.0018102
7350.0 0.0016272
7370.0 0.0016002
7390.0 0.0016154
7410.0 0.0016745
7430.0 0.0018334
7450.0 0.0019874
7470.0 0.0022023
7490.0 0.0024335
7510.0 0.0022372
7530.0 0.0021417
7550.0 0.0017987
7570.0 0.0015116
7590.0 0.0012458
7610.0 0.0011436
7630.0 0.0011965
7650.0 0.0013684
7670.0 0.0014908
7690.0 0.0016815
7710.0 0.0018744
7730.0 0.0019602
7750.0 0.0019649
7770.0 0.0019577
7790.0 0.001929
7810.0 0.0020038
7830.0 0.0019371
7850.0 0.0017284
7870.0 0.0015609
7890.0 0.0014544
7910.0 0.0013118
7930.0 0.0011225
7950.0 0.0010276
7970.0 0.0010217
7990.0 0.0010694
8010.0 0.0011353
8030.0 0.0011519
8050.0 0.0011472
8070.0 0.0011147
8090.0 0.0011095
8110.0 0.0010544
8130.0 0.00098275
8150.0 0.00092393
8170.0 0.00090141
8190.0 0.00092066
8210.0 0.00092311
8230.0 0.00095993
8250.0 0.00095412
8270.0 0.00085282
8290.0 0.0006551
8310.0 0.00044609
8330.0 0.00029422
8350.0 0.00020884
8370.0 0.00024796
8390.0 0.00027439
8410.0 0.00035142
8430.0 0.00042583
8450.0 0.00046657
8470.0 0.00048392
8490.0 0.00049697
8510.0 0.00051915
8530.0 0.00058055
8550.0 0.00064144
8570.0 0.00075366
8590.0 0.00092436
8610.0 0.0010824
8630.0 0.0012653
8650.0 0.0014232
8670.0 0.0014021
8690.0 0.001314
8710.0 0.0012418
8730.0 0.0011737
8750.0 0.0011227
8770.0 0.0010895
8790.0 0.0010557
8810.0 0.00098352
8830.0 0.00088688
8850.0 0.00076796
8870.0 0.00065613
8890.0 0.00059267
8910.0 0.0005994
8930.0 0.00059863
8950.0 0.00065003
8970.0 0.00066512
8990.0 0.00069094
9010.0 0.00071656
9030.0 0.00072228
9050.0 0.00072497
9070.0 0.00072699
9090.0 0.00072849
9110.0 0.00072923
9130.0 0.00073042
9150.0 0.00073207
9170.0 0.00073371
9190.0 0.00073533
9210.0 0.00073786
9230.0 0.00073973
9250.0 0.0007419
9270.0 0.00074419
9290.0 0.00074661
9310.0 0.00074925
9330.0 0.00075206
9350.0 0.00075493
9370.0 0.000758
9390.0 0.00076124
9410.0 0.00076459
9430.0 0.00076801
9450.0 0.00077168
9470.0 0.00077546
9490.0 0.00077932
9510.0 0.00078333
9530.0 0.00078752
9550.0 0.00079174
9570.0 0.00079608
9590.0 0.0008006
9610.0 0.00080522
9630.0 0.00080988
9650.0 0.00081468
9670.0 0.00081965
9690.0 0.00082464
9710.0 0.00082972
9730.0 0.00083495
9750.0 0.00084025
9770.0 0.00084552
9790.0 0.00085096
9810.0 0.0008565
9830.0 0.00086205
9850.0 0.00086765
9870.0 0.00087339
9890.0 0.00087915
9910.0 0.00088489
9930.0 0.00089073
9950.0 0.0008966
9970.0 0.00090247
9990.0 0.00090835
10010.0 0.00089349
10030.0 0.00089925
10050.0 0.00090491
10070.0 0.00091043
10090.0 0.00091633
10110.0 0.00092208
10130.0 0.00092782
10150.0 0.00093361
10170.0 0.00093931
10190.0 0.00094487
10210.0 0.00095051
10230.0 0.00095614
10250.0 0.00096161
10270.0 0.00096705
10290.0 0.00097252
10310.0 0.00097783
10330.0 0.00098298
10350.0 0.00098818
10370.0 0.00099331
10390.0 0.00099825
10410.0 0.0010031
10430.0 0.001008
10450.0 0.0010127
10470.0 0.0010172
10490.0 0.0010217
10510.0 0.001026
10530.0 0.0010301
10550.0 0.0010341
10570.0 0.0010381
10590.0 0.0010419
10610.0 0.0010455
10630.0 0.001049
10650.0 0.0010524
10670.0 0.0010554
10690.0 0.0010584
10710.0 0.0010613
10730.0 0.0010639
10750.0 0.0010662
10770.0 0.0010686
10790.0 0.0010707
10810.0 0.0010726
10830.0 0.0010742
10850.0 0.0010758
10870.0 0.0010767
10890.0 0.001077
10910.0 0.0010765
10930.0 0.0010747
10950.0 0.0010705
10970.0 0.0010636
10990.0 0.0010539
11010.0 0.0010183
11030.0 0.0010004
11050.0 0.00097952
11070.0 0.00095515
11090.0 0.00092623
11110.0 0.00089669
11130.0 0.00086618
11150.0 0.00083369
11170.0 0.00080077
11190.0 0.00076957
11210.0 0.00073819
11230.0 0.00070704
11250.0 0.0006784
11270.0 0.00065196
11290.0 0.00062654
11310.0 0.00060348
11330.0 0.00058399
11350.0 0.00056618
11370.0 0.00055013
11390.0 0.00053642
11410.0 0.00052434
11430.0 0.00051272
11450.0 0.00050206
11470.0 0.000492
11490.0 0.00048164
11510.0 0.00047056
11530.0 0.00045932
11550.0 0.00044745
11570.0 0.00043431
11590.0 0.0004205
11610.0 0.00040651
11630.0 0.00039154
11650.0 0.00037594
11670.0 0.00036105
11690.0 0.00034644
11710.0 0.00033188
11730.0 0.00031826
11750.0 0.00030603
11770.0 0.00029438
11790.0 0.00028373
11810.0 0.00027452
11830.0 0.00026634
11850.0 0.0002588
11870.0 0.00025234
11890.0 0.0002467
11910.0 0.00024141
11930.0 0.00023639
11950.0 0.0002317
11970.0 0.00022698
11990.0 0.00022199
12010.0 0.00021692
12030.0 0.00021175
12050.0 0.00020622
12070.0 0.00020042
12090.0 0.00019485
12110.0 0.00018925
12130.0 0.00018371
12150.0 0.00017861
12170.0 0.0001741
12190.0 0.00017002
12210.0 0.00016679
12230.0 0.00016454
12250.0 0.00016322
12270.0 0.00016296
12290.0 0.00016376
12310.0 0.00016547
12330.0 0.00016827
12350.0 0.00017197
12370.0 0.00017626
12390.0 0.00018122
12410.0 0.000187
12430.0 0.00019273
12450.0 0.00019848
12470.0 0.00020441
12490.0 0.0002101
12510.0 0.00021514
12530.0 0.00021986
12550.0 0.00022409
12570.0 0.00022742
12590.0 0.00022996
12610.0 0.00023181
12630.0 0.00023277
12650.0 0.00023282
12670.0 0.00023214
12690.0 0.00023071
12710.0 0.00022861
12730.0 0.00022596
12750.0 0.00022267
12770.0 0.00021896
12790.0 0.00021498
12810.0 0.00021062
12830.0 0.00020591
12850.0 0.00020117
12870.0 0.0001963
12890.0 0.00019113
12910.0 0.00018589
12930.0 0.00018069
12950.0 0.00017522
12970.0 0.00016955
12990.0 0.00016405
13010.0 0.00015849
13030.0 0.00015275
13050.0 0.00014711
13070.0 0.00014171
13090.0 0.00013623
13110.0 0.00013089
13130.0 0.00012594
13150.0 0.00012127
13170.0 0.00011677
13190.0 0.00011285
13210.0 0.00010949
13230.0 0.00010656
13250.0 0.00010418
13270.0 0.00010246
13290.0 0.00010129
13310.0 0.00010072
13330.0 0.00010075
13350.0 0.0001013
13370.0 0.00010239
13390.0 0.00010399
13410.0 0.00010583
13430.0 0.00010801
13450.0 0.00011048
13470.0 0.00011303
13490.0 0.00011555
13510.0 0.00011824
13530.0 0.0001208
13550.0 0.0001231
13570.0 0.00012525
13590.0 0.00012723
13610.0 0.00012887
13630.0 0.00013019
13650.0 0.0001313
13670.0 0.00013211
13690.0 0.00013259
13710.0 0.00013283
13730.0 0.00013283
13750.0 0.00013256
13770.0 0.00013209
13790.0 0.0001314
13810.0 0.00013053
13830.0 0.00012953
13850.0 0.00012835
13870.0 0.00012701
13890.0 0.00012558
13910.0 0.00012405
13930.0 0.00012236
13950.0 0.00012058
13970.0 0.00011882
13990.0 0.00011696
14010.0 0.00011505
14030.0 0.00011319
14050.0 0.00011137
14070.0 0.00010951
14090.0 0.00010778
14110.0 0.00010621
14130.0 0.00010474
14150.0 0.00010342
14170.0 0.00010234
14190.0 0.00010146
14210.0 0.00010079
14230.0 0.00010037
14250.0 0.00010018
14270.0 0.00010024
14290.0 0.00010056
14310.0 0.00010109
14330.0 0.00010182
14350.0 0.00010277
14370.0 0.00010387
14390.0 0.00010506
14410.0 0.00010641
14430.0 0.00010787
14450.0 0.00010933
14470.0 0.00011084
14490.0 0.00011247
14510.0 0.00011408
14530.0 0.00011568
14550.0 0.0001174
14570.0 0.00011922
14590.0 0.00012108
14610.0 0.00012312
14630.0 0.00012544
14650.0 0.00012791
14670.0 0.00013058
14690.0 0.00013361
14710.0 0.00013698
14730.0 0.00014042
14750.0 0.00014418
14770.0 0.00014828
14790.0 0.00015245
14810.0 0.00015664
14830.0 0.00016116
14850.0 0.00016559
14870.0 0.00016975
14890.0 0.0001738
14910.0 0.00017767
14930.0 0.00018103
14950.0 0.0001839
14970.0 0.00018637
14990.0 0.00018826
15010.0 0.00018956
15030.0 0.00019041
15050.0 0.00019084
15070.0 0.00019092
15090.0 0.00019079
15110.0 0.00019051
15130.0 0.00019014
15150.0 0.00018974
15170.0 0.00018931
15190.0 0.00018886
15210.0 0.00018843
15230.0 0.000188
15250.0 0.00018755
15270.0 0.00018711
15290.0 0.0001867
15310.0 0.00018627
15330.0 0.00018583
15350.0 0.00018542
15370.0 0.00018501
15390.0 0.00018457
15410.0 0.00018415
15430.0 0.00018374
15450.0 0.00018332
15470.0 0.00018289
15490.0 0.00018249
15510.0 0.00018209
15530.0 0.00018166
15550.0 0.00018125
15570.0 0.00018085
15590.0 0.00018043
15610.0 0.00018001
15630.0 0.0001796
15650.0 0.0001792
15670.0 0.00017877
15690.0 0.00017836
15710.0 0.00017797
15730.0 0.00017755
15750.0 0.00017712
15770.0 0.00017672
15790.0 0.00017631
15810.0 0.00017587
15830.0 0.00017545
15850.0 0.00017504
15870.0 0.00017462
15890.0 0.00017419
15910.0 0.00017378
15930.0 0.00017335
15950.0 0.00017291
15970.0 0.00017248
15990.0 0.00017206
16010.0 0.00017162
16030.0 0.00017117
16050.0 0.00017075
16070.0 0.00017031
16090.0 0.00016986
16110.0 0.00016941
16130.0 0.00016898
16150.0 0.00016851
16170.0 0.00016805
16190.0 0.00016761
16210.0 0.00016715
16230.0 0.00016668
16250.0 0.00016622
16270.0 0.00016577
16290.0 0.00016529
16310.0 0.00016481
16330.0 0.00016435
16350.0 0.00016387
16370.0 0.00016336
16390.0 0.00016289
16410.0 0.00016241
16430.0 0.00016191
16450.0 0.00016141
16470.0 0.00016093
16490.0 0.00016043
16510.0 0.00015991
16530.0 0.00015941
16550.0 0.00015891
16570.0 0.00015838
16590.0 0.00015786
16610.0 0.00015735
16630.0 0.00015683
16650.0 0.00015629
16670.0 0.00015577
16690.0 0.00015525
16710.0 0.00015469
16730.0 0.00015415
16750.0 0.00015362
16770.0 0.00015307
16790.0 0.00015251
16810.0 0.00015197
16830.0 0.00015142
16850.0 0.00015085
16870.0 0.00015029
16890.0 0.00014973
16910.0 0.00014916
16930.0 0.00014857
16950.0 0.000148
16970.0 0.00014743
16990.0 0.00014684
17010.0 0.00014626
17030.0 0.00014569
17050.0 0.00014509
17070.0 0.00014449
17090.0 0.0001439
17110.0 0.00014331
17130.0 0.00014269
17150.0 0.00014208
17170.0 0.00014149
17190.0 0.00014088
17210.0 0.00014026
17230.0 0.00013966
17250.0 0.00013904
17270.0 0.00013841
17290.0 0.00013779
17310.0 0.00013717
17330.0 0.00013654
17350.0 0.0001359
17370.0 0.00013528
17390.0 0.00013465
17410.0 0.00013401
17430.0 0.00013337
17450.0 0.00013275
17470.0 0.00013209
17490.0 0.00013144
17510.0 0.0001308
17530.0 0.00013016
17550.0 0.0001295
17570.0 0.00012885
17590.0 0.00012821
17610.0 0.00012755
17630.0 0.00012689
17650.0 0.00012625
17670.0 0.00012559
17690.0 0.0001249
17710.0 0.00012426
17730.0 0.0001236
17750.0 0.00012293
17770.0 0.00012226
17790.0 0.00012162
17810.0 0.00012094
17830.0 0.00012027
17850.0 0.00011961
17870.0 0.00011894
17890.0 0.00011826
17910.0 0.00011758
17930.0 0.00011693
17950.0 0.00011626
17970.0 0.00011558
17990.0 0.00011492
18010.0 0.00011425
18030.0 0.00011356
18050.0 0.00011288
18070.0 0.00011222
18090.0 0.00011154
18110.0 0.00011086
18130.0 0.0001102
18150.0 0.00010953
18170.0 0.00010885
18190.0 0.00010817
18210.0 0.00010751
18230.0 0.00010683
18250.0 0.00010614
18270.0 0.00010548
18290.0 0.00010481
18310.0 0.00010413
18330.0 0.00010346
18350.0 0.00010281
18370.0 0.00010213
18390.0 0.00010145
18410.0 0.00010079
18430.0 0.00010012
18450.0 9.9437e-05
18470.0 9.8773e-05
18490.0 9.812e-05
18510.0 9.7448e-05
18530.0 9.6779e-05
18550.0 9.613e-05
18570.0 9.5467e-05
18590.0 9.479e-05
18610.0 9.4134e-05
18630.0 9.3483e-05
18650.0 9.2816e-05
18670.0 9.2149e-05
18690.0 9.151e-05
18710.0 9.0856e-05
18730.0 9.0194e-05
18750.0 8.9548e-05
18770.0 8.891e-05
18790.0 8.8242e-05
18810.0 8.7589e-05
18830.0 8.6954e-05
18850.0 8.6309e-05
18870.0 8.5654e-05
18890.0 8.5021e-05
18910.0 8.4391e-05
18930.0 8.3742e-05
18950.0 8.3103e-05
18970.0 8.2479e-05
18990.0 8.1843e-05
19010.0 8.119e-05
19030.0 8.0572e-05
19050.0 7.995e-05
19070.0 7.9315e-05
19090.0 7.8689e-05
19110.0 7.8083e-05
19130.0 7.7453e-05
19150.0 7.6823e-05
19170.0 7.6213e-05
19190.0 7.5602e-05
19210.0 7.4975e-05
19230.0 7.436e-05
19250.0 7.3765e-05
19270.0 7.3153e-05
19290.0 7.254e-05
19310.0 7.1946e-05
19330.0 7.135e-05
19350.0 7.0731e-05
19370.0 7.0134e-05
19390.0 6.9547e-05
19410.0 6.8948e-05
19430.0 6.8346e-05
19450.0 6.7769e-05
19470.0 6.7185e-05
19490.0 6.6589e-05
19510.0 6.6007e-05
19530.0 6.5436e-05
19550.0 6.4845e-05
19570.0 6.4255e-05
19590.0 6.3691e-05
19610.0 6.312e-05
19630.0 6.2539e-05
19650.0 6.1973e-05
19670.0 6.1418e-05
19690.0 6.0843e-05
19710.0 6.0274e-05
19730.0 5.9721e-05
19750.0 5.9163e-05
19770.0 5.8589e-05
19790.0 5.8039e-05
19810.0 5.7496e-05
19830.0 5.6937e-05
19850.0 5.6381e-05
19870.0 5.5838e-05
19890.0 5.5272e-05
19910.0 5.4676e-05
19930.0 5.407e-05
19950.0 5.3423e-05
19970.0 5.2692e-05
19990.0 5.188e-05
20010.0 5.1796e-05
20030.0 5.0807e-05
20050.0 4.9717e-05
20070.0 4.8594e-05
20090.0 4.7441e-05
20110.0 4.62e-05
20130.0 4.4996e-05
20150.0 4.3847e-05
20170.0 4.2702e-05
20190.0 4.1584e-05
20210.0 4.0561e-05
20230.0 3.9593e-05
20250.0 3.8653e-05
20270.0 3.7804e-05
20290.0 3.7048e-05
20310.0 3.6351e-05
20330.0 3.5721e-05
20350.0 3.5213e-05
20370.0 3.4782e-05
20390.0 3.4427e-05
20410.0 3.4167e-05
20430.0 3.3992e-05
20450.0 3.3895e-05
20470.0 3.3881e-05
20490.0 3.394e-05
20510.0 3.4066e-05
20530.0 3.4266e-05
20550.0 3.452e-05
20570.0 3.481e-05
20590.0 3.5157e-05
20610.0 3.5544e-05
20630.0 3.5944e-05
20650.0 3.6372e-05
20670.0 3.6843e-05
20690.0 3.7302e-05
20710.0 3.7761e-05
20730.0 3.8239e-05
20750.0 3.8722e-05
20770.0 3.9179e-05
20790.0 3.9647e-05
20810.0 4.0129e-05
20830.0 4.0597e-05
20850.0 4.1059e-05
20870.0 4.155e-05
20890.0 4.2049e-05
20910.0 4.2528e-05
20930.0 4.3028e-05
20950.0 4.3552e-05
20970.0 4.4067e-05
20990.0 4.458e-05
21010.0 4.5126e-05
21030.0 4.5664e-05
21050.0 4.6179e-05
21070.0 4.6696e-05
21090.0 4.7216e-05
21110.0 4.7687e-05
21130.0 4.8127e-05
21150.0 4.8553e-05
21170.0 4.8937e-05
21190.0 4.9265e-05
21210.0 4.9563e-05
21230.0 4.9815e-05
21250.0 5.0003e-05
21270.0 5.0136e-05
21290.0 5.0217e-05
21310.0 5.0233e-05
21330.0 5.0188e-05
21350.0 5.0079e-05
21370.0 4.99e-05
21390.0 4.966e-05
21410.0 4.9356e-05
21430.0 4.8964e-05
21450.0 4.8514e-05
21470.0 4.8014e-05
21490.0 4.7441e-05
21510.0 4.6801e-05
21530.0 4.6139e-05
21550.0 4.5433e-05
21570.0 4.4665e-05
21590.0 4.3893e-05
21610.0 4.3128e-05
21630.0 4.2343e-05
21650.0 4.1551e-05
21670.0 4.0838e-05
21690.0 4.0153e-05
21710.0 3.9501e-05
21730.0 3.8926e-05
21750.0 3.8436e-05
21770.0 3.8001e-05
21790.0 3.766e-05
21810.0 3.742e-05
21830.0 3.7271e-05
21850.0 3.7218e-05
21870.0 3.7264e-05
21890.0 3.7396e-05
21910.0 3.7624e-05
21930.0 3.7942e-05
21950.0 3.8327e-05
21970.0 3.879e-05
21990.0 3.935e-05
22010.0 3.9946e-05
22030.0 4.0585e-05
22050.0 4.1291e-05
22070.0 4.2037e-05
22090.0 4.2774e-05
22110.0 4.3549e-05
22130.0 4.4354e-05
22150.0 4.5134e-05
22170.0 4.5893e-05
22190.0 4.6667e-05
22210.0 4.7406e-05
22230.0 4.8068e-05
22250.0 4.8699e-05
22270.0 4.9283e-05
22290.0 4.9781e-05
22310.0 5.0201e-05
22330.0 5.0559e-05
22350.0 5.0817e-05
22370.0 5.0977e-05
22390.0 5.1044e-05
22410.0 5.1005e-05
22430.0 5.0865e-05
22450.0 5.0628e-05
22470.0 5.0278e-05
22490.0 4.983e-05
22510.0 4.9303e-05
22530.0 4.866e-05
22550.0 4.7908e-05
22570.0 4.7102e-05
22590.0 4.6219e-05
22610.0 4.5229e-05
22630.0 4.4182e-05
22650.0 4.3122e-05
22670.0 4.197e-05
22690.0 4.076e-05
22710.0 3.9556e-05
22730.0 3.833e-05
22750.0 3.7015e-05
22770.0 3.5744e-05
22790.0 3.4514e-05
22810.0 3.3263e-05
22830.0 3.2027e-05
22850.0 3.0883e-05
22870.0 2.9774e-05
