#lamb flux
1010.0 2.293e-07
1030.0 2.5248e-07
1050.0 2.7913e-07
1070.0 3.0914e-07
1090.0 3.4323e-07
1110.0 3.7819e-07
1130.0 4.1337e-07
1150.0 4.5023e-07
1170.0 4.8825e-07
1190.0 5.243e-07
1210.0 5.6083e-07
1230.0 5.9859e-07
1250.0 6.3558e-07
1270.0 6.715e-07
1290.0 7.0946e-07
1310.0 7.4739e-07
1330.0 7.8377e-07
1350.0 8.2055e-07
1370.0 8.5853e-07
1390.0 8.9556e-07
1410.0 9.3149e-07
1430.0 9.6905e-07
1450.0 1.0066e-06
1470.0 1.0429e-06
1490.0 1.0796e-06
1510.0 1.1184e-06
1530.0 1.1551e-06
1550.0 1.1913e-06
1570.0 1.2288e-06
1590.0 1.2663e-06
1610.0 1.3022e-06
1630.0 1.3392e-06
1650.0 1.3771e-06
1670.0 1.4139e-06
1690.0 1.4501e-06
1710.0 1.4878e-06
1730.0 1.5257e-06
1750.0 1.5614e-06
1770.0 1.5982e-06
1790.0 1.6357e-06
1810.0 1.672e-06
1830.0 1.7077e-06
1850.0 1.7456e-06
1870.0 1.7826e-06
1890.0 1.8184e-06
1910.0 1.8549e-06
1930.0 1.8923e-06
1950.0 1.928e-06
1970.0 1.9633e-06
1990.0 2e-06
2010.0 2.036e-06
2030.0 2.0708e-06
2050.0 2.1066e-06
2070.0 2.1434e-06
2090.0 2.1779e-06
2110.0 2.2124e-06
2130.0 2.2478e-06
2150.0 2.2826e-06
2170.0 2.3156e-06
2190.0 2.35e-06
2210.0 2.3844e-06
2230.0 2.4173e-06
2250.0 2.4498e-06
2270.0 2.4839e-06
2290.0 2.5166e-06
2310.0 2.5478e-06
2330.0 2.5802e-06
2350.0 2.6134e-06
2370.0 2.6462e-06
2390.0 2.682e-06
2410.0 2.7249e-06
2430.0 2.7749e-06
2450.0 2.8355e-06
2470.0 2.9142e-06
2490.0 3.0146e-06
2510.0 3.1292e-06
2530.0 3.268e-06
2550.0 3.4426e-06
2570.0 3.6602e-06
2590.0 3.9431e-06
2610.0 4.3665e-06
2630.0 4.9691e-06
2650.0 5.7537e-06
2670.0 6.7644e-06
2690.0 8.0015e-06
2710.0 9.3156e-06
2730.0 1.0607e-05
2750.0 1.1872e-05
2770.0 1.2964e-05
2790.0 1.3821e-05
2810.0 1.4492e-05
2830.0 1.5006e-05
2850.0 1.5345e-05
2870.0 1.5585e-05
2890.0 1.5767e-05
2910.0 1.5905e-05
2930.0 1.6013e-05
2950.0 1.6114e-05
2970.0 1.6213e-05
2990.0 1.6304e-05
3010.0 0.00047671
3030.0 0.00047933
3050.0 0.00048185
3070.0 0.00048392
3090.0 0.00048561
3110.0 0.00048637
3130.0 0.00048554
3150.0 0.00048266
3170.0 0.00047678
3190.0 0.00046798
3210.0 0.00045704
3230.0 0.00044462
3250.0 0.00043219
3270.0 0.00042305
3290.0 0.00041745
3310.0 0.00041762
3330.0 0.00042298
3350.0 0.00043286
3370.0 0.00044726
3390.0 0.00046559
3410.0 0.00048563
3430.0 0.0005082
3450.0 0.00053424
3470.0 0.00056273
3490.0 0.000593
3510.0 0.00062726
3530.0 0.00066409
3550.0 0.0007018
3570.0 0.00074157
3590.0 0.00078499
3610.0 0.00083046
3630.0 0.00087565
3650.0 0.00092271
3670.0 0.00096548
3690.0 0.00099735
3710.0 0.0010151
3730.0 0.0010134
3750.0 0.00099461
3770.0 0.00099661
3790.0 0.0009897
3810.0 0.00092586
3830.0 0.00094746
3850.0 0.0011218
3870.0 0.0011771
3890.0 0.0011122
3910.0 0.0010956
3930.0 0.0011571
3950.0 0.0012154
3970.0 0.0011535
3990.0 0.00093116
4010.0 0.0026224
4030.0 0.0030985
4050.0 0.0035478
4070.0 0.0031899
4090.0 0.0029054
4110.0 0.0025337
4130.0 0.0024472
4150.0 0.0027503
4170.0 0.0025755
4190.0 0.0026515
4210.0 0.0026931
4230.0 0.0029384
4250.0 0.0034971
4270.0 0.0035982
4290.0 0.0032731
4310.0 0.0033167
4330.0 0.0034688
4350.0 0.0039949
4370.0 0.0046195
4390.0 0.0041766
4410.0 0.0029153
4430.0 0.0024004
4450.0 0.0022175
4470.0 0.001631
4490.0 0.0018945
4510.0 0.0031327
4530.0 0.0036683
4550.0 0.0036153
4570.0 0.0038604
4590.0 0.0043328
4610.0 0.0063889
4630.0 0.0084907
4650.0 0.0089017
4670.0 0.0081354
4690.0 0.0078609
4710.0 0.008277
4730.0 0.0075858
4750.0 0.0055174
4770.0 0.003975
4790.0 0.0038388
4810.0 0.0037504
4830.0 0.0034971
4850.0 0.0038218
4870.0 0.0050519
4890.0 0.0059287
4910.0 0.0050662
4930.0 0.0045881
4950.0 0.0051005
4970.0 0.0065898
4990.0 0.0089267
5010.0 0.010301
5030.0 0.0088812
5050.0 0.0058879
5070.0 0.0039452
5090.0 0.0031252
5110.0 0.0031442
5130.0 0.0036709
5150.0 0.0038892
5170.0 0.0037928
5190.0 0.0035037
5210.0 0.0037199
5230.0 0.0040537
5250.0 0.0044512
5270.0 0.0046328
5290.0 0.0050962
5310.0 0.0061307
5330.0 0.0067541
5350.0 0.0066992
5370.0 0.0071411
5390.0 0.0083718
5410.0 0.0080659
5430.0 0.006929
5450.0 0.0064964
5470.0 0.0070345
5490.0 0.0086297
5510.0 0.010706
5530.0 0.012317
5550.0 0.011725
5570.0 0.010632
5590.0 0.0091289
5610.0 0.008597
5630.0 0.0086462
5650.0 0.0081488
5670.0 0.0076585
5690.0 0.0066816
5710.0 0.0065998
5730.0 0.0061556
5750.0 0.004103
5770.0 0.0031363
5790.0 0.0036167
5810.0 0.0040167
5830.0 0.005195
5850.0 0.0063341
5870.0 0.0069863
5890.0 0.0070062
5910.0 0.0068656
5930.0 0.006543
5950.0 0.0066824
5970.0 0.007784
5990.0 0.007086
6010.0 0.0058316
6030.0 0.0048934
6050.0 0.0042856
6070.0 0.0044413
6090.0 0.0048522
6110.0 0.0053055
6130.0 0.0052791
6150.0 0.0044541
6170.0 0.0038023
6190.0 0.0043329
6210.0 0.0059634
6230.0 0.0080722
6250.0 0.0087504
6270.0 0.0074077
6290.0 0.006261
6310.0 0.0048611
6330.0 0.0036817
6350.0 0.0033574
6370.0 0.003529
6390.0 0.0041071
6410.0 0.0051316
6430.0 0.0060385
6450.0 0.0070321
6470.0 0.0078748
6490.0 0.0094825
6510.0 0.010609
6530.0 0.010533
6550.0 0.009567
6570.0 0.0079759
6590.0 0.0072759
6610.0 0.0062081
6630.0 0.0058358
6650.0 0.0055685
6670.0 0.0052404
6690.0 0.0045399
6710.0 0.0042039
6730.0 0.0026987
6750.0 0.002854
6770.0 0.0034239
6790.0 0.0041074
6810.0 0.0034825
6830.0 0.0035772
6850.0 0.0032414
6870.0 0.0029737
6890.0 0.0027671
6910.0 0.0030539
6930.0 0.0028658
6950.0 0.003068
6970.0 0.0032229
6990.0 0.0036368
7010.0 0.0036155
7030.0 0.0038109
7050.0 0.0035385
7070.0 0.0032509
7090.0 0.0033232
7110.0 0.0034574
7130.0 0.003795
7150.0 0.0041037
7170.0 0.0045531
7190.0 0.0049744
7210.0 0.0047601
7230.0 0.0048754
7250.0 0.0052275
7270.0 0.0056609
7290.0 0.0068002
7310.0 0.0073463
7330.0 0.0070559
7350.0 0.0063683
7370.0 0.0053233
7390.0 0.0052328
7410.0 0.0057626
7430.0 0.0064518
7450.0 0.0070076
7470.0 0.0067837
7490.0 0.0059465
7510.0 0.0073982
7530.0 0.0071632
7550.0 0.0065465
7570.0 0.004924
7590.0 0.003066
7610.0 0.0025417
7630.0 0.0030486
7650.0 0.0037088
7670.0 0.0049125
7690.0 0.0054184
7710.0 0.005441
7730.0 0.0056459
7750.0 0.0066019
7770.0 0.0067315
7790.0 0.0061714
7810.0 0.0054494
7830.0 0.0056966
7850.0 0.0057251
7870.0 0.0053471
7890.0 0.0043973
7910.0 0.0034036
7930.0 0.0033232
7950.0 0.0030229
7970.0 0.0027322
7990.0 0.0026574
8010.0 0.00050482
8030.0 0.00046195
8050.0 0.00049345
8070.0 0.00056083
8090.0 0.00069047
8110.0 0.00065593
8130.0 0.00039054
8150.0 0.00041192
8170.0 0.00023244
8190.0 0.00014351
8210.0 0.00038268
8230.0 0.0004629
8250.0 0.00020058
8270.0 0.00015737
8290.0 0.00029033
8310.0 0.00025846
8330.0 0.00016236
8350.0 0.00012641
8370.0 3.0014e-05
8390.0 0.00013781
8410.0 0.00015657
8430.0 0.00019324
8450.0 0.00022085
8470.0 0.00036319
8490.0 0.00030559
8510.0 0.0002434
8530.0 0.00014586
8550.0 0.000429
8570.0 0.00063691
8590.0 0.00046967
8610.0 0.0006919
8630.0 0.00077066
8650.0 0.00048603
8670.0 0.00066315
8690.0 0.0009437
8710.0 0.00081047
8730.0 0.00084818
8750.0 0.00067385
8770.0 0.00060322
8790.0 0.00065458
8810.0 0.00069929
8830.0 0.0004065
8850.0 0.00018593
8870.0 0.00012997
8890.0 0.00028493
8910.0 0.00044236
8930.0 0.00058474
8950.0 0.00063633
8970.0 0.00061203
8990.0 0.00045246
9010.0 0.0012821
9030.0 0.001081
9050.0 0.0010973
9070.0 0.0011174
9090.0 0.0011342
9110.0 0.001155
9130.0 0.0011703
9150.0 0.0011815
9170.0 0.0011934
9190.0 0.0012061
9210.0 0.0012194
9230.0 0.0012335
9250.0 0.0012478
9270.0 0.0012625
9290.0 0.0012776
9310.0 0.0012927
9330.0 0.001308
9350.0 0.0013238
9370.0 0.0013398
9390.0 0.0013558
9410.0 0.0013722
9430.0 0.0013891
9450.0 0.0014058
9470.0 0.0014228
9490.0 0.0014402
9510.0 0.0014578
9530.0 0.0014754
9550.0 0.0014937
9570.0 0.0015122
9590.0 0.0015307
9610.0 0.0015494
9630.0 0.0015687
9650.0 0.0015881
9670.0 0.0016074
9690.0 0.0016273
9710.0 0.0016475
9730.0 0.0016676
9750.0 0.0016881
9770.0 0.0017092
9790.0 0.0017302
9810.0 0.0017512
9830.0 0.0017728
9850.0 0.0017946
9870.0 0.0018162
9890.0 0.0018383
9910.0 0.0018607
9930.0 0.0018832
9950.0 0.0019057
9970.0 0.0019287
9990.0 0.0019519
10010.0 0.0017043
10030.0 0.0017244
10050.0 0.0017449
10070.0 0.0017655
10090.0 0.0017857
10110.0 0.0018064
10130.0 0.0018271
10150.0 0.0018477
10170.0 0.0018685
10190.0 0.0018897
10210.0 0.0019106
10230.0 0.0019314
10250.0 0.0019526
10270.0 0.0019737
10290.0 0.0019946
10310.0 0.0020157
10330.0 0.0020371
10350.0 0.0020581
10370.0 0.002079
10390.0 0.0021002
10410.0 0.0021212
10430.0 0.0021418
10450.0 0.0021627
10470.0 0.0021836
10490.0 0.0022041
10510.0 0.0022244
10530.0 0.0022452
10550.0 0.0022655
10570.0 0.0022854
10590.0 0.0023054
10610.0 0.0023254
10630.0 0.0023449
10650.0 0.0023642
10670.0 0.0023837
10690.0 0.0024028
10710.0 0.0024214
10730.0 0.0024401
10750.0 0.0024588
10770.0 0.0024767
10790.0 0.0024944
10810.0 0.0025122
10830.0 0.0025293
10850.0 0.0025456
10870.0 0.0025616
10890.0 0.0025759
10910.0 0.0025874
10930.0 0.002595
10950.0 0.0025965
10970.0 0.0025898
10990.0 0.0025741
11010.0 0.002402
11030.0 0.0023642
11050.0 0.0023177
11070.0 0.0022618
11090.0 0.0021946
11110.0 0.0021249
11130.0 0.0020523
11150.0 0.0019743
11170.0 0.0018939
11190.0 0.0018161
11210.0 0.0017358
11230.0 0.0016537
11250.0 0.0015754
11270.0 0.0015002
11290.0 0.001425
11310.0 0.0013538
11330.0 0.0012911
11350.0 0.0012318
11370.0 0.0011769
11390.0 0.0011293
11410.0 0.0010875
11430.0 0.0010485
11450.0 0.0010147
11470.0 0.00098531
11490.0 0.0009578
11510.0 0.0009312
11530.0 0.00090644
11550.0 0.00088184
11570.0 0.00085568
11590.0 0.00082868
11610.0 0.0008013
11630.0 0.00077164
11650.0 0.00074002
11670.0 0.00070892
11690.0 0.00067746
11710.0 0.00064507
11730.0 0.0006137
11750.0 0.00058465
11770.0 0.00055615
11790.0 0.0005294
11810.0 0.00050578
11830.0 0.00048457
11850.0 0.00046496
11870.0 0.00044843
11890.0 0.00043458
11910.0 0.00042231
11930.0 0.00041167
11950.0 0.00040272
11970.0 0.00039466
11990.0 0.00038703
12010.0 0.00037995
12030.0 0.00037315
12050.0 0.00036616
12070.0 0.00035894
12090.0 0.00035199
12110.0 0.00034496
12130.0 0.00033791
12150.0 0.00033138
12170.0 0.00032559
12190.0 0.00032048
12210.0 0.0003167
12230.0 0.00031452
12250.0 0.00031406
12270.0 0.0003157
12290.0 0.00031944
12310.0 0.00032513
12330.0 0.00033334
12350.0 0.00034376
12370.0 0.00035573
12390.0 0.00036963
12410.0 0.00038601
12430.0 0.00040268
12450.0 0.00041996
12470.0 0.00043837
12490.0 0.00045686
12510.0 0.00047419
12530.0 0.00049142
12550.0 0.00050802
12570.0 0.00052264
12590.0 0.00053542
12610.0 0.00054677
12630.0 0.00055575
12650.0 0.00056183
12670.0 0.00056571
12690.0 0.00056705
12710.0 0.00056575
12730.0 0.00056211
12750.0 0.00055591
12770.0 0.00054753
12790.0 0.00053745
12810.0 0.00052549
12830.0 0.00051172
12850.0 0.00049735
12870.0 0.00048219
12890.0 0.00046584
12910.0 0.00044926
12930.0 0.00043294
12950.0 0.00041595
12970.0 0.0003987
12990.0 0.0003824
13010.0 0.00036632
13030.0 0.00035009
13050.0 0.00033451
13070.0 0.00031991
13090.0 0.00030527
13110.0 0.00029111
13130.0 0.00027804
13150.0 0.00026564
13170.0 0.0002535
13190.0 0.00024265
13210.0 0.00023307
13230.0 0.00022428
13250.0 0.00021665
13270.0 0.00021057
13290.0 0.00020577
13310.0 0.00020234
13330.0 0.00020061
13350.0 0.00020045
13370.0 0.00020194
13390.0 0.0002052
13410.0 0.00020974
13430.0 0.00021575
13450.0 0.00022326
13470.0 0.00023167
13490.0 0.00024063
13510.0 0.00025079
13530.0 0.00026115
13550.0 0.00027111
13570.0 0.00028098
13590.0 0.00029064
13610.0 0.00029927
13630.0 0.00030684
13650.0 0.00031379
13670.0 0.0003196
13690.0 0.00032413
13710.0 0.00032766
13730.0 0.00033024
13750.0 0.00033158
13770.0 0.00033198
13790.0 0.00033148
13810.0 0.00033009
13830.0 0.00032798
13850.0 0.00032508
13870.0 0.00032139
13890.0 0.00031716
13910.0 0.00031238
13930.0 0.00030684
13950.0 0.00030079
13970.0 0.0002946
13990.0 0.00028786
14010.0 0.00028069
14030.0 0.00027355
14050.0 0.00026635
14070.0 0.00025876
14090.0 0.00025148
14110.0 0.00024464
14130.0 0.00023801
14150.0 0.00023176
14170.0 0.00022642
14190.0 0.00022179
14210.0 0.00021785
14230.0 0.00021491
14250.0 0.00021299
14270.0 0.00021202
14290.0 0.00021214
14310.0 0.00021327
14330.0 0.00021534
14350.0 0.00021842
14370.0 0.00022228
14390.0 0.0002267
14410.0 0.00023192
14430.0 0.00023767
14450.0 0.00024357
14470.0 0.00024971
14490.0 0.00025626
14510.0 0.00026255
14530.0 0.00026854
14550.0 0.00027454
14570.0 0.00028032
14590.0 0.00028559
14610.0 0.0002907
14630.0 0.00029575
14650.0 0.00030046
14670.0 0.00030501
14690.0 0.00030973
14710.0 0.0003147
14730.0 0.00031965
14750.0 0.00032513
14770.0 0.00033134
14790.0 0.00033807
14810.0 0.00034538
14830.0 0.00035403
14850.0 0.00036345
14870.0 0.00037329
14890.0 0.00038392
14910.0 0.00039522
14930.0 0.00040611
14950.0 0.0004163
14970.0 0.00042598
14990.0 0.00043412
15010.0 0.00044038
15030.0 0.00044506
15050.0 0.00044821
15070.0 0.00044982
15090.0 0.00045048
15110.0 0.00045048
15130.0 0.00045005
15150.0 0.00044943
15170.0 0.00044868
15190.0 0.00044785
15210.0 0.00044704
15230.0 0.00044624
15250.0 0.0004454
15270.0 0.00044457
15290.0 0.0004438
15310.0 0.000443
15330.0 0.00044219
15350.0 0.00044142
15370.0 0.00044066
15390.0 0.00043985
15410.0 0.00043907
15430.0 0.00043833
15450.0 0.00043756
15470.0 0.00043678
15490.0 0.00043605
15510.0 0.00043531
15530.0 0.00043455
15550.0 0.00043381
15570.0 0.0004331
15590.0 0.00043235
15610.0 0.00043159
15630.0 0.00043088
15650.0 0.00043016
15670.0 0.00042942
15690.0 0.0004287
15710.0 0.00042801
15730.0 0.00042728
15750.0 0.00042655
15770.0 0.00042586
15790.0 0.00042516
15810.0 0.00042441
15830.0 0.00042371
15850.0 0.00042302
15870.0 0.00042231
15890.0 0.00042159
15910.0 0.00042091
15930.0 0.00042021
15950.0 0.00041948
15970.0 0.00041878
15990.0 0.00041809
16010.0 0.00041737
16030.0 0.00041664
16050.0 0.00041597
16070.0 0.00041527
16090.0 0.00041454
16110.0 0.00041384
16130.0 0.00041316
16150.0 0.00041242
16170.0 0.00041169
16190.0 0.000411
16210.0 0.00041029
16230.0 0.00040955
16250.0 0.00040884
16270.0 0.00040815
16290.0 0.00040741
16310.0 0.00040668
16330.0 0.00040597
16350.0 0.00040525
16370.0 0.00040447
16390.0 0.00040376
16410.0 0.00040304
16430.0 0.00040228
16450.0 0.00040153
16470.0 0.00040082
16490.0 0.00040007
16510.0 0.00039929
16530.0 0.00039855
16550.0 0.00039781
16570.0 0.00039702
16590.0 0.00039624
16610.0 0.0003955
16630.0 0.00039473
16650.0 0.00039393
16670.0 0.00039317
16690.0 0.00039241
16710.0 0.00039158
16730.0 0.00039079
16750.0 0.00039002
16770.0 0.00038921
16790.0 0.00038838
16810.0 0.0003876
16830.0 0.0003868
16850.0 0.00038596
16870.0 0.00038514
16890.0 0.00038435
16910.0 0.0003835
16930.0 0.00038263
16950.0 0.00038182
16970.0 0.00038098
16990.0 0.00038012
17010.0 0.00037927
17030.0 0.00037844
17050.0 0.00037756
17070.0 0.00037668
17090.0 0.00037583
17110.0 0.00037496
17130.0 0.00037405
17150.0 0.00037317
17170.0 0.0003723
17190.0 0.0003714
17210.0 0.00037049
17230.0 0.00036962
17250.0 0.00036871
17270.0 0.00036777
17290.0 0.00036686
17310.0 0.00036596
17330.0 0.00036501
17350.0 0.00036406
17370.0 0.00036316
17390.0 0.00036222
17410.0 0.00036126
17430.0 0.00036032
17450.0 0.00035939
17470.0 0.0003584
17490.0 0.00035742
17510.0 0.00035648
17530.0 0.00035551
17550.0 0.00035451
17570.0 0.00035355
17590.0 0.00035259
17610.0 0.00035158
17630.0 0.00035058
17650.0 0.00034961
17670.0 0.00034861
17690.0 0.00034755
17710.0 0.00034657
17730.0 0.00034557
17750.0 0.00034454
17770.0 0.00034351
17790.0 0.00034253
17810.0 0.00034148
17830.0 0.00034043
17850.0 0.00033941
17870.0 0.00033838
17890.0 0.00033731
17910.0 0.00033625
17930.0 0.00033524
17950.0 0.00033418
17970.0 0.00033311
17990.0 0.00033207
18010.0 0.00033102
18030.0 0.00032991
18050.0 0.00032885
18070.0 0.0003278
18090.0 0.00032671
18110.0 0.00032561
18130.0 0.00032455
18150.0 0.00032348
18170.0 0.00032237
18190.0 0.00032129
18210.0 0.00032022
18230.0 0.0003191
18250.0 0.00031798
18270.0 0.0003169
18290.0 0.00031581
18310.0 0.00031468
18330.0 0.00031358
18350.0 0.0003125
18370.0 0.00031137
18390.0 0.00031024
18410.0 0.00030915
18430.0 0.00030804
18450.0 0.00030688
18470.0 0.00030576
18490.0 0.00030467
18510.0 0.00030353
18530.0 0.00030239
18550.0 0.0003013
18570.0 0.00030017
18590.0 0.000299
18610.0 0.00029788
18630.0 0.00029676
18650.0 0.00029561
18670.0 0.00029445
18690.0 0.00029335
18710.0 0.00029221
18730.0 0.00029105
18750.0 0.00028992
18770.0 0.00028881
18790.0 0.00028763
18810.0 0.00028647
18830.0 0.00028535
18850.0 0.00028421
18870.0 0.00028304
18890.0 0.00028191
18910.0 0.00028078
18930.0 0.00027961
18950.0 0.00027846
18970.0 0.00027734
18990.0 0.00027618
19010.0 0.00027499
19030.0 0.00027386
19050.0 0.00027273
19070.0 0.00027156
19090.0 0.00027041
19110.0 0.0002693
19130.0 0.00026813
19150.0 0.00026696
19170.0 0.00026582
19190.0 0.00026469
19210.0 0.00026351
19230.0 0.00026235
19250.0 0.00026123
19270.0 0.00026008
19290.0 0.00025891
19310.0 0.00025779
19330.0 0.00025665
19350.0 0.00025546
19370.0 0.00025432
19390.0 0.0002532
19410.0 0.00025204
19430.0 0.00025087
19450.0 0.00024975
19470.0 0.00024862
19490.0 0.00024745
19510.0 0.00024632
19530.0 0.0002452
19550.0 0.00024403
19570.0 0.00024287
19590.0 0.00024175
19610.0 0.00024062
19630.0 0.00023946
19650.0 0.00023833
19670.0 0.00023722
19690.0 0.00023607
19710.0 0.00023492
19730.0 0.00023381
19750.0 0.00023268
19770.0 0.00023151
19790.0 0.00023039
19810.0 0.00022928
19830.0 0.00022813
19850.0 0.00022698
19870.0 0.00022585
19890.0 0.00022464
19910.0 0.00022333
19930.0 0.00022192
19950.0 0.00022033
19970.0 0.00021839
19990.0 0.00021607
20010.0 0.00019328
20030.0 0.00019043
20050.0 0.00018709
20070.0 0.0001835
20090.0 0.00017963
20110.0 0.00017528
20130.0 0.00017088
20150.0 0.00016652
20170.0 0.00016201
20190.0 0.00015744
20210.0 0.00015313
20230.0 0.00014892
20250.0 0.00014471
20270.0 0.00014081
20290.0 0.00013724
20310.0 0.00013385
20330.0 0.00013067
20350.0 0.00012803
20370.0 0.00012568
20390.0 0.00012362
20410.0 0.00012194
20430.0 0.00012064
20450.0 0.00011959
20470.0 0.00011888
20490.0 0.00011848
20510.0 0.00011833
20530.0 0.00011844
20550.0 0.00011877
20570.0 0.00011927
20590.0 0.00011996
20610.0 0.0001208
20630.0 0.00012174
20650.0 0.0001228
20670.0 0.00012402
20690.0 0.00012526
20710.0 0.00012655
20730.0 0.00012794
20750.0 0.0001294
20770.0 0.00013083
20790.0 0.00013233
20810.0 0.00013391
20830.0 0.00013549
20850.0 0.00013706
20870.0 0.00013875
20890.0 0.00014047
20910.0 0.00014212
20930.0 0.00014383
20950.0 0.0001456
20970.0 0.00014732
20990.0 0.00014901
21010.0 0.0001508
21030.0 0.00015254
21050.0 0.00015419
21070.0 0.00015585
21090.0 0.0001575
21110.0 0.00015901
21130.0 0.00016043
21150.0 0.00016179
21170.0 0.00016303
21190.0 0.00016409
21210.0 0.00016505
21230.0 0.00016584
21250.0 0.00016639
21270.0 0.00016674
21290.0 0.00016686
21310.0 0.00016671
21330.0 0.0001663
21350.0 0.0001656
21370.0 0.00016458
21390.0 0.00016329
21410.0 0.00016171
21430.0 0.00015971
21450.0 0.00015747
21470.0 0.00015503
21490.0 0.00015228
21510.0 0.00014925
21530.0 0.00014618
21550.0 0.00014297
21570.0 0.00013954
21590.0 0.00013616
21610.0 0.00013291
21630.0 0.00012964
21650.0 0.00012645
21670.0 0.00012369
21690.0 0.00012114
21710.0 0.00011884
21730.0 0.00011695
21750.0 0.00011549
21770.0 0.00011437
21790.0 0.00011371
21810.0 0.00011351
21830.0 0.00011374
21850.0 0.00011441
21870.0 0.00011548
21890.0 0.00011687
21910.0 0.00011866
21930.0 0.00012076
21950.0 0.00012304
21970.0 0.00012557
21990.0 0.0001284
22010.0 0.00013124
22030.0 0.00013413
22050.0 0.00013716
22070.0 0.00014021
22090.0 0.0001431
22110.0 0.00014601
22130.0 0.00014892
22150.0 0.00015163
22170.0 0.0001542
22190.0 0.00015674
22210.0 0.0001591
22230.0 0.00016118
22250.0 0.00016314
22270.0 0.00016494
22290.0 0.00016648
22310.0 0.00016779
22330.0 0.00016895
22350.0 0.00016985
22370.0 0.00017047
22390.0 0.00017086
22410.0 0.00017097
22430.0 0.0001708
22450.0 0.00017035
22470.0 0.00016958
22490.0 0.0001685
22510.0 0.00016717
22530.0 0.00016546
22550.0 0.00016339
22570.0 0.0001611
22590.0 0.00015852
22610.0 0.00015554
22630.0 0.00015233
22650.0 0.00014901
22670.0 0.00014534
22690.0 0.00014142
22710.0 0.00013746
22730.0 0.00013339
22750.0 0.00012898
22770.0 0.00012466
22790.0 0.00012045
22810.0 0.00011612
22830.0 0.00011181
22850.0 0.00010777
22870.0 0.00010382
22890.0 9.9879e-05
22910.0 9.6252e-05
22930.0 9.2928e-05
22950.0 8.976e-05
22970.0 8.6827e-05
