#lamb flux
1010.0 2.7796e-07
1030.0 2.9223e-07
1050.0 3.0867e-07
1070.0 3.2719e-07
1090.0 3.4823e-07
1110.0 3.6983e-07
1130.0 3.916e-07
1150.0 4.1443e-07
1170.0 4.38e-07
1190.0 4.604e-07
1210.0 4.8314e-07
1230.0 5.0667e-07
1250.0 5.2977e-07
1270.0 5.5226e-07
1290.0 5.7606e-07
1310.0 5.9989e-07
1330.0 6.2282e-07
1350.0 6.4606e-07
1370.0 6.701e-07
1390.0 6.9362e-07
1410.0 7.1652e-07
1430.0 7.4051e-07
1450.0 7.6456e-07
1470.0 7.879e-07
1490.0 8.1155e-07
1510.0 8.3656e-07
1530.0 8.6037e-07
1550.0 8.8392e-07
1570.0 9.0832e-07
1590.0 9.3279e-07
1610.0 9.5626e-07
1630.0 9.8047e-07
1650.0 1.0053e-06
1670.0 1.0294e-06
1690.0 1.0532e-06
1710.0 1.0779e-06
1730.0 1.1027e-06
1750.0 1.1261e-06
1770.0 1.1501e-06
1790.0 1.1746e-06
1810.0 1.1983e-06
1830.0 1.2215e-06
1850.0 1.246e-06
1870.0 1.2699e-06
1890.0 1.293e-06
1910.0 1.3164e-06
1930.0 1.3404e-06
1950.0 1.3633e-06
1970.0 1.3858e-06
1990.0 1.4093e-06
2010.0 1.4323e-06
2030.0 1.4546e-06
2050.0 1.4777e-06
2070.0 1.5014e-06
2090.0 1.5239e-06
2110.0 1.5466e-06
2130.0 1.5701e-06
2150.0 1.5935e-06
2170.0 1.6163e-06
2190.0 1.6403e-06
2210.0 1.6648e-06
2230.0 1.6889e-06
2250.0 1.7135e-06
2270.0 1.7398e-06
2290.0 1.7659e-06
2310.0 1.7919e-06
2330.0 1.8194e-06
2350.0 1.8479e-06
2370.0 1.8764e-06
2390.0 1.9062e-06
2410.0 1.9381e-06
2430.0 1.9701e-06
2450.0 2.0024e-06
2470.0 2.0354e-06
2490.0 2.068e-06
2510.0 2.0984e-06
2530.0 2.1298e-06
2550.0 2.1669e-06
2570.0 2.2177e-06
2590.0 2.2935e-06
2610.0 2.4183e-06
2630.0 2.6071e-06
2650.0 2.8595e-06
2670.0 3.1853e-06
2690.0 3.5835e-06
2710.0 4.0125e-06
2730.0 4.4483e-06
2750.0 4.8987e-06
2770.0 5.3298e-06
2790.0 5.7277e-06
2810.0 6.1128e-06
2830.0 6.5036e-06
2850.0 6.8758e-06
2870.0 7.251e-06
2890.0 7.6466e-06
2910.0 8.0533e-06
2930.0 8.4576e-06
2950.0 8.884e-06
2970.0 9.3282e-06
2990.0 9.7705e-06
3010.0 1.9443e-05
3030.0 2.0333e-05
3050.0 2.123e-05
3070.0 2.2082e-05
3090.0 2.2913e-05
3110.0 2.3649e-05
3130.0 2.4177e-05
3150.0 2.4397e-05
3170.0 2.4122e-05
3190.0 2.324e-05
3210.0 2.1737e-05
3230.0 1.9909e-05
3250.0 1.9931e-05
3270.0 1.4814e-05
3290.0 1.6632e-05
3310.0 1.195e-05
3330.0 1.286e-05
3350.0 1.4485e-05
3370.0 1.6197e-05
3390.0 1.795e-05
3410.0 1.9696e-05
3430.0 2.1476e-05
3450.0 2.3244e-05
3470.0 2.4922e-05
3490.0 2.6138e-05
3510.0 2.8363e-05
3530.0 3.3153e-05
3550.0 3.7763e-05
3570.0 4.2322e-05
3590.0 5.1956e-05
3610.0 5.0493e-05
3630.0 5.4565e-05
3650.0 5.3585e-05
3670.0 5.8283e-05
3690.0 6.365e-05
3710.0 6.7345e-05
3730.0 7.7701e-05
3750.0 8.0958e-05
3770.0 8.2003e-05
3790.0 7.8e-05
3810.0 6.8776e-05
3830.0 6.3227e-05
3850.0 5.5595e-05
3870.0 6.0595e-05
3890.0 6.8945e-05
3910.0 8.1295e-05
3930.0 9.4322e-05
3950.0 0.00010249
3970.0 0.0001166
3990.0 0.00011997
4010.0 0.00011664
4030.0 0.00011849
4050.0 0.00010874
4070.0 0.00010409
4090.0 0.00010134
4110.0 9.6685e-05
4130.0 0.00010432
4150.0 0.00010057
4170.0 0.00010043
4190.0 9.8477e-05
4210.0 0.00010557
4230.0 0.0001012
4250.0 0.00010912
4270.0 0.00010883
4290.0 0.00010933
4310.0 0.00011669
4330.0 0.00012427
4350.0 0.00012516
4370.0 0.00012259
4390.0 0.00011676
4410.0 0.00010333
4430.0 8.6068e-05
4450.0 7.9421e-05
4470.0 8.1774e-05
4490.0 8.1718e-05
4510.0 9.2505e-05
4530.0 0.00010147
4550.0 0.00011974
4570.0 0.00015506
4590.0 0.00018956
4610.0 0.00020743
4630.0 0.00023795
4650.0 0.00026027
4670.0 0.00026205
4690.0 0.00023905
4710.0 0.00022202
4730.0 0.00019719
4750.0 0.0001617
4770.0 0.00013659
4790.0 0.00012171
4810.0 0.00013283
4830.0 0.00014755
4850.0 0.0001657
4870.0 0.00015831
4890.0 0.00018118
4910.0 0.00018924
4930.0 0.00020644
4950.0 0.00024205
4970.0 0.00025738
4990.0 0.00027111
5010.0 0.00025084
5030.0 0.00021056
5050.0 0.00017172
5070.0 0.00013633
5090.0 0.00012278
5110.0 0.00012061
5130.0 0.0001186
5150.0 0.00012417
5170.0 0.00012006
5190.0 0.00012664
5210.0 0.00012905
5230.0 0.00013899
5250.0 0.0001631
5270.0 0.00017753
5290.0 0.00019313
5310.0 0.00021788
5330.0 0.00023627
5350.0 0.00024238
5370.0 0.00024322
5390.0 0.00023862
5410.0 0.00023471
5430.0 0.00023834
5450.0 0.00026753
5470.0 0.00031449
5490.0 0.00036035
5510.0 0.00040341
5530.0 0.0004148
5550.0 0.00041169
5570.0 0.00040195
5590.0 0.0003929
5610.0 0.00038945
5630.0 0.00039069
5650.0 0.00039359
5670.0 0.00038946
5690.0 0.00036362
5710.0 0.00033302
5730.0 0.00029826
5750.0 0.00027976
5770.0 0.00026531
5790.0 0.00027148
5810.0 0.00028644
5830.0 0.00029714
5850.0 0.0002887
5870.0 0.00027501
5890.0 0.00027035
5910.0 0.00026311
5930.0 0.00025813
5950.0 0.00025236
5970.0 0.00024263
5990.0 0.00021474
6010.0 0.00018674
6030.0 0.00017061
6050.0 0.00016505
6070.0 0.00016118
6090.0 0.000161
6110.0 0.0001643
6130.0 0.00016582
6150.0 0.00017575
6170.0 0.00019451
6190.0 0.0002143
6210.0 0.00022488
6230.0 0.00022793
6250.0 0.00020964
6270.0 0.00018515
6290.0 0.00015913
6310.0 0.00013911
6330.0 0.00012855
6350.0 0.00012489
6370.0 0.00013114
6390.0 0.00014702
6410.0 0.00017277
6430.0 0.00020618
6450.0 0.00023419
6470.0 0.00025539
6490.0 0.00027357
6510.0 0.00028107
6530.0 0.00027904
6550.0 0.00028035
6570.0 0.00028333
6590.0 0.00027979
6610.0 0.00028263
6630.0 0.00027751
6650.0 0.00026872
6670.0 0.00025317
6690.0 0.00023168
6710.0 0.00022238
6730.0 0.00021045
6750.0 0.00021037
6770.0 0.00021607
6790.0 0.00022358
6810.0 0.00022761
6830.0 0.00022332
6850.0 0.0002142
6870.0 0.0002075
6890.0 0.00019772
6910.0 0.00018839
6930.0 0.00019311
6950.0 0.00019557
6970.0 0.00020347
6990.0 0.00021144
7010.0 0.00020961
7030.0 0.00019726
7050.0 0.00017652
7070.0 0.00015695
7090.0 0.00013905
7110.0 0.00012943
7130.0 0.00012435
7150.0 0.00012104
7170.0 0.00012522
7190.0 0.00012798
7210.0 0.00013493
7230.0 0.00014971
7250.0 0.00016032
7270.0 0.00016415
7290.0 0.000162
7310.0 0.00015461
7330.0 0.00014502
7350.0 0.00014003
7370.0 0.00014094
7390.0 0.00014832
7410.0 0.00016391
7430.0 0.00018295
7450.0 0.00020646
7470.0 0.0002243
7490.0 0.00023294
7510.0 0.00022388
7530.0 0.00020502
7550.0 0.00017897
7570.0 0.0001523
7590.0 0.00014102
7610.0 0.00014163
7630.0 0.00015109
7650.0 0.00017126
7670.0 0.00019095
7690.0 0.00020877
7710.0 0.00022491
7730.0 0.00023776
7750.0 0.00024845
7770.0 0.00025325
7790.0 0.00026142
7810.0 0.00026676
7830.0 0.00026558
7850.0 0.00026629
7870.0 0.00025666
7890.0 0.00024853
7910.0 0.00023417
7930.0 0.00022788
7950.0 0.00021926
7970.0 0.00022072
7990.0 0.00021846
8010.0 0.00021478
8030.0 0.00021494
8050.0 0.00022155
8070.0 0.00021712
8090.0 0.00021711
8110.0 0.00020915
8130.0 0.00020792
8150.0 0.00020131
8170.0 0.00019548
8190.0 0.00019271
8210.0 0.00019397
8230.0 0.00017959
8250.0 0.00016696
8270.0 0.00014559
8290.0 0.00011799
8310.0 9.3666e-05
8330.0 7.268e-05
8350.0 6.3291e-05
8370.0 6.9584e-05
8390.0 7.8111e-05
8410.0 8.5759e-05
8430.0 9.7448e-05
8450.0 0.00010299
8470.0 0.0001078
8490.0 0.00012032
8510.0 0.00013305
8530.0 0.00015427
8550.0 0.00018157
8570.0 0.00020549
8590.0 0.00022443
8610.0 0.00024207
8630.0 0.0002568
8650.0 0.00025929
8670.0 0.00026017
8690.0 0.00026866
8710.0 0.00027116
8730.0 0.00027449
8750.0 0.00026685
8770.0 0.00026717
8790.0 0.00026313
8810.0 0.00024447
8830.0 0.00023944
8850.0 0.00022605
8870.0 0.00021653
8890.0 0.00020479
8910.0 0.00021169
8930.0 0.00019801
8950.0 0.00019162
8970.0 0.00018938
8990.0 0.0001843
9010.0 0.00018259
9030.0 0.0001773
9050.0 0.00017627
9070.0 0.00017583
9090.0 0.0001754
9110.0 0.00017499
9130.0 0.00017452
9150.0 0.00017403
9170.0 0.00017326
9190.0 0.00017211
9210.0 0.00017319
9230.0 0.00017229
9250.0 0.00017157
9270.0 0.0001709
9290.0 0.00017024
9310.0 0.0001696
9330.0 0.00016896
9350.0 0.00016833
9370.0 0.00016768
9390.0 0.00016703
9410.0 0.00016637
9430.0 0.00016569
9450.0 0.00016496
9470.0 0.00016424
9490.0 0.00016359
9510.0 0.00016291
9530.0 0.00016221
9550.0 0.00016151
9570.0 0.00016079
9590.0 0.00016007
9610.0 0.00015935
9630.0 0.00015861
9650.0 0.00015788
9670.0 0.00015715
9690.0 0.00015641
9710.0 0.00015566
9730.0 0.00015492
9750.0 0.00015418
9770.0 0.00015343
9790.0 0.00015269
9810.0 0.00015195
9830.0 0.0001512
9850.0 0.00015046
9870.0 0.00014972
9890.0 0.00014898
9910.0 0.00014824
9930.0 0.00014749
9950.0 0.00014596
9970.0 0.00014546
9990.0 0.00014492
10010.0 0.00014436
10030.0 0.00014374
10050.0 0.00014305
10070.0 0.0001423
10090.0 0.00014165
10110.0 0.00014095
10130.0 0.00014027
10150.0 0.00013959
10170.0 0.00013889
10190.0 0.00013816
10210.0 0.00013747
10230.0 0.0001368
10250.0 0.0001361
10270.0 0.00013541
10290.0 0.00013476
10310.0 0.00013408
10330.0 0.00013338
10350.0 0.00013272
10370.0 0.00013207
10390.0 0.00013139
10410.0 0.00013072
10430.0 0.0001301
10450.0 0.00012944
10470.0 0.00012878
10490.0 0.00012815
10510.0 0.00012752
10530.0 0.00012685
10550.0 0.0001262
10570.0 0.00012559
10590.0 0.00012496
10610.0 0.00012431
10630.0 0.0001237
10650.0 0.00012309
10670.0 0.00012244
10690.0 0.00012182
10710.0 0.00012122
10730.0 0.00012059
10750.0 0.00011994
10770.0 0.00011935
10790.0 0.00011875
10810.0 0.00011812
10830.0 0.0001175
10850.0 0.00011692
10870.0 0.00011626
10890.0 0.00011559
10910.0 0.00011492
10930.0 0.00011418
10950.0 0.0001133
10970.0 0.00011232
10990.0 0.00011124
11010.0 0.0001029
11030.0 0.00010156
11050.0 0.00010017
11070.0 9.869e-05
11090.0 9.7043e-05
11110.0 9.5465e-05
11130.0 9.3905e-05
11150.0 9.2284e-05
11170.0 9.067e-05
11190.0 8.9161e-05
11210.0 8.7624e-05
11230.0 8.6058e-05
11250.0 8.458e-05
11270.0 8.3164e-05
11290.0 8.1716e-05
11310.0 8.0319e-05
11330.0 7.9075e-05
11350.0 7.7852e-05
11370.0 7.6661e-05
11390.0 7.5583e-05
11410.0 7.4584e-05
11430.0 7.3561e-05
11450.0 7.2607e-05
11470.0 7.1718e-05
11490.0 7.0814e-05
11510.0 6.9866e-05
11530.0 6.8954e-05
11550.0 6.802e-05
11570.0 6.6988e-05
11590.0 6.5913e-05
11610.0 6.4828e-05
11630.0 6.3626e-05
11650.0 6.2321e-05
11670.0 6.1036e-05
11690.0 5.971e-05
11710.0 5.8295e-05
11730.0 5.6882e-05
11750.0 5.5539e-05
11770.0 5.4147e-05
11790.0 5.2766e-05
11810.0 5.1486e-05
11830.0 5.0262e-05
11850.0 4.9026e-05
11870.0 4.7909e-05
11890.0 4.6907e-05
11910.0 4.5936e-05
11930.0 4.5022e-05
11950.0 4.4218e-05
11970.0 4.3461e-05
11990.0 4.2717e-05
12010.0 4.2048e-05
12030.0 4.1441e-05
12050.0 4.0845e-05
12070.0 4.0268e-05
12090.0 3.9772e-05
12110.0 3.9297e-05
12130.0 3.8837e-05
12150.0 3.843e-05
12170.0 3.8081e-05
12190.0 3.7748e-05
12210.0 3.748e-05
12230.0 3.7293e-05
12250.0 3.7175e-05
12270.0 3.7136e-05
12290.0 3.72e-05
12310.0 3.7364e-05
12330.0 3.7635e-05
12350.0 3.8021e-05
12370.0 3.8508e-05
12390.0 3.9102e-05
12410.0 3.9823e-05
12430.0 4.0606e-05
12450.0 4.145e-05
12470.0 4.2371e-05
12490.0 4.3329e-05
12510.0 4.4271e-05
12530.0 4.5233e-05
12550.0 4.6192e-05
12570.0 4.7091e-05
12590.0 4.7933e-05
12610.0 4.8737e-05
12630.0 4.9464e-05
12650.0 5.0087e-05
12670.0 5.0641e-05
12690.0 5.1113e-05
12710.0 5.1492e-05
12730.0 5.1788e-05
12750.0 5.2002e-05
12770.0 5.2132e-05
12790.0 5.219e-05
12810.0 5.2174e-05
12830.0 5.2081e-05
12850.0 5.194e-05
12870.0 5.1746e-05
12890.0 5.1485e-05
12910.0 5.1183e-05
12930.0 5.0856e-05
12950.0 5.047e-05
12970.0 5.0033e-05
12990.0 4.9593e-05
13010.0 4.912e-05
13030.0 4.8594e-05
13050.0 4.8049e-05
13070.0 4.7504e-05
13090.0 4.6906e-05
13110.0 4.6281e-05
13130.0 4.5668e-05
13150.0 4.5049e-05
13170.0 4.4398e-05
13190.0 4.379e-05
13210.0 4.3235e-05
13230.0 4.2703e-05
13250.0 4.2227e-05
13270.0 4.1844e-05
13290.0 4.1534e-05
13310.0 4.1302e-05
13330.0 4.1173e-05
13350.0 4.1135e-05
13370.0 4.1176e-05
13390.0 4.1291e-05
13410.0 4.1453e-05
13430.0 4.1645e-05
13450.0 4.1846e-05
13470.0 4.2025e-05
13490.0 4.2161e-05
13510.0 4.2237e-05
13530.0 4.2227e-05
13550.0 4.2128e-05
13570.0 4.1932e-05
13590.0 4.1625e-05
13610.0 4.1236e-05
13630.0 4.0782e-05
13650.0 4.0238e-05
13670.0 3.9646e-05
13690.0 3.9042e-05
13710.0 3.8412e-05
13730.0 3.7748e-05
13750.0 3.7137e-05
13770.0 3.6553e-05
13790.0 3.5981e-05
13810.0 3.5448e-05
13830.0 3.4975e-05
13850.0 3.4523e-05
13870.0 3.4101e-05
13890.0 3.3726e-05
13910.0 3.3385e-05
13930.0 3.3059e-05
13950.0 3.276e-05
13970.0 3.2497e-05
13990.0 3.2245e-05
14010.0 3.2007e-05
14030.0 3.1793e-05
14050.0 3.1596e-05
14070.0 3.1405e-05
14090.0 3.1234e-05
14110.0 3.1079e-05
14130.0 3.0935e-05
14150.0 3.0801e-05
14170.0 3.0683e-05
14190.0 3.0576e-05
14210.0 3.0478e-05
14230.0 3.0393e-05
14250.0 3.032e-05
14270.0 3.0259e-05
14290.0 3.0213e-05
14310.0 3.0181e-05
14330.0 3.0163e-05
14350.0 3.0159e-05
14370.0 3.0168e-05
14390.0 3.0183e-05
14410.0 3.0209e-05
14430.0 3.0239e-05
14450.0 3.0265e-05
14470.0 3.0288e-05
14490.0 3.0308e-05
14510.0 3.0316e-05
14530.0 3.031e-05
14550.0 3.0297e-05
14570.0 3.0275e-05
14590.0 3.0246e-05
14610.0 3.0216e-05
14630.0 3.0193e-05
14650.0 3.0178e-05
14670.0 3.0179e-05
14690.0 3.0207e-05
14710.0 3.027e-05
14730.0 3.0358e-05
14750.0 3.049e-05
14770.0 3.0676e-05
14790.0 3.0902e-05
14810.0 3.1169e-05
14830.0 3.1513e-05
14850.0 3.1903e-05
14870.0 3.2318e-05
14890.0 3.2778e-05
14910.0 3.3275e-05
14930.0 3.3749e-05
14950.0 3.4186e-05
14970.0 3.4595e-05
14990.0 3.4919e-05
15010.0 3.5138e-05
15030.0 3.5269e-05
15050.0 3.5315e-05
15070.0 3.5274e-05
15090.0 3.5179e-05
15110.0 3.5047e-05
15130.0 3.489e-05
15150.0 3.4721e-05
15170.0 3.4544e-05
15190.0 3.4363e-05
15210.0 3.4182e-05
15230.0 3.4001e-05
15250.0 3.3817e-05
15270.0 3.3634e-05
15290.0 3.3453e-05
15310.0 3.327e-05
15330.0 3.3087e-05
15350.0 3.2906e-05
15370.0 3.2724e-05
15390.0 3.2541e-05
15410.0 3.2358e-05
15430.0 3.2177e-05
15450.0 3.1996e-05
15470.0 3.1814e-05
15490.0 3.1634e-05
15510.0 3.1454e-05
15530.0 3.1273e-05
15550.0 3.1093e-05
15570.0 3.0915e-05
15590.0 3.0736e-05
15610.0 3.0556e-05
15630.0 3.0379e-05
15650.0 3.0203e-05
15670.0 3.0026e-05
15690.0 2.985e-05
15710.0 2.9675e-05
15730.0 2.95e-05
15750.0 2.9326e-05
15770.0 2.9153e-05
15790.0 2.8981e-05
15810.0 2.8808e-05
15830.0 2.8637e-05
15850.0 2.8468e-05
15870.0 2.8298e-05
15890.0 2.8129e-05
15910.0 2.7963e-05
15930.0 2.7796e-05
15950.0 2.7629e-05
15970.0 2.7464e-05
15990.0 2.7301e-05
16010.0 2.7137e-05
16030.0 2.6974e-05
16050.0 2.6814e-05
16070.0 2.6653e-05
16090.0 2.6493e-05
16110.0 2.6335e-05
16130.0 2.6179e-05
16150.0 2.6021e-05
16170.0 2.5866e-05
16190.0 2.5712e-05
16210.0 2.5559e-05
16230.0 2.5405e-05
16250.0 2.5255e-05
16270.0 2.5105e-05
16290.0 2.4955e-05
16310.0 2.4807e-05
16330.0 2.4661e-05
16350.0 2.4515e-05
16370.0 2.4369e-05
16390.0 2.4225e-05
16410.0 2.4083e-05
16430.0 2.3941e-05
16450.0 2.38e-05
16470.0 2.3662e-05
16490.0 2.3523e-05
16510.0 2.3386e-05
16530.0 2.325e-05
16550.0 2.3115e-05
16570.0 2.298e-05
16590.0 2.2847e-05
16610.0 2.2716e-05
16630.0 2.2586e-05
16650.0 2.2456e-05
16670.0 2.2328e-05
16690.0 2.2201e-05
16710.0 2.2074e-05
16730.0 2.1948e-05
16750.0 2.1825e-05
16770.0 2.1702e-05
16790.0 2.1579e-05
16810.0 2.1459e-05
16830.0 2.134e-05
16850.0 2.122e-05
16870.0 2.1103e-05
16890.0 2.0987e-05
16910.0 2.0871e-05
16930.0 2.0756e-05
16950.0 2.0643e-05
16970.0 2.0531e-05
16990.0 2.042e-05
17010.0 2.0309e-05
17030.0 2.0201e-05
17050.0 2.0093e-05
17070.0 1.9985e-05
17090.0 1.988e-05
17110.0 1.9775e-05
17130.0 1.967e-05
17150.0 1.9567e-05
17170.0 1.9465e-05
17190.0 1.9364e-05
17210.0 1.9264e-05
17230.0 1.9166e-05
17250.0 1.9068e-05
17270.0 1.897e-05
17290.0 1.8874e-05
17310.0 1.8779e-05
17330.0 1.8684e-05
17350.0 1.8591e-05
17370.0 1.8499e-05
17390.0 1.8408e-05
17410.0 1.8317e-05
17430.0 1.8227e-05
17450.0 1.8139e-05
17470.0 1.8051e-05
17490.0 1.7964e-05
17510.0 1.7878e-05
17530.0 1.7793e-05
17550.0 1.7708e-05
17570.0 1.7625e-05
17590.0 1.7543e-05
17610.0 1.7461e-05
17630.0 1.738e-05
17650.0 1.7301e-05
17670.0 1.7222e-05
17690.0 1.7143e-05
17710.0 1.7066e-05
17730.0 1.6989e-05
17750.0 1.6913e-05
17770.0 1.6838e-05
17790.0 1.6764e-05
17810.0 1.6691e-05
17830.0 1.6617e-05
17850.0 1.6546e-05
17870.0 1.6475e-05
17890.0 1.6404e-05
17910.0 1.6334e-05
17930.0 1.6266e-05
17950.0 1.6197e-05
17970.0 1.613e-05
17990.0 1.6063e-05
18010.0 1.5998e-05
18030.0 1.5931e-05
18050.0 1.5867e-05
18070.0 1.5803e-05
18090.0 1.574e-05
18110.0 1.5677e-05
18130.0 1.5615e-05
18150.0 1.5554e-05
18170.0 1.5493e-05
18190.0 1.5433e-05
18210.0 1.5374e-05
18230.0 1.5315e-05
18250.0 1.5257e-05
18270.0 1.52e-05
18290.0 1.5143e-05
18310.0 1.5086e-05
18330.0 1.5031e-05
18350.0 1.4976e-05
18370.0 1.4922e-05
18390.0 1.4867e-05
18410.0 1.4814e-05
18430.0 1.4762e-05
18450.0 1.4709e-05
18470.0 1.4657e-05
18490.0 1.4607e-05
18510.0 1.4556e-05
18530.0 1.4506e-05
18550.0 1.4457e-05
18570.0 1.4408e-05
18590.0 1.4359e-05
18610.0 1.4311e-05
18630.0 1.4264e-05
18650.0 1.4217e-05
18670.0 1.417e-05
18690.0 1.4125e-05
18710.0 1.408e-05
18730.0 1.4034e-05
18750.0 1.399e-05
18770.0 1.3946e-05
18790.0 1.3902e-05
18810.0 1.3859e-05
18830.0 1.3817e-05
18850.0 1.3774e-05
18870.0 1.3732e-05
18890.0 1.3691e-05
18910.0 1.3651e-05
18930.0 1.361e-05
18950.0 1.357e-05
18970.0 1.353e-05
18990.0 1.3491e-05
19010.0 1.3451e-05
19030.0 1.3413e-05
19050.0 1.3376e-05
19070.0 1.3338e-05
19090.0 1.33e-05
19110.0 1.3264e-05
19130.0 1.3227e-05
19150.0 1.319e-05
19170.0 1.3155e-05
19190.0 1.312e-05
19210.0 1.3084e-05
19230.0 1.3049e-05
19250.0 1.3015e-05
19270.0 1.2981e-05
19290.0 1.2947e-05
19310.0 1.2914e-05
19330.0 1.2881e-05
19350.0 1.2847e-05
19370.0 1.2815e-05
19390.0 1.2783e-05
19410.0 1.2751e-05
19430.0 1.2719e-05
19450.0 1.2688e-05
19470.0 1.2658e-05
19490.0 1.2627e-05
19510.0 1.2596e-05
19530.0 1.2567e-05
19550.0 1.2536e-05
19570.0 1.2506e-05
19590.0 1.2477e-05
19610.0 1.2448e-05
19630.0 1.2419e-05
19650.0 1.2391e-05
19670.0 1.2363e-05
19690.0 1.2335e-05
19710.0 1.2307e-05
19730.0 1.228e-05
19750.0 1.2252e-05
19770.0 1.2225e-05
19790.0 1.2198e-05
19810.0 1.2172e-05
19830.0 1.2145e-05
19850.0 1.2118e-05
19870.0 1.2091e-05
19890.0 1.2061e-05
19910.0 1.2027e-05
19930.0 1.1987e-05
19950.0 1.1939e-05
19970.0 1.1875e-05
19990.0 1.1792e-05
20010.0 1.1694e-05
20030.0 1.1573e-05
20050.0 1.1428e-05
20070.0 1.1269e-05
20090.0 1.1098e-05
20110.0 1.0905e-05
20130.0 1.0711e-05
20150.0 1.0519e-05
20170.0 1.0321e-05
20190.0 1.0121e-05
20210.0 9.9319e-06
20230.0 9.7474e-06
20250.0 9.5617e-06
20270.0 9.3881e-06
20290.0 9.2278e-06
20310.0 9.0735e-06
20330.0 8.9268e-06
20350.0 8.8022e-06
20370.0 8.689e-06
20390.0 8.5867e-06
20410.0 8.501e-06
20430.0 8.432e-06
20450.0 8.3739e-06
20470.0 8.3312e-06
20490.0 8.3037e-06
20510.0 8.289e-06
20530.0 8.2868e-06
20550.0 8.2965e-06
20570.0 8.3156e-06
20590.0 8.3446e-06
20610.0 8.3816e-06
20630.0 8.4234e-06
20650.0 8.4704e-06
20670.0 8.5234e-06
20690.0 8.576e-06
20710.0 8.628e-06
20730.0 8.6806e-06
20750.0 8.7311e-06
20770.0 8.7756e-06
20790.0 8.8166e-06
20810.0 8.8529e-06
20830.0 8.8817e-06
20850.0 8.9031e-06
20870.0 8.9177e-06
20890.0 8.9239e-06
20910.0 8.9218e-06
20930.0 8.912e-06
20950.0 8.8938e-06
20970.0 8.8687e-06
20990.0 8.8373e-06
21010.0 8.7976e-06
21030.0 8.7525e-06
21050.0 8.7038e-06
21070.0 8.6499e-06
21090.0 8.5905e-06
21110.0 8.5314e-06
21130.0 8.4714e-06
21150.0 8.4083e-06
21170.0 8.346e-06
21190.0 8.287e-06
21210.0 8.2275e-06
21230.0 8.1697e-06
21250.0 8.1177e-06
21270.0 8.07e-06
21290.0 8.0256e-06
21310.0 7.9871e-06
21330.0 7.956e-06
21350.0 7.9299e-06
21370.0 7.9101e-06
21390.0 7.8975e-06
21410.0 7.8914e-06
21430.0 7.892e-06
21450.0 7.8994e-06
21470.0 7.9127e-06
21490.0 7.9324e-06
21510.0 7.9582e-06
21530.0 7.9882e-06
21550.0 8.023e-06
21570.0 8.0639e-06
21590.0 8.1081e-06
21610.0 8.1547e-06
21630.0 8.206e-06
21650.0 8.2619e-06
21670.0 8.3167e-06
21690.0 8.3744e-06
21710.0 8.4357e-06
21730.0 8.4974e-06
21750.0 8.5582e-06
21770.0 8.6237e-06
21790.0 8.6895e-06
21810.0 8.7534e-06
21830.0 8.8181e-06
21850.0 8.8849e-06
21870.0 8.9494e-06
21890.0 9.0112e-06
21910.0 9.0745e-06
21930.0 9.1362e-06
21950.0 9.1939e-06
21970.0 9.2503e-06
21990.0 9.3064e-06
22010.0 9.3565e-06
22030.0 9.4023e-06
22050.0 9.4452e-06
22070.0 9.483e-06
22090.0 9.5139e-06
22110.0 9.5397e-06
22130.0 9.5593e-06
22150.0 9.5713e-06
22170.0 9.576e-06
22190.0 9.5727e-06
22210.0 9.5606e-06
22230.0 9.5411e-06
22250.0 9.5127e-06
22270.0 9.4748e-06
22290.0 9.4296e-06
22310.0 9.3772e-06
22330.0 9.3134e-06
22350.0 9.2427e-06
22370.0 9.167e-06
22390.0 9.0828e-06
22410.0 8.9891e-06
22430.0 8.8945e-06
22450.0 8.7957e-06
22470.0 8.6889e-06
22490.0 8.5799e-06
22510.0 8.4722e-06
22530.0 8.3582e-06
22550.0 8.241e-06
22570.0 8.1288e-06
22590.0 8.0172e-06
22610.0 7.9032e-06
22630.0 7.7928e-06
