#lamb flux
1010.0 5.6392e-08
1030.0 6.2244e-08
1050.0 6.8974e-08
1070.0 7.655e-08
1090.0 8.5156e-08
1110.0 9.3982e-08
1130.0 1.0287e-07
1150.0 1.1217e-07
1170.0 1.2177e-07
1190.0 1.3087e-07
1210.0 1.401e-07
1230.0 1.4963e-07
1250.0 1.5897e-07
1270.0 1.6804e-07
1290.0 1.7762e-07
1310.0 1.872e-07
1330.0 1.9638e-07
1350.0 2.0567e-07
1370.0 2.1526e-07
1390.0 2.2461e-07
1410.0 2.3368e-07
1430.0 2.4316e-07
1450.0 2.5265e-07
1470.0 2.6181e-07
1490.0 2.7108e-07
1510.0 2.8087e-07
1530.0 2.9014e-07
1550.0 2.9929e-07
1570.0 3.0876e-07
1590.0 3.1824e-07
1610.0 3.273e-07
1630.0 3.3664e-07
1650.0 3.4623e-07
1670.0 3.5551e-07
1690.0 3.6468e-07
1710.0 3.742e-07
1730.0 3.8379e-07
1750.0 3.9281e-07
1770.0 4.021e-07
1790.0 4.1159e-07
1810.0 4.2079e-07
1830.0 4.2984e-07
1850.0 4.3945e-07
1870.0 4.4882e-07
1890.0 4.5789e-07
1910.0 4.6716e-07
1930.0 4.7666e-07
1950.0 4.8575e-07
1970.0 4.9474e-07
1990.0 5.0408e-07
2010.0 5.1328e-07
2030.0 5.2217e-07
2050.0 5.3134e-07
2070.0 5.4075e-07
2090.0 5.4963e-07
2110.0 5.585e-07
2130.0 5.6764e-07
2150.0 5.7661e-07
2170.0 5.852e-07
2190.0 5.9411e-07
2210.0 6.0308e-07
2230.0 6.1167e-07
2250.0 6.2022e-07
2270.0 6.2916e-07
2290.0 6.3781e-07
2310.0 6.461e-07
2330.0 6.5471e-07
2350.0 6.6354e-07
2370.0 6.7232e-07
2390.0 6.8186e-07
2410.0 6.9321e-07
2430.0 7.0634e-07
2450.0 7.2211e-07
2470.0 7.4245e-07
2490.0 7.6821e-07
2510.0 7.9754e-07
2530.0 8.3294e-07
2550.0 8.7733e-07
2570.0 9.3259e-07
2590.0 1.0044e-06
2610.0 1.112e-06
2630.0 1.2653e-06
2650.0 1.4654e-06
2670.0 1.7237e-06
2690.0 2.0406e-06
2710.0 2.3782e-06
2730.0 2.7111e-06
2750.0 3.0383e-06
2770.0 3.3219e-06
2790.0 3.5462e-06
2810.0 3.7231e-06
2830.0 3.8604e-06
2850.0 3.9528e-06
2870.0 4.0197e-06
2890.0 4.0718e-06
2910.0 4.1127e-06
2930.0 4.1455e-06
2950.0 4.1767e-06
2970.0 4.2072e-06
2990.0 4.2356e-06
3010.0 0.00012148
3030.0 0.00012229
3050.0 0.00012308
3070.0 0.00012374
3090.0 0.00012429
3110.0 0.00012461
3130.0 0.00012451
3150.0 0.00012389
3170.0 0.00012248
3190.0 0.00012033
3210.0 0.00011762
3230.0 0.00011453
3250.0 0.00011146
3270.0 0.00010921
3290.0 0.0001079
3310.0 0.00010803
3330.0 0.00010952
3350.0 0.00011218
3370.0 0.000116
3390.0 0.00012083
3410.0 0.0001261
3430.0 0.00013203
3450.0 0.00013885
3470.0 0.00014631
3490.0 0.00015423
3510.0 0.00016318
3530.0 0.00017278
3550.0 0.00018254
3570.0 0.00019277
3590.0 0.00020392
3610.0 0.00021548
3630.0 0.00022699
3650.0 0.00023895
3670.0 0.00024984
3690.0 0.00025798
3710.0 0.00026258
3730.0 0.00026249
3750.0 0.00025834
3770.0 0.00025773
3790.0 0.00025612
3810.0 0.00024558
3830.0 0.00025246
3850.0 0.0002891
3870.0 0.00030491
3890.0 0.00029703
3910.0 0.00029584
3930.0 0.00030709
3950.0 0.00031629
3970.0 0.00029306
3990.0 0.00024541
4010.0 0.00071718
4030.0 0.00086041
4050.0 0.00098626
4070.0 0.00086817
4090.0 0.00078809
4110.0 0.00069174
4130.0 0.00064943
4150.0 0.00070732
4170.0 0.00068178
4190.0 0.00071628
4210.0 0.00071711
4230.0 0.00076846
4250.0 0.00091159
4270.0 0.000929
4290.0 0.00085116
4310.0 0.00087505
4330.0 0.00092409
4350.0 0.0010479
4370.0 0.0012007
4390.0 0.001109
4410.0 0.0008002
4430.0 0.00066986
4450.0 0.00061691
4470.0 0.00046533
4490.0 0.00051716
4510.0 0.00081197
4530.0 0.00094268
4550.0 0.00094112
4570.0 0.0010357
4590.0 0.0011724
4610.0 0.0016424
4630.0 0.0021549
4650.0 0.0023029
4670.0 0.0021206
4690.0 0.002034
4710.0 0.0021463
4730.0 0.0020007
4750.0 0.0014788
4770.0 0.0010764
4790.0 0.0010193
4810.0 0.00098184
4830.0 0.00090596
4850.0 0.00099232
4870.0 0.0013113
4890.0 0.0015431
4910.0 0.0013389
4930.0 0.0011966
4950.0 0.0013213
4970.0 0.0016997
4990.0 0.0023031
5010.0 0.0026533
5030.0 0.0023172
5050.0 0.0015545
5070.0 0.0010317
5090.0 0.00082547
5110.0 0.00084108
5130.0 0.00097556
5150.0 0.0010471
5170.0 0.0010271
5190.0 0.0009552
5210.0 0.001005
5230.0 0.0010725
5250.0 0.0011651
5270.0 0.0012379
5290.0 0.0013674
5310.0 0.0016139
5330.0 0.0017828
5350.0 0.00177
5370.0 0.0018707
5390.0 0.0021665
5410.0 0.0021311
5430.0 0.0018619
5450.0 0.0017252
5470.0 0.001847
5490.0 0.0022602
5510.0 0.0028163
5530.0 0.0032343
5550.0 0.0031057
5570.0 0.0028203
5590.0 0.0024392
5610.0 0.0022694
5630.0 0.0022353
5650.0 0.002119
5670.0 0.0020006
5690.0 0.00177
5710.0 0.0017353
5730.0 0.0016068
5750.0 0.0011065
5770.0 0.00085583
5790.0 0.00097678
5810.0 0.0010952
5830.0 0.0013738
5850.0 0.0016522
5870.0 0.0018286
5890.0 0.0018486
5910.0 0.0018127
5930.0 0.0017262
5950.0 0.0017605
5970.0 0.0020254
5990.0 0.0018782
6010.0 0.0015624
6030.0 0.0013163
6050.0 0.001149
6070.0 0.0011628
6090.0 0.0012648
6110.0 0.0014008
6130.0 0.0014103
6150.0 0.0012036
6170.0 0.0010454
6190.0 0.0011824
6210.0 0.0015896
6230.0 0.0021139
6250.0 0.0022907
6270.0 0.0019749
6290.0 0.0016649
6310.0 0.0012967
6330.0 0.00098869
6350.0 0.00089015
6370.0 0.0009359
6390.0 0.0010849
6410.0 0.0013454
6430.0 0.0015763
6450.0 0.0018173
6470.0 0.0020609
6490.0 0.0024859
6510.0 0.0027802
6530.0 0.0027418
6550.0 0.0024841
6570.0 0.0020921
6590.0 0.0018956
6610.0 0.0016271
6630.0 0.0014978
6650.0 0.0014218
6670.0 0.0013621
6690.0 0.0012087
6710.0 0.0011074
6730.0 0.00076038
6750.0 0.00077402
6770.0 0.00087757
6790.0 0.0010279
6810.0 0.00090951
6830.0 0.00093555
6850.0 0.00086325
6870.0 0.00078992
6890.0 0.00074855
6910.0 0.00080961
6930.0 0.00075894
6950.0 0.00079418
6970.0 0.00083501
6990.0 0.00094541
7010.0 0.00094744
7030.0 0.00097816
7050.0 0.00092212
7070.0 0.00086499
7090.0 0.00087465
7110.0 0.00090439
7130.0 0.00098169
7150.0 0.0010508
7170.0 0.0011623
7190.0 0.0012745
7210.0 0.0012381
7230.0 0.0012708
7250.0 0.0013642
7270.0 0.0014824
7290.0 0.0017687
7310.0 0.0019159
7330.0 0.0018471
7350.0 0.0016692
7370.0 0.0014278
7390.0 0.0013927
7410.0 0.0015027
7430.0 0.0016754
7450.0 0.0018226
7470.0 0.0017877
7490.0 0.0016025
7510.0 0.0018895
7530.0 0.0018519
7550.0 0.001677
7570.0 0.0012889
7590.0 0.00085025
7610.0 0.00071968
7630.0 0.00083583
7650.0 0.001
7670.0 0.0012781
7690.0 0.0014078
7710.0 0.001444
7730.0 0.0015095
7750.0 0.0017244
7770.0 0.0017546
7790.0 0.0016103
7810.0 0.0014488
7830.0 0.0015028
7850.0 0.0014821
7870.0 0.00137
7890.0 0.0011403
7910.0 0.0009077
7930.0 0.0008751
7950.0 0.00079676
7970.0 0.00073009
7990.0 0.00071928
8010.0 9.9012e-05
8030.0 9.2118e-05
8050.0 9.6532e-05
8070.0 0.00010729
8090.0 0.00012896
8110.0 0.00012344
8130.0 7.8582e-05
8150.0 8.1601e-05
8170.0 5.1374e-05
8190.0 3.6712e-05
8210.0 7.8476e-05
8230.0 9.312e-05
8250.0 5.0512e-05
8270.0 4.111e-05
8290.0 6.1553e-05
8310.0 5.292e-05
8330.0 3.3891e-05
8350.0 2.573e-05
8370.0 8.3188e-06
8390.0 2.8488e-05
8410.0 3.2513e-05
8430.0 4.0073e-05
8450.0 4.6154e-05
8470.0 7.1134e-05
8490.0 6.2221e-05
8510.0 5.2384e-05
8530.0 3.7976e-05
8550.0 8.7312e-05
8570.0 0.00012313
8590.0 9.9293e-05
8610.0 0.00014073
8630.0 0.00015997
8650.0 0.00011815
8670.0 0.00014822
8690.0 0.00019163
8710.0 0.00016659
8730.0 0.00016938
8750.0 0.00013791
8770.0 0.00012525
8790.0 0.00013251
8810.0 0.00013809
8830.0 8.6878e-05
8850.0 4.6218e-05
8870.0 3.3342e-05
8890.0 5.6922e-05
8910.0 8.3066e-05
8930.0 0.00010714
8950.0 0.0001151
8970.0 0.00011139
8990.0 8.4763e-05
9010.0 0.00036118
9030.0 0.00031387
9050.0 0.00031717
9070.0 0.0003215
9090.0 0.0003252
9110.0 0.00032977
9130.0 0.00033317
9150.0 0.0003357
9170.0 0.00033839
9190.0 0.00034126
9210.0 0.00034429
9230.0 0.00034748
9250.0 0.0003507
9270.0 0.00035404
9290.0 0.00035748
9310.0 0.00036091
9330.0 0.00036439
9350.0 0.00036801
9370.0 0.00037165
9390.0 0.0003753
9410.0 0.00037906
9430.0 0.00038293
9450.0 0.00038675
9470.0 0.00039066
9490.0 0.00039467
9510.0 0.00039871
9530.0 0.00040276
9550.0 0.00040696
9570.0 0.00041122
9590.0 0.00041548
9610.0 0.00041981
9630.0 0.00042426
9650.0 0.00042873
9670.0 0.0004332
9690.0 0.00043779
9710.0 0.00044246
9730.0 0.00044711
9750.0 0.00045184
9770.0 0.00045672
9790.0 0.00046157
9810.0 0.00046645
9830.0 0.00047143
9850.0 0.00047648
9870.0 0.00048149
9890.0 0.00048659
9910.0 0.00049179
9930.0 0.00049699
9950.0 0.0005022
9970.0 0.00050753
9990.0 0.00051291
10010.0 0.00044654
10030.0 0.00045119
10050.0 0.00045593
10070.0 0.00046074
10090.0 0.00046539
10110.0 0.00047017
10130.0 0.00047495
10150.0 0.0004797
10170.0 0.00048452
10190.0 0.00048941
10210.0 0.00049424
10230.0 0.00049905
10250.0 0.00050395
10270.0 0.00050884
10290.0 0.00051366
10310.0 0.00051855
10330.0 0.0005235
10350.0 0.00052835
10370.0 0.00053319
10390.0 0.00053809
10410.0 0.00054296
10430.0 0.00054773
10450.0 0.00055255
10470.0 0.00055739
10490.0 0.00056214
10510.0 0.00056686
10530.0 0.00057166
10550.0 0.00057638
10570.0 0.00058099
10590.0 0.00058563
10610.0 0.00059027
10630.0 0.00059478
10650.0 0.00059926
10670.0 0.00060379
10690.0 0.00060822
10710.0 0.00061255
10730.0 0.0006169
10750.0 0.00062126
10770.0 0.00062542
10790.0 0.00062955
10810.0 0.00063368
10830.0 0.00063767
10850.0 0.00064147
10870.0 0.00064517
10890.0 0.00064848
10910.0 0.0006511
10930.0 0.00065277
10950.0 0.00065292
10970.0 0.00065106
10990.0 0.00064697
11010.0 0.00060794
11030.0 0.00059831
11050.0 0.00058653
11070.0 0.00057241
11090.0 0.00055543
11110.0 0.00053786
11130.0 0.00051954
11150.0 0.00049983
11170.0 0.00047952
11190.0 0.00045983
11210.0 0.00043952
11230.0 0.00041871
11250.0 0.00039884
11270.0 0.00037976
11290.0 0.00036066
11310.0 0.00034257
11330.0 0.00032664
11350.0 0.00031158
11370.0 0.00029766
11390.0 0.00028559
11410.0 0.00027502
11430.0 0.00026519
11450.0 0.00025669
11470.0 0.00024932
11490.0 0.00024245
11510.0 0.00023581
11530.0 0.00022965
11550.0 0.00022353
11570.0 0.00021701
11590.0 0.00021027
11610.0 0.00020341
11630.0 0.00019597
11650.0 0.00018802
11670.0 0.00018019
11690.0 0.00017226
11710.0 0.00016409
11730.0 0.00015617
11750.0 0.00014883
11770.0 0.00014164
11790.0 0.0001349
11810.0 0.00012895
11830.0 0.00012363
11850.0 0.00011871
11870.0 0.00011459
11890.0 0.00011115
11910.0 0.00010811
11930.0 0.00010549
11950.0 0.0001033
11970.0 0.00010134
11990.0 9.9481e-05
12010.0 9.7761e-05
12030.0 9.6105e-05
12050.0 9.4399e-05
12070.0 9.263e-05
12090.0 9.0926e-05
12110.0 8.9198e-05
12130.0 8.7467e-05
12150.0 8.5868e-05
12170.0 8.4463e-05
12190.0 8.3236e-05
12210.0 8.2358e-05
12230.0 8.1895e-05
12250.0 8.1882e-05
12270.0 8.2421e-05
12290.0 8.3509e-05
12310.0 8.5104e-05
12330.0 8.7364e-05
12350.0 9.0202e-05
12370.0 9.3445e-05
12390.0 9.7194e-05
12410.0 0.0001016
12430.0 0.00010608
12450.0 0.00011071
12470.0 0.00011565
12490.0 0.00012061
12510.0 0.00012526
12530.0 0.00012988
12550.0 0.00013434
12570.0 0.00013827
12590.0 0.00014172
12610.0 0.00014479
12630.0 0.00014723
12650.0 0.00014889
12670.0 0.00014998
12690.0 0.00015039
12710.0 0.0001501
12730.0 0.00014919
12750.0 0.0001476
12770.0 0.00014543
12790.0 0.00014281
12810.0 0.00013968
12830.0 0.00013608
12850.0 0.00013231
12870.0 0.00012833
12890.0 0.00012403
12910.0 0.00011966
12930.0 0.00011536
12950.0 0.00011088
12970.0 0.00010632
12990.0 0.00010201
13010.0 9.7754e-05
13030.0 9.3454e-05
13050.0 8.9326e-05
13070.0 8.5459e-05
13090.0 8.158e-05
13110.0 7.7827e-05
13130.0 7.4365e-05
13150.0 7.1085e-05
13170.0 6.7872e-05
13190.0 6.501e-05
13210.0 6.2486e-05
13230.0 6.0175e-05
13250.0 5.818e-05
13270.0 5.6599e-05
13290.0 5.536e-05
13310.0 5.4494e-05
13330.0 5.4081e-05
13350.0 5.4089e-05
13370.0 5.454e-05
13390.0 5.5463e-05
13410.0 5.6726e-05
13430.0 5.838e-05
13450.0 6.0432e-05
13470.0 6.2719e-05
13490.0 6.5146e-05
13510.0 6.7891e-05
13530.0 7.0679e-05
13550.0 7.3353e-05
13570.0 7.5995e-05
13590.0 7.8575e-05
13610.0 8.0874e-05
13630.0 8.2885e-05
13650.0 8.4726e-05
13670.0 8.6258e-05
13690.0 8.7447e-05
13710.0 8.8371e-05
13730.0 8.9036e-05
13750.0 8.9375e-05
13770.0 8.9463e-05
13790.0 8.9312e-05
13810.0 8.8927e-05
13830.0 8.8351e-05
13850.0 8.7565e-05
13870.0 8.6571e-05
13890.0 8.5432e-05
13910.0 8.4147e-05
13930.0 8.2658e-05
13950.0 8.1033e-05
13970.0 7.937e-05
13990.0 7.756e-05
14010.0 7.5635e-05
14030.0 7.3715e-05
14050.0 7.1781e-05
14070.0 6.9739e-05
14090.0 6.7782e-05
14110.0 6.5944e-05
14130.0 6.4161e-05
14150.0 6.2482e-05
14170.0 6.1049e-05
14190.0 5.9807e-05
14210.0 5.8753e-05
14230.0 5.797e-05
14250.0 5.7462e-05
14270.0 5.7211e-05
14290.0 5.7255e-05
14310.0 5.7567e-05
14330.0 5.8135e-05
14350.0 5.8974e-05
14370.0 6.0022e-05
14390.0 6.1215e-05
14410.0 6.2623e-05
14430.0 6.4171e-05
14450.0 6.5754e-05
14470.0 6.74e-05
14490.0 6.9152e-05
14510.0 7.0829e-05
14530.0 7.2425e-05
14550.0 7.4021e-05
14570.0 7.5555e-05
14590.0 7.6953e-05
14610.0 7.8305e-05
14630.0 7.9644e-05
14650.0 8.089e-05
14670.0 8.2093e-05
14690.0 8.3345e-05
14710.0 8.4662e-05
14730.0 8.5977e-05
14750.0 8.7433e-05
14770.0 8.9085e-05
14790.0 9.0875e-05
14810.0 9.2816e-05
14830.0 9.5116e-05
14850.0 9.7618e-05
14870.0 0.00010023
14890.0 0.00010305
14910.0 0.00010605
14930.0 0.00010893
14950.0 0.00011163
14970.0 0.00011419
14990.0 0.00011633
15010.0 0.00011798
15030.0 0.0001192
15050.0 0.00012002
15070.0 0.00012043
15090.0 0.00012058
15110.0 0.00012056
15130.0 0.00012042
15150.0 0.00012023
15170.0 0.00012001
15190.0 0.00011976
15210.0 0.00011953
15230.0 0.00011929
15250.0 0.00011904
15270.0 0.0001188
15290.0 0.00011857
15310.0 0.00011833
15330.0 0.00011809
15350.0 0.00011786
15370.0 0.00011763
15390.0 0.00011739
15410.0 0.00011716
15430.0 0.00011694
15450.0 0.00011671
15470.0 0.00011648
15490.0 0.00011626
15510.0 0.00011604
15530.0 0.00011581
15550.0 0.00011559
15570.0 0.00011538
15590.0 0.00011515
15610.0 0.00011493
15630.0 0.00011471
15650.0 0.0001145
15670.0 0.00011427
15690.0 0.00011406
15710.0 0.00011385
15730.0 0.00011363
15750.0 0.00011341
15770.0 0.00011321
15790.0 0.000113
15810.0 0.00011277
15830.0 0.00011256
15850.0 0.00011236
15870.0 0.00011214
15890.0 0.00011193
15910.0 0.00011172
15930.0 0.00011151
15950.0 0.0001113
15970.0 0.00011109
15990.0 0.00011088
16010.0 0.00011067
16030.0 0.00011045
16050.0 0.00011025
16070.0 0.00011004
16090.0 0.00010983
16110.0 0.00010962
16130.0 0.00010942
16150.0 0.0001092
16170.0 0.00010899
16190.0 0.00010878
16210.0 0.00010857
16230.0 0.00010835
16250.0 0.00010815
16270.0 0.00010794
16290.0 0.00010773
16310.0 0.00010751
16330.0 0.00010731
16350.0 0.0001071
16370.0 0.00010687
16390.0 0.00010666
16410.0 0.00010645
16430.0 0.00010624
16450.0 0.00010602
16470.0 0.00010582
16490.0 0.0001056
16510.0 0.00010538
16530.0 0.00010516
16550.0 0.00010495
16570.0 0.00010473
16590.0 0.0001045
16610.0 0.00010429
16630.0 0.00010407
16650.0 0.00010385
16670.0 0.00010363
16690.0 0.00010342
16710.0 0.00010319
16730.0 0.00010296
16750.0 0.00010274
16770.0 0.00010252
16790.0 0.00010229
16810.0 0.00010207
16830.0 0.00010184
16850.0 0.00010161
16870.0 0.00010138
16890.0 0.00010116
16910.0 0.00010093
16930.0 0.00010069
16950.0 0.00010047
16970.0 0.00010024
16990.0 9.9997e-05
17010.0 9.9764e-05
17030.0 9.9538e-05
17050.0 9.9298e-05
17070.0 9.9058e-05
17090.0 9.8826e-05
17110.0 9.859e-05
17130.0 9.8341e-05
17150.0 9.8102e-05
17170.0 9.7868e-05
17190.0 9.7624e-05
17210.0 9.7378e-05
17230.0 9.7143e-05
17250.0 9.6899e-05
17270.0 9.6646e-05
17290.0 9.6402e-05
17310.0 9.616e-05
17330.0 9.5907e-05
17350.0 9.5653e-05
17370.0 9.5412e-05
17390.0 9.5163e-05
17410.0 9.4907e-05
17430.0 9.4657e-05
17450.0 9.4412e-05
17470.0 9.4148e-05
17490.0 9.389e-05
17510.0 9.3641e-05
17530.0 9.3385e-05
17550.0 9.3121e-05
17570.0 9.2867e-05
17590.0 9.2615e-05
17610.0 9.2349e-05
17630.0 9.2087e-05
17650.0 9.1832e-05
17670.0 9.157e-05
17690.0 9.1295e-05
17710.0 9.1037e-05
17730.0 9.0777e-05
17750.0 9.0507e-05
17770.0 9.024e-05
17790.0 8.9983e-05
17810.0 8.9712e-05
17830.0 8.9438e-05
17850.0 8.9173e-05
17870.0 8.8906e-05
17890.0 8.8629e-05
17910.0 8.8355e-05
17930.0 8.8092e-05
17950.0 8.7818e-05
17970.0 8.7541e-05
17990.0 8.7273e-05
18010.0 8.7003e-05
18030.0 8.6717e-05
18050.0 8.6442e-05
18070.0 8.6171e-05
18090.0 8.5892e-05
18110.0 8.5608e-05
18130.0 8.5337e-05
18150.0 8.5062e-05
18170.0 8.4777e-05
18190.0 8.4499e-05
18210.0 8.4225e-05
18230.0 8.3939e-05
18250.0 8.365e-05
18270.0 8.3375e-05
18290.0 8.3095e-05
18310.0 8.2807e-05
18330.0 8.2526e-05
18350.0 8.225e-05
18370.0 8.1961e-05
18390.0 8.1673e-05
18410.0 8.1394e-05
18430.0 8.111e-05
18450.0 8.0814e-05
18470.0 8.053e-05
18490.0 8.0251e-05
18510.0 7.9961e-05
18530.0 7.9671e-05
18550.0 7.9392e-05
18570.0 7.9104e-05
18590.0 7.8808e-05
18610.0 7.8522e-05
18630.0 7.8238e-05
18650.0 7.7944e-05
18670.0 7.765e-05
18690.0 7.737e-05
18710.0 7.7081e-05
18730.0 7.6786e-05
18750.0 7.65e-05
18770.0 7.6216e-05
18790.0 7.5916e-05
18810.0 7.5623e-05
18830.0 7.5338e-05
18850.0 7.5047e-05
18870.0 7.475e-05
18890.0 7.4464e-05
18910.0 7.4179e-05
18930.0 7.3881e-05
18950.0 7.3589e-05
18970.0 7.3303e-05
18990.0 7.3011e-05
19010.0 7.2707e-05
19030.0 7.2422e-05
19050.0 7.2135e-05
19070.0 7.1838e-05
19090.0 7.1546e-05
19110.0 7.1263e-05
19130.0 7.0967e-05
19150.0 7.0669e-05
19170.0 7.0381e-05
19190.0 7.0092e-05
19210.0 6.9793e-05
19230.0 6.9499e-05
19250.0 6.9216e-05
19270.0 6.8922e-05
19290.0 6.8627e-05
19310.0 6.8341e-05
19330.0 6.8053e-05
19350.0 6.7751e-05
19370.0 6.746e-05
19390.0 6.7174e-05
19410.0 6.688e-05
19430.0 6.6583e-05
19450.0 6.6299e-05
19470.0 6.6011e-05
19490.0 6.5715e-05
19510.0 6.5425e-05
19530.0 6.5141e-05
19550.0 6.4845e-05
19570.0 6.4547e-05
19590.0 6.4264e-05
19610.0 6.3976e-05
19630.0 6.368e-05
19650.0 6.3393e-05
19670.0 6.3111e-05
19690.0 6.2816e-05
19710.0 6.2524e-05
19730.0 6.224e-05
19750.0 6.1952e-05
19770.0 6.1654e-05
19790.0 6.1368e-05
19810.0 6.1086e-05
19830.0 6.0793e-05
19850.0 6.0499e-05
19870.0 6.021e-05
19890.0 5.9901e-05
19910.0 5.9562e-05
19930.0 5.92e-05
19950.0 5.8787e-05
19970.0 5.8282e-05
19990.0 5.7675e-05
20010.0 5.1421e-05
20030.0 5.0671e-05
20050.0 4.9793e-05
20070.0 4.8844e-05
20090.0 4.7824e-05
20110.0 4.6671e-05
20130.0 4.5505e-05
20150.0 4.435e-05
20170.0 4.3153e-05
20190.0 4.194e-05
20210.0 4.0795e-05
20230.0 3.9678e-05
20250.0 3.8559e-05
20270.0 3.752e-05
20290.0 3.6571e-05
20310.0 3.567e-05
20330.0 3.4827e-05
20350.0 3.4127e-05
20370.0 3.3505e-05
20390.0 3.2959e-05
20410.0 3.2517e-05
20430.0 3.2175e-05
20450.0 3.1903e-05
20470.0 3.1719e-05
20490.0 3.1618e-05
20510.0 3.1586e-05
20530.0 3.1621e-05
20550.0 3.1714e-05
20570.0 3.1852e-05
20590.0 3.2041e-05
20610.0 3.2272e-05
20630.0 3.2526e-05
20650.0 3.2811e-05
20670.0 3.3138e-05
20690.0 3.3471e-05
20710.0 3.3816e-05
20730.0 3.4188e-05
20750.0 3.4577e-05
20770.0 3.4959e-05
20790.0 3.5361e-05
20810.0 3.5785e-05
20830.0 3.6207e-05
20850.0 3.6631e-05
20870.0 3.7084e-05
20890.0 3.7545e-05
20910.0 3.799e-05
20930.0 3.8451e-05
20950.0 3.8929e-05
20970.0 3.9394e-05
20990.0 3.9853e-05
21010.0 4.0335e-05
21030.0 4.0807e-05
21050.0 4.1256e-05
21070.0 4.1704e-05
21090.0 4.2154e-05
21110.0 4.2564e-05
21130.0 4.2948e-05
21150.0 4.3321e-05
21170.0 4.3658e-05
21190.0 4.3947e-05
21210.0 4.4208e-05
21230.0 4.4424e-05
21250.0 4.4577e-05
21270.0 4.4673e-05
21290.0 4.4708e-05
21310.0 4.467e-05
21330.0 4.4563e-05
21350.0 4.4377e-05
21370.0 4.4104e-05
21390.0 4.3757e-05
21410.0 4.3334e-05
21430.0 4.2798e-05
21450.0 4.2197e-05
21470.0 4.1542e-05
21490.0 4.0802e-05
21510.0 3.999e-05
21530.0 3.9166e-05
21550.0 3.8302e-05
21570.0 3.7381e-05
21590.0 3.6475e-05
21610.0 3.56e-05
21630.0 3.4724e-05
21650.0 3.3868e-05
21670.0 3.3126e-05
21690.0 3.2442e-05
21710.0 3.1826e-05
21730.0 3.132e-05
21750.0 3.093e-05
21770.0 3.0632e-05
21790.0 3.046e-05
21810.0 3.0411e-05
21830.0 3.0476e-05
21850.0 3.0663e-05
21870.0 3.0957e-05
21890.0 3.1336e-05
21910.0 3.1823e-05
21930.0 3.2395e-05
21950.0 3.3015e-05
21970.0 3.3702e-05
21990.0 3.4473e-05
22010.0 3.5244e-05
22030.0 3.6027e-05
22050.0 3.6849e-05
22070.0 3.7676e-05
22090.0 3.8459e-05
22110.0 3.9248e-05
22130.0 4.0037e-05
22150.0 4.0773e-05
22170.0 4.1467e-05
22190.0 4.2155e-05
22210.0 4.2795e-05
22230.0 4.3358e-05
22250.0 4.3888e-05
22270.0 4.4376e-05
22290.0 4.4793e-05
22310.0 4.5151e-05
22330.0 4.5466e-05
22350.0 4.5709e-05
22370.0 4.5879e-05
22390.0 4.5986e-05
22410.0 4.6018e-05
22430.0 4.5973e-05
22450.0 4.5853e-05
22470.0 4.5647e-05
22490.0 4.5359e-05
22510.0 4.5e-05
22530.0 4.4541e-05
22550.0 4.3984e-05
22570.0 4.3366e-05
22590.0 4.2669e-05
22610.0 4.1867e-05
22630.0 4.1e-05
22650.0 4.0104e-05
22670.0 3.9113e-05
22690.0 3.8055e-05
22710.0 3.6988e-05
22730.0 3.5889e-05
22750.0 3.4697e-05
22770.0 3.3532e-05
