#lamb flux
1010.0 5.9503e-05
1030.0 7.7594e-05
1050.0 0.00010042
1070.0 0.00012874
1090.0 0.00016407
1110.0 0.00020492
1130.0 0.00025119
1150.0 0.00030463
1170.0 0.00036497
1190.0 0.00042865
1210.0 0.00049637
1230.0 0.00056902
1250.0 0.00064298
1270.0 0.00071603
1290.0 0.00079035
1310.0 0.00086134
1330.0 0.00092474
1350.0 0.00098133
1370.0 0.0010306
1390.0 0.0010682
1410.0 0.0010933
1430.0 0.0011092
1450.0 0.0011138
1470.0 0.0011064
1490.0 0.0010901
1510.0 0.0010658
1530.0 0.0010316
1550.0 0.00099217
1570.0 0.00095126
1590.0 0.00090847
1610.0 0.00086398
1630.0 0.00082119
1650.0 0.0007807
1670.0 0.00074185
1690.0 0.00070582
1710.0 0.00067393
1730.0 0.00064564
1750.0 0.00061993
1770.0 0.00059842
1790.0 0.00058081
1810.0 0.00056623
1830.0 0.00055483
1850.0 0.00054743
1870.0 0.00054273
1890.0 0.00054055
1910.0 0.00054138
1930.0 0.00054514
1950.0 0.00055089
1970.0 0.00055895
1990.0 0.00056976
2010.0 0.00058263
2030.0 0.00059726
2050.0 0.00061431
2070.0 0.00063366
2090.0 0.00065427
2110.0 0.00067669
2130.0 0.00070122
2150.0 0.00072719
2170.0 0.0007542
2190.0 0.0007831
2210.0 0.00081343
2230.0 0.00084447
2250.0 0.00087653
2270.0 0.00091015
2290.0 0.00094418
2310.0 0.0009783
2330.0 0.0010134
2350.0 0.0010489
2370.0 0.001084
2390.0 0.0011192
2410.0 0.0011549
2430.0 0.0011898
2450.0 0.0012241
2470.0 0.0012589
2490.0 0.0012948
2510.0 0.0013319
2530.0 0.0013737
2550.0 0.0014252
2570.0 0.0014901
2590.0 0.0015733
2610.0 0.0016911
2630.0 0.0018491
2650.0 0.0020462
2670.0 0.0022945
2690.0 0.0026022
2710.0 0.002946
2730.0 0.0033118
2750.0 0.003711
2770.0 0.0041053
2790.0 0.0044628
2810.0 0.004786
2830.0 0.0050733
2850.0 0.0052885
2870.0 0.0054543
2890.0 0.0055877
2910.0 0.0056898
2930.0 0.0057637
2950.0 0.0058285
2970.0 0.005886
2990.0 0.0059309
3010.0 0.0059689
3030.0 0.0060072
3050.0 0.0060415
3070.0 0.0060645
3090.0 0.0060882
3110.0 0.0061133
3130.0 0.0061402
3150.0 0.0061094
3170.0 0.0061361
3190.0 0.0062116
3210.0 0.0063649
3230.0 0.0066559
3250.0 0.0072126
3270.0 0.0079493
3290.0 0.0087755
3310.0 0.009775
3330.0 0.010032
3350.0 0.010096
3370.0 0.010158
3390.0 0.010213
3410.0 0.010229
3430.0 0.010213
3450.0 0.010181
3470.0 0.010148
3490.0 0.010056
3510.0 0.009733
3530.0 0.0089162
3550.0 0.0083205
3570.0 0.0089513
3590.0 0.010247
3610.0 0.0113
3630.0 0.012715
3650.0 0.01244
3670.0 0.010832
3690.0 0.0093596
3710.0 0.0088072
3730.0 0.0090513
3750.0 0.0092393
3770.0 0.009513
3790.0 0.0098214
3810.0 0.010103
3830.0 0.0093528
3850.0 0.0083904
3870.0 0.0079066
3890.0 0.0082932
3910.0 0.0085314
3930.0 0.0085718
3950.0 0.009071
3970.0 0.0096561
3990.0 0.009786
4010.0 0.0099004
4030.0 0.0095732
4050.0 0.0093372
4070.0 0.0091933
4090.0 0.0092689
4110.0 0.0093821
4130.0 0.0091652
4150.0 0.0088312
4170.0 0.0087293
4190.0 0.008609
4210.0 0.0080263
4230.0 0.0074152
4250.0 0.0067178
4270.0 0.0061211
4290.0 0.00592
4310.0 0.0058611
4330.0 0.0060522
4350.0 0.0066415
4370.0 0.0069475
4390.0 0.0076513
4410.0 0.0082241
4430.0 0.0084206
4450.0 0.0078191
4470.0 0.0071795
4490.0 0.0070038
4510.0 0.0068952
4530.0 0.006911
4550.0 0.0069154
4570.0 0.007039
4590.0 0.0073151
4610.0 0.0075233
4630.0 0.0077115
4650.0 0.0078081
4670.0 0.0077683
4690.0 0.0073394
4710.0 0.0069253
4730.0 0.0066013
4750.0 0.0064366
4770.0 0.0062737
4790.0 0.0063125
4810.0 0.0062013
4830.0 0.0058043
4850.0 0.0062847
4870.0 0.0059322
4890.0 0.0060899
4910.0 0.0062025
4930.0 0.0058819
4950.0 0.0050604
4970.0 0.0047573
4990.0 0.0044811
5010.0 0.0042093
5030.0 0.004224
5050.0 0.0045335
5070.0 0.0046206
5090.0 0.0048459
5110.0 0.004885
5130.0 0.0048336
5150.0 0.0049075
5170.0 0.0047152
5190.0 0.0046842
5210.0 0.0047682
5230.0 0.0045675
5250.0 0.0046532
5270.0 0.0048639
5290.0 0.0047807
5310.0 0.0045232
5330.0 0.0043896
5350.0 0.004127
5370.0 0.0040498
5390.0 0.0040183
5410.0 0.0038845
5430.0 0.0039599
5450.0 0.0038189
5470.0 0.003834
5490.0 0.0042078
5510.0 0.0042637
5530.0 0.0042826
5550.0 0.0042594
5570.0 0.0043234
5590.0 0.0043309
5610.0 0.0042897
5630.0 0.0042516
5650.0 0.0042039
5670.0 0.0040991
5690.0 0.0040244
5710.0 0.0039195
5730.0 0.0040019
5750.0 0.0038549
5770.0 0.0036482
5790.0 0.0035096
5810.0 0.0032234
5830.0 0.0033857
5850.0 0.0035562
5870.0 0.0035647
5890.0 0.0035947
5910.0 0.0037394
5930.0 0.0037225
5950.0 0.0037377
5970.0 0.0037306
5990.0 0.0037651
6010.0 0.0036689
6030.0 0.0036126
6050.0 0.0035852
6070.0 0.0035214
6090.0 0.0035588
6110.0 0.0035206
6130.0 0.0034093
6150.0 0.0033302
6170.0 0.0032599
6190.0 0.003026
6210.0 0.0029734
6230.0 0.0030075
6250.0 0.0029794
6270.0 0.0029529
6290.0 0.0030207
6310.0 0.0031084
6330.0 0.003093
6350.0 0.0030197
6370.0 0.0030226
6390.0 0.0029232
6410.0 0.0029032
6430.0 0.0028196
6450.0 0.0028095
6470.0 0.0028013
6490.0 0.002798
6510.0 0.0027063
6530.0 0.0026786
6550.0 0.0026393
6570.0 0.0025779
6590.0 0.0026298
6610.0 0.0026319
6630.0 0.0025716
6650.0 0.0024781
6670.0 0.0024398
6690.0 0.0024005
6710.0 0.0023359
6730.0 0.0023043
6750.0 0.0023223
6770.0 0.002397
6790.0 0.0024468
6810.0 0.0024049
6830.0 0.0022513
6850.0 0.0021246
6870.0 0.0020914
6890.0 0.0020804
6910.0 0.0020722
6930.0 0.0020533
6950.0 0.0020664
6970.0 0.0020044
6990.0 0.0019768
7010.0 0.0019902
7030.0 0.0020126
7050.0 0.001974
7070.0 0.0018696
7090.0 0.0018026
7110.0 0.0018043
7130.0 0.001823
7150.0 0.0018294
7170.0 0.00182
7190.0 0.0017845
7210.0 0.0018522
7230.0 0.001913
7250.0 0.0019091
7270.0 0.0019168
7290.0 0.0019485
7310.0 0.0019099
7330.0 0.0018608
7350.0 0.0017922
7370.0 0.001796
7390.0 0.0018275
7410.0 0.0017296
7430.0 0.00174
7450.0 0.0017269
7470.0 0.0017813
7490.0 0.0017689
7510.0 0.0016943
7530.0 0.0017223
7550.0 0.0016037
7570.0 0.0015453
7590.0 0.0015408
7610.0 0.0015826
7630.0 0.0016
7650.0 0.0016535
7670.0 0.0015478
7690.0 0.0015083
7710.0 0.0015839
7730.0 0.0016631
7750.0 0.0016506
7770.0 0.0017006
7790.0 0.0016923
7810.0 0.0017057
7830.0 0.0018019
7850.0 0.0017456
7870.0 0.0018275
7890.0 0.0017797
7910.0 0.0017536
7930.0 0.0016907
7950.0 0.0016839
7970.0 0.0017166
7990.0 0.0016518
8010.0 0.0015945
8030.0 0.0015779
8050.0 0.0015465
8070.0 0.0015161
8090.0 0.0013989
8110.0 0.0014041
8130.0 0.0014956
8150.0 0.0015503
8170.0 0.0015619
8190.0 0.0016069
8210.0 0.001577
8230.0 0.0015441
8250.0 0.0015404
8270.0 0.001511
8290.0 0.0014801
8310.0 0.0014086
8330.0 0.0014104
8350.0 0.001429
8370.0 0.0014381
8390.0 0.001436
8410.0 0.0014159
8430.0 0.0013974
8450.0 0.0013967
8470.0 0.0014457
8490.0 0.0014622
8510.0 0.0014077
8530.0 0.0013562
8550.0 0.0013526
8570.0 0.0013207
8590.0 0.0012942
8610.0 0.0013185
8630.0 0.0013158
8650.0 0.0013031
8670.0 0.0012939
8690.0 0.0012799
8710.0 0.0012226
8730.0 0.0012262
8750.0 0.001196
8770.0 0.0011999
8790.0 0.0011829
8810.0 0.0011536
8830.0 0.0011585
8850.0 0.0011577
8870.0 0.0011034
8890.0 0.0010658
8910.0 0.001027
8930.0 0.00097425
8950.0 0.00095274
8970.0 0.00091229
8990.0 0.0008987
9010.0 0.00087032
9030.0 0.000861
9050.0 0.00085559
9070.0 0.00085033
9090.0 0.00084502
9110.0 0.00083958
9130.0 0.00083416
9150.0 0.00082883
9170.0 0.00082344
9190.0 0.00081801
9210.0 0.00081254
9230.0 0.00080704
9250.0 0.00080152
9270.0 0.00079599
9290.0 0.00079043
9310.0 0.00078494
9330.0 0.00077956
9350.0 0.00077416
9370.0 0.00076876
9390.0 0.00076337
9410.0 0.00075796
9430.0 0.00075256
9450.0 0.00074717
9470.0 0.00074229
9490.0 0.00073715
9510.0 0.00073151
9530.0 0.00072596
9550.0 0.00072052
9570.0 0.00071515
9590.0 0.00070981
9610.0 0.0007046
9630.0 0.00069946
9650.0 0.00069432
9670.0 0.00068919
9690.0 0.00068412
9710.0 0.00067908
9730.0 0.00067405
9750.0 0.00066906
9770.0 0.00066414
9790.0 0.00065922
9810.0 0.00065433
9830.0 0.00064948
9850.0 0.00064423
9870.0 0.00063898
9890.0 0.00063467
9910.0 0.00063026
9930.0 0.00062498
9950.0 0.00062038
9970.0 0.0006162
9990.0 0.00061192
10010.0 0.00060767
10030.0 0.00060336
10050.0 0.00059901
10070.0 0.00059473
10090.0 0.00059051
10110.0 0.00058626
10130.0 0.00058207
10150.0 0.00057798
10170.0 0.00057392
10190.0 0.00056986
10210.0 0.00056592
10230.0 0.00056203
10250.0 0.00055815
10270.0 0.00055433
10290.0 0.0005506
10310.0 0.00054688
10330.0 0.00054318
10350.0 0.00053958
10370.0 0.00053604
10390.0 0.00053249
10410.0 0.00052877
10430.0 0.00052507
10450.0 0.00052198
10470.0 0.00051877
10490.0 0.00051561
10510.0 0.00051249
10530.0 0.00050928
10550.0 0.00050616
10570.0 0.00050315
10590.0 0.00050013
10610.0 0.00049712
10630.0 0.00049423
10650.0 0.00049138
10670.0 0.0004885
10690.0 0.0004857
10710.0 0.000483
10730.0 0.00048029
10750.0 0.00047756
10770.0 0.000475
10790.0 0.00047245
10810.0 0.00046989
10830.0 0.00046741
10850.0 0.00046503
10870.0 0.00046258
10890.0 0.00046017
10910.0 0.00045788
10930.0 0.0004556
10950.0 0.00045328
10970.0 0.00045103
10990.0 0.00044886
11010.0 0.0005027
11030.0 0.00049998
11050.0 0.00049706
11070.0 0.0004939
11090.0 0.0004904
11110.0 0.00048691
11130.0 0.00048336
11150.0 0.00047966
11170.0 0.0004759
11190.0 0.00047225
11210.0 0.00046852
11230.0 0.0004647
11250.0 0.00046102
11270.0 0.00045744
11290.0 0.00045382
11310.0 0.0004503
11330.0 0.00044708
11350.0 0.00044395
11370.0 0.00044091
11390.0 0.00043814
11410.0 0.00043556
11430.0 0.000433
11450.0 0.00043063
11470.0 0.00042845
11490.0 0.00042632
11510.0 0.0004242
11530.0 0.00042222
11550.0 0.00042027
11570.0 0.00041825
11590.0 0.00041624
11610.0 0.00041427
11630.0 0.00041219
11650.0 0.00041
11670.0 0.00040786
11690.0 0.00040567
11710.0 0.00040335
11730.0 0.000401
11750.0 0.00039872
11770.0 0.00039631
11790.0 0.00039384
11810.0 0.00039145
11830.0 0.00038907
11850.0 0.00038657
11870.0 0.00038419
11890.0 0.00038196
11910.0 0.00037972
11930.0 0.00037756
11950.0 0.00037559
11970.0 0.00037373
11990.0 0.00037193
12010.0 0.00037033
12030.0 0.00036893
12050.0 0.00036764
12070.0 0.00036648
12090.0 0.00036558
12110.0 0.00036481
12130.0 0.00036416
12150.0 0.00036367
12170.0 0.00036331
12190.0 0.00036301
12210.0 0.00036279
12230.0 0.00036263
12250.0 0.00036248
12270.0 0.00036229
12290.0 0.00036206
12310.0 0.00036177
12330.0 0.00036134
12350.0 0.00036077
12370.0 0.00036008
12390.0 0.00035921
12410.0 0.00035808
12430.0 0.00035684
12450.0 0.00035543
12470.0 0.00035377
12490.0 0.00035193
12510.0 0.00035001
12530.0 0.00034786
12550.0 0.00034549
12570.0 0.00034307
12590.0 0.00034057
12610.0 0.00033783
12630.0 0.00033501
12650.0 0.00033229
12670.0 0.00032944
12690.0 0.00032649
12710.0 0.00032364
12730.0 0.00032085
12750.0 0.00031791
12770.0 0.00031509
12790.0 0.00031243
12810.0 0.00030978
12830.0 0.00030716
12850.0 0.00030478
12870.0 0.00030252
12890.0 0.00030031
12910.0 0.00029827
12930.0 0.00029646
12950.0 0.00029473
12970.0 0.00029315
12990.0 0.00029184
13010.0 0.00029071
13030.0 0.00028974
13050.0 0.00028897
13070.0 0.0002884
13090.0 0.00028796
13110.0 0.00028765
13130.0 0.00028747
13150.0 0.00028737
13170.0 0.00028731
13190.0 0.00028726
13210.0 0.00028719
13230.0 0.00028706
13250.0 0.00028684
13270.0 0.00028653
13290.0 0.0002861
13310.0 0.0002855
13330.0 0.00028477
13350.0 0.0002839
13370.0 0.00028285
13390.0 0.0002816
13410.0 0.00028027
13430.0 0.00027877
13450.0 0.00027707
13470.0 0.00027525
13490.0 0.00027336
13510.0 0.00027121
13530.0 0.00026896
13550.0 0.00026669
13570.0 0.0002643
13590.0 0.00026176
13610.0 0.00025922
13630.0 0.0002567
13650.0 0.00025402
13670.0 0.00025131
13690.0 0.00024866
13710.0 0.00024595
13730.0 0.00024309
13750.0 0.00024037
13770.0 0.00023768
13790.0 0.00023491
13810.0 0.00023216
13830.0 0.00022955
13850.0 0.00022688
13870.0 0.0002242
13890.0 0.00022166
13910.0 0.00021918
13930.0 0.00021667
13950.0 0.00021423
13970.0 0.00021197
13990.0 0.00020971
14010.0 0.0002075
14030.0 0.00020542
14050.0 0.00020344
14070.0 0.00020144
14090.0 0.00019956
14110.0 0.00019781
14130.0 0.0001961
14150.0 0.00019443
14170.0 0.00019289
14190.0 0.00019141
14210.0 0.00018994
14230.0 0.00018854
14250.0 0.00018721
14270.0 0.00018588
14290.0 0.00018456
14310.0 0.00018333
14330.0 0.00018211
14350.0 0.00018089
14370.0 0.00017971
14390.0 0.00017859
14410.0 0.00017746
14430.0 0.00017634
14450.0 0.00017528
14470.0 0.00017423
14490.0 0.00017317
14510.0 0.00017215
14530.0 0.00017116
14550.0 0.00017016
14570.0 0.00016915
14590.0 0.00016818
14610.0 0.0001672
14630.0 0.00016618
14650.0 0.00016518
14670.0 0.00016419
14690.0 0.00016317
14710.0 0.00016212
14730.0 0.00016112
14750.0 0.00016008
14770.0 0.00015901
14790.0 0.00015795
14810.0 0.0001569
14830.0 0.00015578
14850.0 0.00015465
14870.0 0.00015355
14890.0 0.00015242
14910.0 0.00015127
14930.0 0.00015016
14950.0 0.00014911
14970.0 0.00014807
14990.0 0.00014711
15010.0 0.00014624
15030.0 0.00014543
15050.0 0.00014467
15070.0 0.000144
15090.0 0.00014336
15110.0 0.00014275
15130.0 0.00014215
15150.0 0.00014158
15170.0 0.000141
15190.0 0.00014042
15210.0 0.00013985
15230.0 0.00013929
15250.0 0.00013871
15270.0 0.00013814
15290.0 0.00013758
15310.0 0.00013702
15330.0 0.00013645
15350.0 0.00013589
15370.0 0.00013534
15390.0 0.00013476
15410.0 0.0001342
15430.0 0.00013365
15450.0 0.00013309
15470.0 0.00013253
15490.0 0.00013198
15510.0 0.00013143
15530.0 0.00013087
15550.0 0.00013032
15570.0 0.00012978
15590.0 0.00012922
15610.0 0.00012867
15630.0 0.00012813
15650.0 0.00012758
15670.0 0.00012703
15690.0 0.00012649
15710.0 0.00012596
15730.0 0.00012541
15750.0 0.00012487
15770.0 0.00012433
15790.0 0.0001238
15810.0 0.00012325
15830.0 0.00012272
15850.0 0.0001222
15870.0 0.00012166
15890.0 0.00012113
15910.0 0.00012061
15930.0 0.00012008
15950.0 0.00011954
15970.0 0.00011902
15990.0 0.0001185
16010.0 0.00011798
16030.0 0.00011745
16050.0 0.00011694
16070.0 0.00011642
16090.0 0.0001159
16110.0 0.00011539
16130.0 0.00011489
16150.0 0.00011437
16170.0 0.00011385
16190.0 0.00011335
16210.0 0.00011284
16230.0 0.00011233
16250.0 0.00011183
16270.0 0.00011134
16290.0 0.00011083
16310.0 0.00011033
16330.0 0.00010985
16350.0 0.00010935
16370.0 0.00010885
16390.0 0.00010836
16410.0 0.00010788
16430.0 0.00010739
16450.0 0.0001069
16470.0 0.00010643
16490.0 0.00010594
16510.0 0.00010546
16530.0 0.00010498
16550.0 0.00010451
16570.0 0.00010403
16590.0 0.00010355
16610.0 0.0001031
16630.0 0.00010263
16650.0 0.00010216
16670.0 0.0001017
16690.0 0.00010124
16710.0 0.00010077
16730.0 0.00010032
16750.0 9.9869e-05
16770.0 9.9414e-05
16790.0 9.8956e-05
16810.0 9.8515e-05
16830.0 9.8074e-05
16850.0 9.7624e-05
16870.0 9.7183e-05
16890.0 9.6752e-05
16910.0 9.631e-05
16930.0 9.5866e-05
16950.0 9.544e-05
16970.0 9.5013e-05
16990.0 9.4579e-05
17010.0 9.4154e-05
17030.0 9.374e-05
17050.0 9.3314e-05
17070.0 9.2891e-05
17090.0 9.248e-05
17110.0 9.2068e-05
17130.0 9.1646e-05
17150.0 9.1238e-05
17170.0 9.0838e-05
17190.0 9.043e-05
17210.0 9.0025e-05
17230.0 8.9633e-05
17250.0 8.9236e-05
17270.0 8.8832e-05
17290.0 8.844e-05
17310.0 8.8055e-05
17330.0 8.7662e-05
17350.0 8.7269e-05
17370.0 8.6895e-05
17390.0 8.6515e-05
17410.0 8.613e-05
17430.0 8.5757e-05
17450.0 8.5391e-05
17470.0 8.5008e-05
17490.0 8.4635e-05
17510.0 8.4274e-05
17530.0 8.3909e-05
17550.0 8.3539e-05
17570.0 8.3183e-05
17590.0 8.2831e-05
17610.0 8.2469e-05
17630.0 8.2114e-05
17650.0 8.1769e-05
17670.0 8.1419e-05
17690.0 8.1059e-05
17710.0 8.0721e-05
17730.0 8.0383e-05
17750.0 8.0037e-05
17770.0 7.9698e-05
17790.0 7.9372e-05
17810.0 7.9034e-05
17830.0 7.8696e-05
17850.0 7.837e-05
17870.0 7.8046e-05
17890.0 7.7712e-05
17910.0 7.7386e-05
17930.0 7.7074e-05
17950.0 7.6753e-05
17970.0 7.6431e-05
17990.0 7.6121e-05
18010.0 7.5813e-05
18030.0 7.549e-05
18050.0 7.5181e-05
18070.0 7.4879e-05
18090.0 7.4571e-05
18110.0 7.426e-05
18130.0 7.3966e-05
18150.0 7.3669e-05
18170.0 7.3365e-05
18190.0 7.307e-05
18210.0 7.2782e-05
18230.0 7.2484e-05
18250.0 7.2185e-05
18270.0 7.1902e-05
18290.0 7.1617e-05
18310.0 7.1325e-05
18330.0 7.1043e-05
18350.0 7.0769e-05
18370.0 7.0482e-05
18390.0 7.0199e-05
18410.0 6.9927e-05
18430.0 6.9652e-05
18450.0 6.9367e-05
18470.0 6.9096e-05
18490.0 6.8831e-05
18510.0 6.8558e-05
18530.0 6.8286e-05
18550.0 6.8027e-05
18570.0 6.7761e-05
18590.0 6.7488e-05
18610.0 6.7227e-05
18630.0 6.697e-05
18650.0 6.6704e-05
18670.0 6.6439e-05
18690.0 6.6191e-05
18710.0 6.5935e-05
18730.0 6.5674e-05
18750.0 6.5423e-05
18770.0 6.5177e-05
18790.0 6.4914e-05
18810.0 6.466e-05
18830.0 6.4417e-05
18850.0 6.4167e-05
18870.0 6.3913e-05
18890.0 6.3671e-05
18910.0 6.3431e-05
18930.0 6.318e-05
18950.0 6.2935e-05
18970.0 6.2698e-05
18990.0 6.2455e-05
19010.0 6.2201e-05
19030.0 6.1968e-05
19050.0 6.1732e-05
19070.0 6.1488e-05
19090.0 6.125e-05
19110.0 6.1022e-05
19130.0 6.0781e-05
19150.0 6.0539e-05
19170.0 6.0308e-05
19190.0 6.0076e-05
19210.0 5.9834e-05
19230.0 5.9598e-05
19250.0 5.9374e-05
19270.0 5.914e-05
19290.0 5.8903e-05
19310.0 5.8678e-05
19330.0 5.8451e-05
19350.0 5.8208e-05
19370.0 5.7979e-05
19390.0 5.7755e-05
19410.0 5.7522e-05
19430.0 5.7287e-05
19450.0 5.7066e-05
19470.0 5.684e-05
19490.0 5.6605e-05
19510.0 5.6378e-05
19530.0 5.6157e-05
19550.0 5.5922e-05
19570.0 5.5687e-05
19590.0 5.5466e-05
19610.0 5.5241e-05
19630.0 5.5007e-05
19650.0 5.4782e-05
19670.0 5.4563e-05
19690.0 5.4328e-05
19710.0 5.4097e-05
19730.0 5.3875e-05
19750.0 5.3648e-05
19770.0 5.3409e-05
19790.0 5.3184e-05
19810.0 5.2963e-05
19830.0 5.2731e-05
19850.0 5.2501e-05
19870.0 5.2283e-05
19890.0 5.2058e-05
19910.0 5.183e-05
19930.0 5.1623e-05
19950.0 5.1431e-05
19970.0 5.1248e-05
19990.0 5.1092e-05
20010.0 5.0975e-05
20030.0 5.088e-05
20050.0 5.0812e-05
20070.0 5.0776e-05
20090.0 5.0761e-05
20110.0 5.0758e-05
20130.0 5.0771e-05
20150.0 5.0794e-05
20170.0 5.0822e-05
20190.0 5.0852e-05
20210.0 5.0885e-05
20230.0 5.092e-05
20250.0 5.0952e-05
20270.0 5.0983e-05
20290.0 5.1014e-05
20310.0 5.1041e-05
20330.0 5.1062e-05
20350.0 5.1083e-05
20370.0 5.1099e-05
20390.0 5.1109e-05
20410.0 5.1115e-05
20430.0 5.112e-05
20450.0 5.1117e-05
20470.0 5.1111e-05
20490.0 5.1105e-05
20510.0 5.1098e-05
20530.0 5.1087e-05
20550.0 5.1078e-05
20570.0 5.1073e-05
20590.0 5.1066e-05
20610.0 5.1061e-05
20630.0 5.1061e-05
20650.0 5.1061e-05
20670.0 5.1059e-05
20690.0 5.106e-05
20710.0 5.1062e-05
20730.0 5.1059e-05
20750.0 5.1052e-05
20770.0 5.1044e-05
20790.0 5.1028e-05
20810.0 5.1002e-05
20830.0 5.0969e-05
20850.0 5.0928e-05
20870.0 5.0871e-05
20890.0 5.0803e-05
20910.0 5.073e-05
20930.0 5.0644e-05
20950.0 5.0544e-05
20970.0 5.044e-05
20990.0 5.0331e-05
21010.0 5.0206e-05
21030.0 5.0078e-05
21050.0 4.9951e-05
21070.0 4.9818e-05
21090.0 4.9677e-05
21110.0 4.9543e-05
21130.0 4.9411e-05
21150.0 4.9271e-05
21170.0 4.9133e-05
21190.0 4.9001e-05
21210.0 4.8861e-05
21230.0 4.8714e-05
21250.0 4.8573e-05
21270.0 4.8428e-05
21290.0 4.8272e-05
21310.0 4.8112e-05
21330.0 4.7955e-05
21350.0 4.7783e-05
21370.0 4.76e-05
21390.0 4.7416e-05
21410.0 4.7226e-05
21430.0 4.7012e-05
21450.0 4.6798e-05
21470.0 4.6583e-05
21490.0 4.6352e-05
21510.0 4.611e-05
21530.0 4.5871e-05
21550.0 4.5625e-05
21570.0 4.5361e-05
21590.0 4.5098e-05
21610.0 4.4836e-05
21630.0 4.4562e-05
21650.0 4.4275e-05
21670.0 4.4003e-05
21690.0 4.3724e-05
21710.0 4.3434e-05
21730.0 4.3146e-05
21750.0 4.2865e-05
21770.0 4.2564e-05
21790.0 4.2262e-05
21810.0 4.1967e-05
21830.0 4.1666e-05
21850.0 4.1352e-05
21870.0 4.1042e-05
21890.0 4.0739e-05
21910.0 4.0421e-05
21930.0 4.0101e-05
21950.0 3.979e-05
21970.0 3.9474e-05
21990.0 3.9144e-05
22010.0 3.8829e-05
22030.0 3.852e-05
22050.0 3.8206e-05
22070.0 3.7896e-05
22090.0 3.7602e-05
22110.0 3.7308e-05
22130.0 3.7015e-05
22150.0 3.6737e-05
22170.0 3.6468e-05
22190.0 3.6198e-05
22210.0 3.5937e-05
22230.0 3.5692e-05
22250.0 3.5449e-05
22270.0 3.5208e-05
22290.0 3.4977e-05
22310.0 3.4752e-05
22330.0 3.4522e-05
22350.0 3.4297e-05
22370.0 3.4077e-05
22390.0 3.3853e-05
22410.0 3.3625e-05
22430.0 3.3402e-05
22450.0 3.3176e-05
22470.0 3.2943e-05
22490.0 3.2709e-05
22510.0 3.2475e-05
22530.0 3.2233e-05
22550.0 3.1985e-05
22570.0 3.1739e-05
22590.0 3.1489e-05
22610.0 3.1234e-05
22630.0 3.0977e-05
22650.0 3.0723e-05
22670.0 3.0463e-05
22690.0 3.0201e-05
22710.0 2.9942e-05
22730.0 2.9683e-05
22750.0 2.9419e-05
22770.0 2.9159e-05
22790.0 2.8902e-05
22810.0 2.8643e-05
22830.0 2.8385e-05
22850.0 2.813e-05
22870.0 2.7874e-05
22890.0 2.7617e-05
22910.0 2.7361e-05
22930.0 2.7105e-05
22950.0 2.6846e-05
22970.0 2.6584e-05
22990.0 2.6322e-05
23010.0 2.6055e-05
