#lamb flux
1010.0 3.6194e-05
1030.0 4.397e-05
1050.0 5.1755e-05
1070.0 5.9017e-05
1090.0 6.5459e-05
1110.0 6.9415e-05
1130.0 7.1208e-05
1150.0 7.9329e-05
1170.0 8.7689e-05
1190.0 9.5416e-05
1210.0 0.00010026
1230.0 0.00010492
1250.0 0.00010912
1270.0 0.00011304
1290.0 0.00011754
1310.0 0.00012245
1330.0 0.00012777
1350.0 0.00013411
1370.0 0.00014183
1390.0 0.0001507
1410.0 0.00016079
1430.0 0.00017266
1450.0 0.00018597
1470.0 0.00020038
1490.0 0.00021608
1510.0 0.00022704
1530.0 0.00023541
1550.0 0.00025076
1570.0 0.00030314
1590.0 0.00035664
1610.0 0.00040982
1630.0 0.00046292
1650.0 0.00051549
1670.0 0.00056618
1690.0 0.00061494
1710.0 0.00066247
1730.0 0.00070815
1750.0 0.00075061
1770.0 0.00079154
1790.0 0.0008309
1810.0 0.00086766
1830.0 0.0009022
1850.0 0.00093604
1870.0 0.00096751
1890.0 0.00099674
1910.0 0.001025
1930.0 0.0010525
1950.0 0.001078
1970.0 0.001102
1990.0 0.0011256
2010.0 0.0011475
2030.0 0.0011675
2050.0 0.001187
2070.0 0.0012064
2090.0 0.0012238
2110.0 0.0012403
2130.0 0.0012567
2150.0 0.001272
2170.0 0.0012857
2190.0 0.0012996
2210.0 0.001313
2230.0 0.0013249
2250.0 0.0013363
2270.0 0.0013482
2290.0 0.0013593
2310.0 0.0013694
2330.0 0.0013799
2350.0 0.0013906
2370.0 0.0014004
2390.0 0.0014104
2410.0 0.0014215
2430.0 0.0014325
2450.0 0.001444
2470.0 0.0014584
2490.0 0.0014773
2510.0 0.0015012
2530.0 0.0015355
2550.0 0.0015867
2570.0 0.0016581
2590.0 0.001754
2610.0 0.0018923
2630.0 0.0020745
2650.0 0.0022945
2670.0 0.0025619
2690.0 0.0028799
2710.0 0.0032204
2730.0 0.0035705
2750.0 0.0039411
2770.0 0.0043003
2790.0 0.0046266
2810.0 0.0049266
2830.0 0.0052008
2850.0 0.0054245
2870.0 0.0056167
2890.0 0.0057898
2910.0 0.005946
2930.0 0.0060895
2950.0 0.0062328
2970.0 0.0063777
2990.0 0.0065215
3010.0 0.0066668
3030.0 0.0068169
3050.0 0.0069683
3070.0 0.0071149
3090.0 0.0072638
3110.0 0.0074162
3130.0 0.0075753
3150.0 0.0078024
3170.0 0.0080902
3190.0 0.0084827
3210.0 0.0090044
3230.0 0.0096882
3250.0 0.010463
3270.0 0.011002
3290.0 0.012183
3310.0 0.015257
3330.0 0.015953
3350.0 0.016063
3370.0 0.016137
3390.0 0.016216
3410.0 0.016316
3430.0 0.016433
3450.0 0.016556
3470.0 0.016667
3490.0 0.016797
3510.0 0.01702
3530.0 0.016883
3550.0 0.016263
3570.0 0.015868
3590.0 0.016149
3610.0 0.017219
3630.0 0.016928
3650.0 0.015917
3670.0 0.014792
3690.0 0.014428
3710.0 0.014915
3730.0 0.015403
3750.0 0.015655
3770.0 0.01624
3790.0 0.016933
3810.0 0.016565
3830.0 0.015624
3850.0 0.014985
3870.0 0.014815
3890.0 0.014637
3910.0 0.014369
3930.0 0.014452
3950.0 0.015087
3970.0 0.015833
3990.0 0.016433
4010.0 0.016071
4030.0 0.015597
4050.0 0.015482
4070.0 0.015444
4090.0 0.015421
4110.0 0.015201
4130.0 0.014689
4150.0 0.01419
4170.0 0.014056
4190.0 0.013424
4210.0 0.012569
4230.0 0.011602
4250.0 0.010674
4270.0 0.010061
4290.0 0.0095227
4310.0 0.0093706
4330.0 0.0096313
4350.0 0.0097669
4370.0 0.010131
4390.0 0.010667
4410.0 0.011136
4430.0 0.010886
4450.0 0.010151
4470.0 0.0095425
4490.0 0.0092138
4510.0 0.0090734
4530.0 0.009072
4550.0 0.0090841
4570.0 0.0091631
4590.0 0.0093777
4610.0 0.0098472
4630.0 0.010145
4650.0 0.010349
4670.0 0.010121
4690.0 0.009577
4710.0 0.008992
4730.0 0.0086389
4750.0 0.0083931
4770.0 0.0085048
4790.0 0.0083997
4810.0 0.0081551
4830.0 0.0083202
4850.0 0.0083357
4870.0 0.0085625
4890.0 0.0081316
4910.0 0.0076828
4930.0 0.0070996
4950.0 0.0065241
4970.0 0.0059655
4990.0 0.005506
5010.0 0.0054357
5030.0 0.0055604
5050.0 0.0054506
5070.0 0.0055584
5090.0 0.005779
5110.0 0.0057387
5130.0 0.005692
5150.0 0.0056569
5170.0 0.0056856
5190.0 0.0057749
5210.0 0.0056228
5230.0 0.0055155
5250.0 0.0053981
5270.0 0.0052624
5290.0 0.0052078
5310.0 0.0051745
5330.0 0.0049967
5350.0 0.0049423
5370.0 0.0048224
5390.0 0.0046735
5410.0 0.0046005
5430.0 0.0044991
5450.0 0.0046183
5470.0 0.0046861
5490.0 0.0046248
5510.0 0.004764
5530.0 0.0048152
5550.0 0.004916
5570.0 0.0048877
5590.0 0.0047342
5610.0 0.0047157
5630.0 0.0048073
5650.0 0.0047732
5670.0 0.0047055
5690.0 0.00458
5710.0 0.0046657
5730.0 0.0047467
5750.0 0.0045938
5770.0 0.0044291
5790.0 0.0040561
5810.0 0.0035345
5830.0 0.0039294
5850.0 0.0045391
5870.0 0.0047706
5890.0 0.0048917
5910.0 0.0049755
5930.0 0.0050849
5950.0 0.0050779
5970.0 0.0051176
5990.0 0.0051212
6010.0 0.0050829
6030.0 0.0049972
6050.0 0.0050317
6070.0 0.0051649
6090.0 0.0051666
6110.0 0.0050816
6130.0 0.0050331
6150.0 0.004923
6170.0 0.0047976
6190.0 0.004747
6210.0 0.0046585
6230.0 0.0046563
6250.0 0.0046457
6270.0 0.0046332
6290.0 0.0046494
6310.0 0.0046604
6330.0 0.0046246
6350.0 0.00455
6370.0 0.0045144
6390.0 0.004529
6410.0 0.0044423
6430.0 0.0043931
6450.0 0.0043318
6470.0 0.0042689
6490.0 0.0042349
6510.0 0.0042346
6530.0 0.0041465
6550.0 0.0040811
6570.0 0.0040618
6590.0 0.0040503
6610.0 0.0040361
6630.0 0.0039028
6650.0 0.0038158
6670.0 0.0037901
6690.0 0.0037347
6710.0 0.0036479
6730.0 0.003615
6750.0 0.0036312
6770.0 0.0038635
6790.0 0.0044209
6810.0 0.00413
6830.0 0.0035296
6850.0 0.003384
6870.0 0.0033025
6890.0 0.0032752
6910.0 0.003251
6930.0 0.0032321
6950.0 0.0031682
6970.0 0.003051
6990.0 0.002984
7010.0 0.0029902
7030.0 0.0029467
7050.0 0.0028594
7070.0 0.0028276
7090.0 0.0028386
7110.0 0.0028709
7130.0 0.0028177
7150.0 0.0027723
7170.0 0.0027404
7190.0 0.0027539
7210.0 0.0026972
7230.0 0.0026437
7250.0 0.0026337
7270.0 0.0026038
7290.0 0.0025803
7310.0 0.0026063
7330.0 0.0025433
7350.0 0.0024477
7370.0 0.0023417
7390.0 0.0022584
7410.0 0.0022716
7430.0 0.0022488
7450.0 0.0022219
7470.0 0.0021812
7490.0 0.0021186
7510.0 0.0020778
7530.0 0.0020455
7550.0 0.0021542
7570.0 0.0021263
7590.0 0.0019323
7610.0 0.0018405
7630.0 0.00194
7650.0 0.0019213
7670.0 0.0019579
7690.0 0.0020587
7710.0 0.0020683
7730.0 0.0020104
7750.0 0.0021286
7770.0 0.001984
7790.0 0.0018827
7810.0 0.0020045
7830.0 0.0020236
7850.0 0.0020949
7870.0 0.0020693
7890.0 0.0020843
7910.0 0.0020413
7930.0 0.0020633
7950.0 0.0021669
7970.0 0.0021163
7990.0 0.0019163
8010.0 0.0024297
8030.0 0.0023843
8050.0 0.0023448
8070.0 0.0022744
8090.0 0.002042
8110.0 0.002026
8130.0 0.0022459
8150.0 0.0023649
8170.0 0.0024205
8190.0 0.0025122
8210.0 0.0024338
8230.0 0.002433
8250.0 0.0024264
8270.0 0.0024015
8290.0 0.0023598
8310.0 0.0022468
8330.0 0.0022158
8350.0 0.0022752
8370.0 0.0022971
8390.0 0.0022528
8410.0 0.0022252
8430.0 0.0021585
8450.0 0.0021286
8470.0 0.0022605
8490.0 0.0022763
8510.0 0.0021506
8530.0 0.0021071
8550.0 0.0020835
8570.0 0.0019726
8590.0 0.0019749
8610.0 0.0020011
8630.0 0.0020472
8650.0 0.002047
8670.0 0.0020443
8690.0 0.0020081
8710.0 0.0019385
8730.0 0.0018941
8750.0 0.0018595
8770.0 0.0018592
8790.0 0.0018954
8810.0 0.0018124
8830.0 0.0018016
8850.0 0.0018661
8870.0 0.0017715
8890.0 0.0016628
8910.0 0.0016285
8930.0 0.0016052
8950.0 0.0015175
8970.0 0.0014556
8990.0 0.0014252
9010.0 0.0013519
9030.0 0.001333
9050.0 0.0013259
9070.0 0.0013194
9090.0 0.0013128
9110.0 0.0013061
9130.0 0.0012993
9150.0 0.0012927
9170.0 0.0012859
9190.0 0.0012791
9210.0 0.0012722
9230.0 0.0012653
9250.0 0.0012583
9270.0 0.0012513
9290.0 0.0012443
9310.0 0.0012377
9330.0 0.0012317
9350.0 0.0012257
9370.0 0.0012196
9390.0 0.0012136
9410.0 0.0012074
9430.0 0.0012013
9450.0 0.0011952
9470.0 0.0011897
9490.0 0.0011838
9510.0 0.0011773
9530.0 0.0011708
9550.0 0.0011644
9570.0 0.0011582
9590.0 0.0011519
9610.0 0.0011463
9630.0 0.0011407
9650.0 0.0011352
9670.0 0.0011295
9690.0 0.001124
9710.0 0.0011184
9730.0 0.0011128
9750.0 0.0011072
9770.0 0.0011018
9790.0 0.0010962
9810.0 0.0010906
9830.0 0.0010851
9850.0 0.0010791
9870.0 0.0010726
9890.0 0.0010678
9910.0 0.0010628
9930.0 0.0010568
9950.0 0.0010514
9970.0 0.0010464
9990.0 0.0010413
10010.0 0.0010361
10030.0 0.0010309
10050.0 0.0010257
10070.0 0.0010204
10090.0 0.0010153
10110.0 0.0010101
10130.0 0.0010049
10150.0 0.00099981
10170.0 0.00099474
10190.0 0.00098968
10210.0 0.00098469
10230.0 0.00097975
10250.0 0.00097482
10270.0 0.00096993
10290.0 0.00096512
10310.0 0.00096031
10330.0 0.00095552
10350.0 0.00095082
10370.0 0.00094616
10390.0 0.00094146
10410.0 0.00093619
10430.0 0.00093078
10450.0 0.00092702
10470.0 0.00092288
10490.0 0.00091874
10510.0 0.00091456
10530.0 0.00091023
10550.0 0.00090596
10570.0 0.00090182
10590.0 0.00089763
10610.0 0.00089344
10630.0 0.0008894
10650.0 0.00088539
10670.0 0.00088132
10690.0 0.00087735
10710.0 0.00087349
10730.0 0.0008696
10750.0 0.00086567
10770.0 0.00086196
10790.0 0.00085825
10810.0 0.00085451
10830.0 0.00085086
10850.0 0.00084733
10870.0 0.00084369
10890.0 0.00084007
10910.0 0.00083656
10930.0 0.000833
10950.0 0.00082927
10970.0 0.00082551
10990.0 0.00082173
11010.0 0.00078789
11030.0 0.00078389
11050.0 0.00078007
11070.0 0.00077617
11090.0 0.00077196
11110.0 0.00076794
11130.0 0.0007639
11150.0 0.00075961
11170.0 0.0007552
11190.0 0.00075093
11210.0 0.00074648
11230.0 0.00074182
11250.0 0.00073734
11270.0 0.00073297
11290.0 0.00072846
11310.0 0.00072408
11330.0 0.00072015
11350.0 0.00071628
11370.0 0.00071252
11390.0 0.00070912
11410.0 0.00070598
11430.0 0.0007028
11450.0 0.00069987
11470.0 0.00069718
11490.0 0.00069449
11510.0 0.00069175
11530.0 0.00068916
11550.0 0.00068657
11570.0 0.00068379
11590.0 0.00068096
11610.0 0.00067814
11630.0 0.00067508
11650.0 0.00067178
11670.0 0.00066855
11690.0 0.0006652
11710.0 0.0006616
11730.0 0.00065795
11750.0 0.0006544
11770.0 0.00065063
11790.0 0.00064676
11810.0 0.00064304
11830.0 0.00063934
11850.0 0.00063545
11870.0 0.00063177
11890.0 0.00062832
11910.0 0.00062486
11930.0 0.00062149
11950.0 0.00061844
11970.0 0.00061553
11990.0 0.00061266
12010.0 0.00061008
12030.0 0.00060777
12050.0 0.00060557
12070.0 0.00060352
12090.0 0.00060181
12110.0 0.00060024
12130.0 0.00059877
12150.0 0.00059748
12170.0 0.00059635
12190.0 0.0005952
12210.0 0.0005941
12230.0 0.00059306
12250.0 0.00059196
12270.0 0.00059071
12290.0 0.00058936
12310.0 0.0005879
12330.0 0.00058614
12350.0 0.00058413
12370.0 0.00058194
12390.0 0.00057945
12410.0 0.00057648
12430.0 0.0005734
12450.0 0.00057009
12470.0 0.00056639
12490.0 0.00056244
12510.0 0.00055848
12530.0 0.00055419
12550.0 0.00054962
12570.0 0.00054508
12590.0 0.0005405
12610.0 0.00053565
12630.0 0.00053076
12650.0 0.00052615
12670.0 0.00052143
12690.0 0.00051668
12710.0 0.00051219
12730.0 0.00050786
12750.0 0.00050343
12770.0 0.00049928
12790.0 0.00049545
12810.0 0.00049174
12830.0 0.00048815
12850.0 0.00048498
12870.0 0.00048205
12890.0 0.00047927
12910.0 0.00047679
12930.0 0.00047466
12950.0 0.0004727
12970.0 0.000471
12990.0 0.00046967
13010.0 0.00046859
13030.0 0.00046774
13050.0 0.00046716
13070.0 0.00046681
13090.0 0.00046663
13110.0 0.00046658
13130.0 0.00046663
13150.0 0.00046672
13170.0 0.00046678
13190.0 0.00046675
13210.0 0.00046658
13230.0 0.00046622
13250.0 0.0004656
13270.0 0.00046475
13290.0 0.00046361
13310.0 0.0004621
13330.0 0.00046031
13350.0 0.00045826
13370.0 0.00045584
13390.0 0.00045307
13410.0 0.00045021
13430.0 0.00044706
13450.0 0.00044359
13470.0 0.00044
13490.0 0.00043633
13510.0 0.00043226
13530.0 0.00042809
13550.0 0.00042395
13570.0 0.00041965
13590.0 0.00041512
13610.0 0.00041066
13630.0 0.00040626
13650.0 0.00040162
13670.0 0.00039698
13690.0 0.00039248
13710.0 0.00038793
13730.0 0.00038317
13750.0 0.00037874
13770.0 0.0003744
13790.0 0.00037
13810.0 0.00036573
13830.0 0.00036175
13850.0 0.00035777
13870.0 0.00035384
13890.0 0.00035019
13910.0 0.0003467
13930.0 0.00034322
13950.0 0.0003399
13970.0 0.00033687
13990.0 0.00033387
14010.0 0.00033095
14030.0 0.00032824
14050.0 0.00032567
14070.0 0.00032307
14090.0 0.00032065
14110.0 0.00031841
14130.0 0.00031621
14150.0 0.00031407
14170.0 0.00031212
14190.0 0.00031026
14210.0 0.00030841
14230.0 0.00030666
14250.0 0.00030502
14270.0 0.00030337
14290.0 0.00030174
14310.0 0.00030021
14330.0 0.00029871
14350.0 0.00029719
14370.0 0.00029571
14390.0 0.0002943
14410.0 0.00029285
14430.0 0.00029141
14450.0 0.00029002
14470.0 0.00028864
14490.0 0.0002872
14510.0 0.00028582
14530.0 0.00028446
14550.0 0.00028307
14570.0 0.00028166
14590.0 0.0002803
14610.0 0.0002789
14630.0 0.00027744
14650.0 0.00027602
14670.0 0.0002746
14690.0 0.00027312
14710.0 0.00027161
14730.0 0.00027016
14750.0 0.00026866
14770.0 0.00026711
14790.0 0.00026558
14810.0 0.00026405
14830.0 0.00026241
14850.0 0.00026078
14870.0 0.00025918
14890.0 0.00025755
14910.0 0.00025589
14930.0 0.0002543
14950.0 0.0002528
14970.0 0.00025133
14990.0 0.00024997
15010.0 0.00024877
15030.0 0.00024766
15050.0 0.00024663
15070.0 0.00024575
15090.0 0.00024493
15110.0 0.00024413
15130.0 0.00024336
15150.0 0.00024264
15170.0 0.0002419
15190.0 0.00024116
15210.0 0.00024044
15230.0 0.00023973
15250.0 0.000239
15270.0 0.00023827
15290.0 0.00023757
15310.0 0.00023686
15330.0 0.00023613
15350.0 0.00023543
15370.0 0.00023474
15390.0 0.00023401
15410.0 0.00023331
15430.0 0.00023262
15450.0 0.00023191
15470.0 0.0002312
15490.0 0.00023052
15510.0 0.00022984
15530.0 0.00022914
15550.0 0.00022845
15570.0 0.00022778
15590.0 0.00022709
15610.0 0.00022639
15630.0 0.00022573
15650.0 0.00022506
15670.0 0.00022437
15690.0 0.0002237
15710.0 0.00022305
15730.0 0.00022238
15750.0 0.00022171
15770.0 0.00022106
15790.0 0.00022041
15810.0 0.00021973
15830.0 0.00021908
15850.0 0.00021845
15870.0 0.00021779
15890.0 0.00021714
15910.0 0.00021652
15930.0 0.00021588
15950.0 0.00021522
15970.0 0.00021459
15990.0 0.00021397
16010.0 0.00021333
16030.0 0.00021269
16050.0 0.00021209
16070.0 0.00021147
16090.0 0.00021084
16110.0 0.00021023
16130.0 0.00020963
16150.0 0.00020899
16170.0 0.00020838
16190.0 0.00020778
16210.0 0.00020718
16230.0 0.00020656
16250.0 0.00020597
16270.0 0.00020538
16290.0 0.00020477
16310.0 0.00020418
16330.0 0.0002036
16350.0 0.00020301
16370.0 0.00020239
16390.0 0.00020182
16410.0 0.00020124
16430.0 0.00020065
16450.0 0.00020007
16470.0 0.00019951
16490.0 0.00019893
16510.0 0.00019834
16530.0 0.00019778
16550.0 0.00019721
16570.0 0.00019663
16590.0 0.00019605
16610.0 0.00019551
16630.0 0.00019494
16650.0 0.00019437
16670.0 0.00019382
16690.0 0.00019327
16710.0 0.00019269
16730.0 0.00019213
16750.0 0.00019159
16770.0 0.00019103
16790.0 0.00019047
16810.0 0.00018993
16830.0 0.00018939
16850.0 0.00018883
16870.0 0.00018828
16890.0 0.00018775
16910.0 0.0001872
16930.0 0.00018664
16950.0 0.00018611
16970.0 0.00018557
16990.0 0.00018502
17010.0 0.00018448
17030.0 0.00018396
17050.0 0.00018341
17070.0 0.00018287
17090.0 0.00018234
17110.0 0.00018181
17130.0 0.00018125
17150.0 0.00018072
17170.0 0.00018021
17190.0 0.00017967
17210.0 0.00017913
17230.0 0.00017861
17250.0 0.00017809
17270.0 0.00017754
17290.0 0.00017701
17310.0 0.00017649
17330.0 0.00017596
17350.0 0.00017541
17370.0 0.00017491
17390.0 0.00017438
17410.0 0.00017384
17430.0 0.00017332
17450.0 0.00017281
17470.0 0.00017227
17490.0 0.00017173
17510.0 0.00017122
17530.0 0.00017069
17550.0 0.00017016
17570.0 0.00016964
17590.0 0.00016913
17610.0 0.00016859
17630.0 0.00016806
17650.0 0.00016755
17670.0 0.00016703
17690.0 0.00016648
17710.0 0.00016596
17730.0 0.00016545
17750.0 0.00016491
17770.0 0.00016439
17790.0 0.00016388
17810.0 0.00016335
17830.0 0.00016281
17850.0 0.00016229
17870.0 0.00016178
17890.0 0.00016123
17910.0 0.0001607
17930.0 0.0001602
17950.0 0.00015967
17970.0 0.00015913
17990.0 0.00015862
18010.0 0.0001581
18030.0 0.00015755
18050.0 0.00015702
18070.0 0.0001565
18090.0 0.00015597
18110.0 0.00015543
18130.0 0.00015491
18150.0 0.00015439
18170.0 0.00015385
18190.0 0.00015332
18210.0 0.0001528
18230.0 0.00015226
18250.0 0.00015171
18270.0 0.00015119
18290.0 0.00015067
18310.0 0.00015012
18330.0 0.00014959
18350.0 0.00014907
18370.0 0.00014853
18390.0 0.00014798
18410.0 0.00014746
18430.0 0.00014693
18450.0 0.00014637
18470.0 0.00014583
18490.0 0.00014531
18510.0 0.00014476
18530.0 0.00014422
18550.0 0.0001437
18570.0 0.00014316
18590.0 0.0001426
18610.0 0.00014206
18630.0 0.00014153
18650.0 0.00014097
18670.0 0.00014042
18690.0 0.00013989
18710.0 0.00013935
18730.0 0.00013879
18750.0 0.00013826
18770.0 0.00013772
18790.0 0.00013715
18810.0 0.0001366
18830.0 0.00013607
18850.0 0.00013552
18870.0 0.00013495
18890.0 0.00013441
18910.0 0.00013387
18930.0 0.00013331
18950.0 0.00013275
18970.0 0.00013221
18990.0 0.00013166
19010.0 0.00013108
19030.0 0.00013054
19050.0 0.00012999
19070.0 0.00012942
19090.0 0.00012886
19110.0 0.00012833
19130.0 0.00012776
19150.0 0.00012719
19170.0 0.00012664
19190.0 0.00012608
19210.0 0.0001255
19230.0 0.00012494
19250.0 0.00012439
19270.0 0.00012383
19290.0 0.00012326
19310.0 0.0001227
19330.0 0.00012215
19350.0 0.00012156
19370.0 0.00012099
19390.0 0.00012044
19410.0 0.00011986
19430.0 0.00011928
19450.0 0.00011873
19470.0 0.00011817
19490.0 0.00011759
19510.0 0.00011702
19530.0 0.00011646
19550.0 0.00011588
19570.0 0.00011529
19590.0 0.00011473
19610.0 0.00011416
19630.0 0.00011357
19650.0 0.00011301
19670.0 0.00011245
19690.0 0.00011186
19710.0 0.00011127
19730.0 0.00011071
19750.0 0.00011013
19770.0 0.00010953
19790.0 0.00010896
19810.0 0.0001084
19830.0 0.00010781
19850.0 0.00010723
19870.0 0.00010667
19890.0 0.0001061
19910.0 0.00010553
19930.0 0.00010499
19950.0 0.00010449
19970.0 0.00010402
19990.0 0.00010359
20010.0 0.00010325
20030.0 0.00010296
20050.0 0.00010271
20070.0 0.00010253
20090.0 0.00010238
20110.0 0.00010226
20130.0 0.00010215
20150.0 0.00010206
20170.0 0.00010196
20190.0 0.00010186
20210.0 0.00010176
20230.0 0.00010165
20250.0 0.00010153
20270.0 0.00010141
20290.0 0.00010128
20310.0 0.00010114
20330.0 0.00010098
20350.0 0.00010083
20370.0 0.00010066
20390.0 0.00010048
20410.0 0.0001003
20430.0 0.00010012
20450.0 9.9927e-05
20470.0 9.9728e-05
20490.0 9.9534e-05
20510.0 9.9339e-05
20530.0 9.9136e-05
20550.0 9.8942e-05
20570.0 9.8759e-05
20590.0 9.8572e-05
20610.0 9.8389e-05
20630.0 9.8217e-05
20650.0 9.8047e-05
20670.0 9.7871e-05
20690.0 9.7704e-05
20710.0 9.754e-05
20730.0 9.7366e-05
20750.0 9.7185e-05
20770.0 9.7005e-05
20790.0 9.6811e-05
20810.0 9.6597e-05
20830.0 9.6374e-05
20850.0 9.6141e-05
20870.0 9.5878e-05
20890.0 9.5597e-05
20910.0 9.5315e-05
20930.0 9.5011e-05
20950.0 9.4685e-05
20970.0 9.4358e-05
20990.0 9.4027e-05
21010.0 9.3671e-05
21030.0 9.3316e-05
21050.0 9.2971e-05
21070.0 9.2619e-05
21090.0 9.2256e-05
21110.0 9.1916e-05
21130.0 9.1583e-05
21150.0 9.1242e-05
21170.0 9.091e-05
21190.0 9.0594e-05
21210.0 9.0268e-05
21230.0 8.9937e-05
21250.0 8.9621e-05
21270.0 8.9305e-05
21290.0 8.8973e-05
21310.0 8.864e-05
21330.0 8.8318e-05
21350.0 8.7976e-05
21370.0 8.7621e-05
21390.0 8.7268e-05
21410.0 8.6909e-05
21430.0 8.6517e-05
21450.0 8.6129e-05
21470.0 8.5746e-05
21490.0 8.5342e-05
21510.0 8.4924e-05
21530.0 8.4519e-05
21550.0 8.4106e-05
21570.0 8.367e-05
21590.0 8.3241e-05
21610.0 8.2823e-05
21630.0 8.2389e-05
21650.0 8.1941e-05
21670.0 8.1527e-05
21690.0 8.1108e-05
21710.0 8.0677e-05
21730.0 8.0258e-05
21750.0 7.9858e-05
21770.0 7.9433e-05
21790.0 7.9013e-05
21810.0 7.8613e-05
21830.0 7.821e-05
21850.0 7.7793e-05
21870.0 7.739e-05
21890.0 7.7004e-05
21910.0 7.6601e-05
21930.0 7.6202e-05
21950.0 7.5822e-05
21970.0 7.5441e-05
21990.0 7.5046e-05
22010.0 7.4681e-05
22030.0 7.4332e-05
22050.0 7.3981e-05
22070.0 7.3649e-05
22090.0 7.3361e-05
22110.0 7.3079e-05
22130.0 7.2806e-05
22150.0 7.2561e-05
22170.0 7.2337e-05
22190.0 7.2117e-05
22210.0 7.1916e-05
22230.0 7.1746e-05
22250.0 7.1583e-05
22270.0 7.1427e-05
22290.0 7.1292e-05
22310.0 7.1169e-05
22330.0 7.1042e-05
22350.0 7.0925e-05
22370.0 7.082e-05
22390.0 7.0712e-05
22410.0 7.0599e-05
22430.0 7.0497e-05
22450.0 7.0396e-05
22470.0 7.0286e-05
22490.0 7.0177e-05
22510.0 7.0076e-05
22530.0 6.9963e-05
22550.0 6.9846e-05
22570.0 6.974e-05
22590.0 6.9636e-05
22610.0 6.9526e-05
22630.0 6.9423e-05
22650.0 6.9336e-05
22670.0 6.9247e-05
22690.0 6.9163e-05
22710.0 6.9097e-05
22730.0 6.9043e-05
22750.0 6.8988e-05
22770.0 6.8955e-05
22790.0 6.8942e-05
22810.0 6.8937e-05
22830.0 6.8946e-05
22850.0 6.8977e-05
22870.0 6.902e-05
22890.0 6.9073e-05
22910.0 6.9144e-05
22930.0 6.9231e-05
22950.0 6.9327e-05
22970.0 6.9433e-05
22990.0 6.9557e-05
23010.0 6.9689e-05
23030.0 6.9831e-05
23050.0 6.9986e-05
23070.0 7.0154e-05
23090.0 7.0332e-05
23110.0 7.0458e-05
