#lamb flux
1010.0 8.976e-09
1030.0 9.8276e-09
1050.0 1.0807e-08
1070.0 1.1909e-08
1090.0 1.3162e-08
1110.0 1.4446e-08
1130.0 1.5739e-08
1150.0 1.7093e-08
1170.0 1.849e-08
1190.0 1.9814e-08
1210.0 2.1157e-08
1230.0 2.2544e-08
1250.0 2.3903e-08
1270.0 2.5223e-08
1290.0 2.6617e-08
1310.0 2.8011e-08
1330.0 2.9347e-08
1350.0 3.0699e-08
1370.0 3.2094e-08
1390.0 3.3454e-08
1410.0 3.4774e-08
1430.0 3.6153e-08
1450.0 3.7533e-08
1470.0 3.8866e-08
1490.0 4.0213e-08
1510.0 4.1637e-08
1530.0 4.2985e-08
1550.0 4.4315e-08
1570.0 4.5691e-08
1590.0 4.7068e-08
1610.0 4.8383e-08
1630.0 4.9739e-08
1650.0 5.1131e-08
1670.0 5.2476e-08
1690.0 5.3804e-08
1710.0 5.5183e-08
1730.0 5.6569e-08
1750.0 5.7872e-08
1770.0 5.9212e-08
1790.0 6.0579e-08
1810.0 6.19e-08
1830.0 6.3197e-08
1850.0 6.4572e-08
1870.0 6.591e-08
1890.0 6.7199e-08
1910.0 6.8512e-08
1930.0 6.9854e-08
1950.0 7.113e-08
1970.0 7.2386e-08
1990.0 7.3686e-08
2010.0 7.4957e-08
2030.0 7.6174e-08
2050.0 7.7423e-08
2070.0 7.8696e-08
2090.0 7.9883e-08
2110.0 8.1055e-08
2130.0 8.2254e-08
2150.0 8.3415e-08
2170.0 8.4505e-08
2190.0 8.5627e-08
2210.0 8.674e-08
2230.0 8.7784e-08
2250.0 8.8803e-08
2270.0 8.9858e-08
2290.0 9.0852e-08
2310.0 9.1775e-08
2330.0 9.2724e-08
2350.0 9.3685e-08
2370.0 9.462e-08
2390.0 9.5645e-08
2410.0 9.6917e-08
2430.0 9.8433e-08
2450.0 1.0032e-07
2470.0 1.0286e-07
2490.0 1.0617e-07
2510.0 1.0999e-07
2530.0 1.1468e-07
2550.0 1.2066e-07
2570.0 1.2818e-07
2590.0 1.3801e-07
2610.0 1.5276e-07
2630.0 1.7368e-07
2650.0 2.0069e-07
2670.0 2.352e-07
2690.0 2.7705e-07
2710.0 3.2097e-07
2730.0 3.6355e-07
2750.0 4.0469e-07
2770.0 4.3947e-07
2790.0 4.6597e-07
2810.0 4.8594e-07
2830.0 5.0047e-07
2850.0 5.091e-07
2870.0 5.1436e-07
2890.0 5.177e-07
2910.0 5.1962e-07
2930.0 5.2058e-07
2950.0 5.2136e-07
2970.0 5.2209e-07
2990.0 5.2264e-07
3010.0 1.6233e-05
3030.0 1.625e-05
3050.0 1.6265e-05
3070.0 1.6267e-05
3090.0 1.6259e-05
3110.0 1.6222e-05
3130.0 1.6135e-05
3150.0 1.5983e-05
3170.0 1.5734e-05
3190.0 1.5391e-05
3210.0 1.4982e-05
3230.0 1.4524e-05
3250.0 1.4058e-05
3270.0 1.3712e-05
3290.0 1.3466e-05
3310.0 1.3431e-05
3330.0 1.3555e-05
3350.0 1.3828e-05
3370.0 1.4248e-05
3390.0 1.4796e-05
3410.0 1.5402e-05
3430.0 1.6089e-05
3450.0 1.6886e-05
3470.0 1.7763e-05
3490.0 1.8699e-05
3510.0 1.9764e-05
3530.0 2.0918e-05
3550.0 2.213e-05
3570.0 2.3438e-05
3590.0 2.4881e-05
3610.0 2.6445e-05
3630.0 2.7993e-05
3650.0 2.9619e-05
3670.0 3.1086e-05
3690.0 3.2174e-05
3710.0 3.2742e-05
3730.0 3.2527e-05
3750.0 3.1586e-05
3770.0 3.2113e-05
3790.0 3.1749e-05
3810.0 2.6957e-05
3830.0 2.6969e-05
3850.0 3.6127e-05
3870.0 3.69e-05
3890.0 3.1035e-05
3910.0 2.9534e-05
3930.0 3.3781e-05
3950.0 3.8196e-05
3970.0 3.9669e-05
3990.0 2.843e-05
4010.0 6.7896e-05
4030.0 7.4299e-05
4050.0 8.3836e-05
4070.0 8.3057e-05
4090.0 7.6837e-05
4110.0 6.59e-05
4130.0 7.1555e-05
4150.0 8.9389e-05
4170.0 7.5894e-05
4190.0 7.217e-05
4210.0 7.751e-05
4230.0 9.0427e-05
4250.0 0.00010854
4270.0 0.00011529
4290.0 0.00010274
4310.0 9.8925e-05
4330.0 0.00010001
4350.0 0.00012199
4370.0 0.00014546
4390.0 0.00012202
4410.0 7.4891e-05
4430.0 5.722e-05
4450.0 5.3479e-05
4470.0 3.5208e-05
4490.0 5.0321e-05
4510.0 9.9483e-05
4530.0 0.00011965
4550.0 0.00011363
4570.0 0.00010911
4590.0 0.00011869
4610.0 0.00020946
4630.0 0.00028913
4650.0 0.00028496
4670.0 0.00025408
4690.0 0.00025265
4710.0 0.00026448
4730.0 0.00022785
4750.0 0.00015567
4770.0 0.00010815
4790.0 0.00011289
4810.0 0.00011574
4830.0 0.00011183
4850.0 0.00012146
4870.0 0.00016077
4890.0 0.00018707
4910.0 0.00015131
4930.0 0.00014325
4950.0 0.00016285
4970.0 0.00021383
4990.0 0.0002893
5010.0 0.00033514
5030.0 0.00027637
5050.0 0.00017527
5070.0 0.00012151
5090.0 9.3302e-05
5110.0 8.9709e-05
5130.0 0.00010702
5150.0 0.00010777
5170.0 0.00010277
5190.0 9.2578e-05
5210.0 0.00010159
5230.0 0.00011977
5250.0 0.00013656
5270.0 0.00013213
5290.0 0.00014331
5310.0 0.00018469
5330.0 0.00020102
5350.0 0.00019864
5370.0 0.00021842
5390.0 0.00026654
5410.0 0.00023908
5430.0 0.00019252
5450.0 0.00018857
5470.0 0.00021292
5490.0 0.00026393
5510.0 0.00032309
5530.0 0.00037386
5550.0 0.00034484
5570.0 0.00031083
5590.0 0.00025986
5610.0 0.00025592
5630.0 0.00027609
5650.0 0.00025584
5670.0 0.00023695
5690.0 0.00019694
5710.0 0.00019967
5730.0 0.00019102
5750.0 0.00011272
5770.0 8.2425e-05
5790.0 9.917e-05
5810.0 0.00010634
5830.0 0.00015445
5850.0 0.00019721
5870.0 0.00021453
5890.0 0.00020889
5910.0 0.00020403
5930.0 0.00019527
5950.0 0.00020055
5970.0 0.00024359
5990.0 0.00020797
6010.0 0.0001644
6030.0 0.00013575
6050.0 0.00012032
6070.0 0.00013592
6090.0 0.00015098
6110.0 0.00015797
6130.0 0.00015029
6150.0 0.00012144
6170.0 9.7194e-05
6190.0 0.0001148
6210.0 0.00017279
6230.0 0.00024828
6250.0 0.00026882
6270.0 0.00021333
6290.0 0.00018193
6310.0 0.00013966
6330.0 0.00010319
6350.0 9.8638e-05
6370.0 0.00010358
6390.0 0.00012247
6410.0 0.00015683
6430.0 0.00018732
6450.0 0.00022563
6470.0 0.00024271
6490.0 0.00029091
6510.0 0.00032594
6530.0 0.00033026
6550.0 0.00030254
6570.0 0.00024483
6590.0 0.00022912
6610.0 0.00019161
6630.0 0.00019279
6650.0 0.00018659
6670.0 0.00016643
6690.0 0.00013326
6710.0 0.00012801
6730.0 6.3324e-05
6750.0 7.849e-05
6770.0 0.00011396
6790.0 0.00014674
6810.0 0.00010958
6830.0 0.00011206
6850.0 9.5569e-05
6870.0 8.8699e-05
6890.0 7.7212e-05
6910.0 9.1434e-05
6930.0 8.6044e-05
6950.0 9.951e-05
6970.0 0.00010395
6990.0 0.00011598
7010.0 0.00011267
7030.0 0.00012641
7050.0 0.00011179
7070.0 9.5845e-05
7090.0 0.00010152
7110.0 0.00010742
7130.0 0.00012208
7150.0 0.00013641
7170.0 0.00015261
7190.0 0.00016442
7210.0 0.0001498
7230.0 0.00015228
7250.0 0.00016296
7270.0 0.00017497
7290.0 0.00021439
7310.0 0.00022878
7330.0 0.00021631
7350.0 0.00019429
7370.0 0.0001497
7390.0 0.00015171
7410.0 0.00017955
7430.0 0.00020364
7450.0 0.00021997
7470.0 0.00020431
7490.0 0.00016676
7510.0 0.00024877
7530.0 0.0002312
7550.0 0.00021669
7570.0 0.00015186
7590.0 7.5663e-05
7610.0 5.6913e-05
7630.0 7.8935e-05
7650.0 0.00010255
7670.0 0.00015406
7690.0 0.00017093
7710.0 0.00015961
7730.0 0.00016095
7750.0 0.00020393
7770.0 0.00020922
7790.0 0.0001913
7810.0 0.00015869
7830.0 0.00017022
7850.0 0.0001819
7870.0 0.0001755
7890.0 0.0001391
7910.0 9.7741e-05
7930.0 9.9573e-05
7950.0 9.0201e-05
7970.0 7.7683e-05
7990.0 7.1982e-05
8010.0 2.7589e-05
8030.0 2.5001e-05
8050.0 2.7195e-05
8070.0 3.1196e-05
8090.0 3.8784e-05
8110.0 3.6477e-05
8130.0 2.0826e-05
8150.0 2.1995e-05
8170.0 1.1442e-05
8190.0 6.1329e-06
8210.0 1.9596e-05
8230.0 2.4008e-05
8250.0 8.1911e-06
8270.0 6.1734e-06
8290.0 1.4188e-05
8310.0 1.2893e-05
8330.0 7.8946e-06
8350.0 6.3527e-06
8370.0 1.1033e-06
8390.0 6.7886e-06
8410.0 7.7507e-06
8430.0 9.6111e-06
8450.0 1.0857e-05
8470.0 1.8854e-05
8490.0 1.5223e-05
8510.0 1.1437e-05
8530.0 5.1746e-06
8550.0 2.1132e-05
8570.0 3.3184e-05
8590.0 2.237e-05
8610.0 3.4241e-05
8630.0 3.7181e-05
8650.0 1.8864e-05
8670.0 2.9042e-05
8690.0 4.6481e-05
8710.0 3.9541e-05
8730.0 4.277e-05
8750.0 3.3211e-05
8770.0 2.932e-05
8790.0 3.2755e-05
8810.0 3.5843e-05
8830.0 1.9225e-05
8850.0 7.3823e-06
8870.0 5.0035e-06
8890.0 1.4753e-05
8910.0 2.4095e-05
8930.0 3.2355e-05
8950.0 3.5874e-05
8970.0 3.4403e-05
8990.0 2.5136e-05
9010.0 3.2201e-05
9030.0 2.4959e-05
9050.0 2.574e-05
9070.0 2.6591e-05
9090.0 2.7291e-05
9110.0 2.8147e-05
9130.0 2.8767e-05
9150.0 2.9209e-05
9170.0 2.9679e-05
9190.0 3.0183e-05
9210.0 3.0712e-05
9230.0 3.1271e-05
9250.0 3.1834e-05
9270.0 3.2416e-05
9290.0 3.3012e-05
9310.0 3.3607e-05
9330.0 3.4209e-05
9350.0 3.4832e-05
9370.0 3.5458e-05
9390.0 3.6085e-05
9410.0 3.6728e-05
9430.0 3.7389e-05
9450.0 3.8041e-05
9470.0 3.8705e-05
9490.0 3.9387e-05
9510.0 4.0073e-05
9530.0 4.0758e-05
9550.0 4.1469e-05
9570.0 4.2189e-05
9590.0 4.2907e-05
9610.0 4.3636e-05
9630.0 4.4386e-05
9650.0 4.5138e-05
9670.0 4.5888e-05
9690.0 4.666e-05
9710.0 4.7443e-05
9730.0 4.8224e-05
9750.0 4.9016e-05
9770.0 4.9835e-05
9790.0 5.0647e-05
9810.0 5.1463e-05
9830.0 5.2297e-05
9850.0 5.3142e-05
9870.0 5.398e-05
9890.0 5.4832e-05
9910.0 5.5702e-05
9930.0 5.657e-05
9950.0 5.744e-05
9970.0 5.833e-05
9990.0 5.923e-05
10010.0 5.2299e-05
10030.0 5.3082e-05
10050.0 5.3877e-05
10070.0 5.4666e-05
10090.0 5.5456e-05
10110.0 5.6266e-05
10130.0 5.7075e-05
10150.0 5.7877e-05
10170.0 5.8687e-05
10190.0 5.9511e-05
10210.0 6.0322e-05
10230.0 6.1131e-05
10250.0 6.1954e-05
10270.0 6.2774e-05
10290.0 6.3584e-05
10310.0 6.4404e-05
10330.0 6.5232e-05
10350.0 6.6045e-05
10370.0 6.6855e-05
10390.0 6.7675e-05
10410.0 6.8489e-05
10430.0 6.9286e-05
10450.0 7.0091e-05
10470.0 7.0898e-05
10490.0 7.1689e-05
10510.0 7.2474e-05
10530.0 7.3272e-05
10550.0 7.4055e-05
10570.0 7.482e-05
10590.0 7.5589e-05
10610.0 7.6355e-05
10630.0 7.71e-05
10650.0 7.7839e-05
10670.0 7.8584e-05
10690.0 7.9312e-05
10710.0 8.0022e-05
10730.0 8.0733e-05
10750.0 8.1444e-05
10770.0 8.2122e-05
10790.0 8.2792e-05
10810.0 8.3462e-05
10830.0 8.4109e-05
10850.0 8.4723e-05
10870.0 8.5325e-05
10890.0 8.5869e-05
10910.0 8.6313e-05
10930.0 8.6624e-05
10950.0 8.6725e-05
10970.0 8.6547e-05
10990.0 8.6059e-05
11010.0 8.316e-05
11030.0 8.1879e-05
11050.0 8.028e-05
11070.0 7.8345e-05
11090.0 7.6007e-05
11110.0 7.3582e-05
11130.0 7.1053e-05
11150.0 6.8338e-05
11170.0 6.555e-05
11190.0 6.2854e-05
11210.0 6.0084e-05
11230.0 5.7258e-05
11250.0 5.4569e-05
11270.0 5.1995e-05
11290.0 4.9426e-05
11310.0 4.6997e-05
11330.0 4.4855e-05
11350.0 4.283e-05
11370.0 4.0952e-05
11390.0 3.9316e-05
11410.0 3.787e-05
11430.0 3.6513e-05
11450.0 3.5326e-05
11470.0 3.428e-05
11490.0 3.3294e-05
11510.0 3.2334e-05
11530.0 3.1434e-05
11550.0 3.0539e-05
11570.0 2.9591e-05
11590.0 2.8617e-05
11610.0 2.7633e-05
11630.0 2.6575e-05
11650.0 2.5455e-05
11670.0 2.4358e-05
11690.0 2.3251e-05
11710.0 2.2116e-05
11730.0 2.1018e-05
11750.0 2e-05
11770.0 1.9002e-05
11790.0 1.8063e-05
11810.0 1.7229e-05
11830.0 1.6476e-05
11850.0 1.5776e-05
11870.0 1.5179e-05
11890.0 1.4672e-05
11910.0 1.4218e-05
11930.0 1.3818e-05
11950.0 1.3476e-05
11970.0 1.3164e-05
11990.0 1.2867e-05
12010.0 1.2591e-05
12030.0 1.2325e-05
12050.0 1.2053e-05
12070.0 1.1775e-05
12090.0 1.1508e-05
12110.0 1.1237e-05
12130.0 1.0966e-05
12150.0 1.0711e-05
12170.0 1.0481e-05
12190.0 1.027e-05
12210.0 1.0101e-05
12230.0 9.9826e-06
12250.0 9.9175e-06
12270.0 9.9169e-06
12290.0 9.9824e-06
12310.0 1.0109e-05
12330.0 1.0313e-05
12350.0 1.0585e-05
12370.0 1.0905e-05
12390.0 1.1285e-05
12410.0 1.1739e-05
12430.0 1.2203e-05
12450.0 1.2687e-05
12470.0 1.3203e-05
12490.0 1.3723e-05
12510.0 1.4207e-05
12530.0 1.4689e-05
12550.0 1.5152e-05
12570.0 1.5556e-05
12590.0 1.5905e-05
12610.0 1.6213e-05
12630.0 1.6452e-05
12650.0 1.6604e-05
12670.0 1.6693e-05
12690.0 1.6708e-05
12710.0 1.6646e-05
12730.0 1.6516e-05
12750.0 1.6312e-05
12770.0 1.6045e-05
12790.0 1.5728e-05
12810.0 1.5358e-05
12830.0 1.4937e-05
12850.0 1.4498e-05
12870.0 1.4039e-05
12890.0 1.3546e-05
12910.0 1.3049e-05
12930.0 1.256e-05
12950.0 1.2054e-05
12970.0 1.1542e-05
12990.0 1.1058e-05
13010.0 1.0583e-05
13030.0 1.0104e-05
13050.0 9.6437e-06
13070.0 9.2124e-06
13090.0 8.7801e-06
13110.0 8.3613e-06
13130.0 7.9735e-06
13150.0 7.6046e-06
13170.0 7.242e-06
13190.0 6.9161e-06
13210.0 6.6257e-06
13230.0 6.3569e-06
13250.0 6.1206e-06
13270.0 5.928e-06
13290.0 5.7708e-06
13310.0 5.6519e-06
13330.0 5.5808e-06
13350.0 5.5546e-06
13370.0 5.5748e-06
13390.0 5.6451e-06
13410.0 5.7534e-06
13430.0 5.9041e-06
13450.0 6.0986e-06
13470.0 6.3207e-06
13490.0 6.5606e-06
13510.0 6.8371e-06
13530.0 7.122e-06
13550.0 7.3984e-06
13570.0 7.6749e-06
13590.0 7.9485e-06
13610.0 8.1951e-06
13630.0 8.4133e-06
13650.0 8.6161e-06
13670.0 8.7875e-06
13690.0 8.9227e-06
13710.0 9.0304e-06
13730.0 9.1112e-06
13750.0 9.1559e-06
13770.0 9.173e-06
13790.0 9.1643e-06
13810.0 9.1296e-06
13830.0 9.0733e-06
13850.0 8.9943e-06
13870.0 8.8928e-06
13890.0 8.7752e-06
13910.0 8.6419e-06
13930.0 8.4875e-06
13950.0 8.3188e-06
13970.0 8.1463e-06
13990.0 7.9589e-06
14010.0 7.7601e-06
14030.0 7.5622e-06
14050.0 7.3632e-06
14070.0 7.1536e-06
14090.0 6.9529e-06
14110.0 6.7643e-06
14130.0 6.5813e-06
14150.0 6.4087e-06
14170.0 6.2607e-06
14190.0 6.1318e-06
14210.0 6.0213e-06
14230.0 5.9378e-06
14250.0 5.8817e-06
14270.0 5.8513e-06
14290.0 5.8505e-06
14310.0 5.8772e-06
14330.0 5.93e-06
14350.0 6.0108e-06
14370.0 6.1138e-06
14390.0 6.2329e-06
14410.0 6.375e-06
14430.0 6.5332e-06
14450.0 6.6968e-06
14470.0 6.8686e-06
14490.0 7.0534e-06
14510.0 7.2325e-06
14530.0 7.4046e-06
14550.0 7.5785e-06
14570.0 7.7474e-06
14590.0 7.9028e-06
14610.0 8.0544e-06
14630.0 8.2053e-06
14650.0 8.3466e-06
14670.0 8.4834e-06
14690.0 8.6256e-06
14710.0 8.7745e-06
14730.0 8.923e-06
14750.0 9.0867e-06
14770.0 9.2713e-06
14790.0 9.4709e-06
14810.0 9.687e-06
14830.0 9.942e-06
14850.0 1.0219e-05
14870.0 1.0509e-05
14890.0 1.0822e-05
14910.0 1.1154e-05
14930.0 1.1475e-05
14950.0 1.1776e-05
14970.0 1.2063e-05
14990.0 1.2305e-05
15010.0 1.2494e-05
15030.0 1.2638e-05
15050.0 1.2737e-05
15070.0 1.2792e-05
15090.0 1.282e-05
15110.0 1.2829e-05
15130.0 1.2826e-05
15150.0 1.2817e-05
15170.0 1.2804e-05
15190.0 1.279e-05
15210.0 1.2776e-05
15230.0 1.2762e-05
15250.0 1.2748e-05
15270.0 1.2733e-05
15290.0 1.2721e-05
15310.0 1.2707e-05
15330.0 1.2694e-05
15350.0 1.2681e-05
15370.0 1.2669e-05
15390.0 1.2655e-05
15410.0 1.2643e-05
15430.0 1.2631e-05
15450.0 1.2619e-05
15470.0 1.2606e-05
15490.0 1.2595e-05
15510.0 1.2584e-05
15530.0 1.2572e-05
15550.0 1.256e-05
15570.0 1.255e-05
15590.0 1.2538e-05
15610.0 1.2526e-05
15630.0 1.2515e-05
15650.0 1.2504e-05
15670.0 1.2493e-05
15690.0 1.2482e-05
15710.0 1.2472e-05
15730.0 1.246e-05
15750.0 1.2449e-05
15770.0 1.2438e-05
15790.0 1.2428e-05
15810.0 1.2416e-05
15830.0 1.2405e-05
15850.0 1.2395e-05
15870.0 1.2383e-05
15890.0 1.2372e-05
15910.0 1.2362e-05
15930.0 1.2351e-05
15950.0 1.2338e-05
15970.0 1.2327e-05
15990.0 1.2316e-05
16010.0 1.2304e-05
16030.0 1.2292e-05
16050.0 1.2281e-05
16070.0 1.227e-05
16090.0 1.2257e-05
16110.0 1.2245e-05
16130.0 1.2234e-05
16150.0 1.2221e-05
16170.0 1.2208e-05
16190.0 1.2196e-05
16210.0 1.2183e-05
16230.0 1.217e-05
16250.0 1.2157e-05
16270.0 1.2144e-05
16290.0 1.213e-05
16310.0 1.2116e-05
16330.0 1.2103e-05
16350.0 1.2089e-05
16370.0 1.2074e-05
16390.0 1.206e-05
16410.0 1.2046e-05
16430.0 1.203e-05
16450.0 1.2015e-05
16470.0 1.2001e-05
16490.0 1.1985e-05
16510.0 1.1969e-05
16530.0 1.1953e-05
16550.0 1.1937e-05
16570.0 1.192e-05
16590.0 1.1903e-05
16610.0 1.1887e-05
16630.0 1.187e-05
16650.0 1.1852e-05
16670.0 1.1835e-05
16690.0 1.1817e-05
16710.0 1.1798e-05
16730.0 1.1779e-05
16750.0 1.1761e-05
16770.0 1.1742e-05
16790.0 1.1722e-05
16810.0 1.1703e-05
16830.0 1.1683e-05
16850.0 1.1663e-05
16870.0 1.1642e-05
16890.0 1.1622e-05
16910.0 1.1601e-05
16930.0 1.1578e-05
16950.0 1.1558e-05
16970.0 1.1536e-05
16990.0 1.1513e-05
17010.0 1.1491e-05
17030.0 1.1469e-05
17050.0 1.1445e-05
17070.0 1.1422e-05
17090.0 1.1399e-05
17110.0 1.1375e-05
17130.0 1.135e-05
17150.0 1.1325e-05
17170.0 1.1301e-05
17190.0 1.1276e-05
17210.0 1.125e-05
17230.0 1.1226e-05
17250.0 1.12e-05
17270.0 1.1173e-05
17290.0 1.1146e-05
17310.0 1.112e-05
17330.0 1.1093e-05
17350.0 1.1065e-05
17370.0 1.1038e-05
17390.0 1.101e-05
17410.0 1.0982e-05
17430.0 1.0954e-05
17450.0 1.0926e-05
17470.0 1.0896e-05
17490.0 1.0866e-05
17510.0 1.0838e-05
17530.0 1.0808e-05
17550.0 1.0777e-05
17570.0 1.0747e-05
17590.0 1.0718e-05
17610.0 1.0686e-05
17630.0 1.0655e-05
17650.0 1.0625e-05
17670.0 1.0593e-05
17690.0 1.056e-05
17710.0 1.0529e-05
17730.0 1.0497e-05
17750.0 1.0464e-05
17770.0 1.0431e-05
17790.0 1.04e-05
17810.0 1.0366e-05
17830.0 1.0332e-05
17850.0 1.0299e-05
17870.0 1.0266e-05
17890.0 1.0231e-05
17910.0 1.0196e-05
17930.0 1.0163e-05
17950.0 1.0129e-05
17970.0 1.0093e-05
17990.0 1.0059e-05
18010.0 1.0025e-05
18030.0 9.9881e-06
18050.0 9.9526e-06
18070.0 9.9177e-06
18090.0 9.8816e-06
18110.0 9.8449e-06
18130.0 9.8097e-06
18150.0 9.7738e-06
18170.0 9.7367e-06
18190.0 9.7002e-06
18210.0 9.6644e-06
18230.0 9.6268e-06
18250.0 9.5888e-06
18270.0 9.5525e-06
18290.0 9.5155e-06
18310.0 9.4774e-06
18330.0 9.4401e-06
18350.0 9.4034e-06
18370.0 9.365e-06
18390.0 9.3267e-06
18410.0 9.2893e-06
18430.0 9.2514e-06
18450.0 9.2119e-06
18470.0 9.1739e-06
18490.0 9.1363e-06
18510.0 9.0974e-06
18530.0 9.0586e-06
18550.0 9.0209e-06
18570.0 8.9821e-06
18590.0 8.9423e-06
18610.0 8.9037e-06
18630.0 8.8653e-06
18650.0 8.8256e-06
18670.0 8.7859e-06
18690.0 8.7479e-06
18710.0 8.7087e-06
18730.0 8.6689e-06
18750.0 8.63e-06
18770.0 8.5915e-06
18790.0 8.5508e-06
18810.0 8.511e-06
18830.0 8.4724e-06
18850.0 8.4328e-06
18870.0 8.3926e-06
18890.0 8.3536e-06
18910.0 8.3147e-06
18930.0 8.2744e-06
18950.0 8.2346e-06
18970.0 8.1958e-06
18990.0 8.156e-06
19010.0 8.1149e-06
19030.0 8.0761e-06
19050.0 8.0369e-06
19070.0 7.9967e-06
19090.0 7.957e-06
19110.0 7.9185e-06
19130.0 7.8783e-06
19150.0 7.8379e-06
19170.0 7.7988e-06
19190.0 7.7596e-06
19210.0 7.7191e-06
19230.0 7.6793e-06
19250.0 7.6408e-06
19270.0 7.6011e-06
19290.0 7.5611e-06
19310.0 7.5224e-06
19330.0 7.4834e-06
19350.0 7.4427e-06
19370.0 7.4034e-06
19390.0 7.3648e-06
19410.0 7.3252e-06
19430.0 7.2852e-06
19450.0 7.2469e-06
19470.0 7.2081e-06
19490.0 7.1683e-06
19510.0 7.1294e-06
19530.0 7.0912e-06
19550.0 7.0515e-06
19570.0 7.0118e-06
19590.0 6.9738e-06
19610.0 6.9352e-06
19630.0 6.8958e-06
19650.0 6.8575e-06
19670.0 6.8198e-06
19690.0 6.7805e-06
19710.0 6.7417e-06
19730.0 6.7039e-06
19750.0 6.6657e-06
19770.0 6.6263e-06
19790.0 6.5884e-06
19810.0 6.551e-06
19830.0 6.5123e-06
19850.0 6.4737e-06
19870.0 6.4357e-06
19890.0 6.3956e-06
19910.0 6.3523e-06
19930.0 6.3067e-06
19950.0 6.256e-06
19970.0 6.1954e-06
19990.0 6.1243e-06
20010.0 5.5686e-06
20030.0 5.4817e-06
20050.0 5.3815e-06
20070.0 5.274e-06
20090.0 5.1594e-06
20110.0 5.0311e-06
20130.0 4.9019e-06
20150.0 4.7745e-06
20170.0 4.643e-06
20190.0 4.5104e-06
20210.0 4.3853e-06
20230.0 4.2636e-06
20250.0 4.142e-06
20270.0 4.0291e-06
20290.0 3.9259e-06
20310.0 3.8277e-06
20330.0 3.7356e-06
20350.0 3.6586e-06
20370.0 3.5896e-06
20390.0 3.5285e-06
20410.0 3.4783e-06
20430.0 3.4386e-06
20450.0 3.4062e-06
20470.0 3.383e-06
20490.0 3.3687e-06
20510.0 3.3618e-06
20530.0 3.3621e-06
20550.0 3.369e-06
20570.0 3.3809e-06
20590.0 3.3986e-06
20610.0 3.421e-06
20630.0 3.4463e-06
20650.0 3.4753e-06
20670.0 3.5091e-06
20690.0 3.5439e-06
20710.0 3.5801e-06
20730.0 3.6193e-06
20750.0 3.6604e-06
20770.0 3.7006e-06
20790.0 3.7428e-06
20810.0 3.7873e-06
20830.0 3.8312e-06
20850.0 3.875e-06
20870.0 3.9216e-06
20890.0 3.9689e-06
20910.0 4.014e-06
20930.0 4.0605e-06
20950.0 4.1086e-06
20970.0 4.155e-06
20990.0 4.2006e-06
21010.0 4.2485e-06
21030.0 4.295e-06
21050.0 4.3391e-06
21070.0 4.383e-06
21090.0 4.4271e-06
21110.0 4.4669e-06
21130.0 4.5042e-06
21150.0 4.5403e-06
21170.0 4.5728e-06
21190.0 4.6006e-06
21210.0 4.6256e-06
21230.0 4.6463e-06
21250.0 4.6607e-06
21270.0 4.6695e-06
21290.0 4.6723e-06
21310.0 4.6679e-06
21330.0 4.6564e-06
21350.0 4.6372e-06
21370.0 4.6093e-06
21390.0 4.5739e-06
21410.0 4.5307e-06
21430.0 4.4762e-06
21450.0 4.4149e-06
21470.0 4.348e-06
21490.0 4.2724e-06
21510.0 4.1893e-06
21530.0 4.1047e-06
21550.0 4.016e-06
21570.0 3.9214e-06
21590.0 3.828e-06
21610.0 3.7376e-06
21630.0 3.6469e-06
21650.0 3.5581e-06
21670.0 3.4806e-06
21690.0 3.4088e-06
21710.0 3.3437e-06
21730.0 3.2897e-06
21750.0 3.2472e-06
21770.0 3.2138e-06
21790.0 3.1929e-06
21810.0 3.1844e-06
21830.0 3.1872e-06
21850.0 3.2022e-06
21870.0 3.2279e-06
21890.0 3.2622e-06
21910.0 3.3074e-06
21930.0 3.361e-06
21950.0 3.4197e-06
21970.0 3.4851e-06
21990.0 3.5592e-06
22010.0 3.6334e-06
22030.0 3.7092e-06
22050.0 3.7891e-06
22070.0 3.8698e-06
22090.0 3.9463e-06
22110.0 4.0239e-06
22130.0 4.1015e-06
22150.0 4.1742e-06
22170.0 4.2429e-06
22190.0 4.3112e-06
22210.0 4.3749e-06
22230.0 4.431e-06
22250.0 4.4838e-06
22270.0 4.5325e-06
22290.0 4.5741e-06
22310.0 4.6096e-06
22330.0 4.6409e-06
22350.0 4.6649e-06
22370.0 4.6816e-06
22390.0 4.6918e-06
22410.0 4.6945e-06
22430.0 4.6894e-06
22450.0 4.6767e-06
22470.0 4.6554e-06
22490.0 4.6259e-06
22510.0 4.5892e-06
22530.0 4.5426e-06
22550.0 4.4862e-06
22570.0 4.4236e-06
22590.0 4.3532e-06
22610.0 4.2724e-06
