#lamb flux
1010.0 0.00031539
1030.0 0.0003852
1050.0 0.00045684
1070.0 0.00052628
1090.0 0.00059164
1110.0 0.00063884
1130.0 0.00066333
1150.0 0.00065731
1170.0 0.00062527
1190.0 0.00057011
1210.0 0.0006198
1230.0 0.00067164
1250.0 0.00072295
1270.0 0.00077297
1290.0 0.00082516
1310.0 0.00087655
1330.0 0.00092477
1350.0 0.00097191
1370.0 0.0010186
1390.0 0.0010619
1410.0 0.0011015
1430.0 0.0011407
1450.0 0.0011776
1470.0 0.0012106
1490.0 0.0012422
1510.0 0.0015412
1530.0 0.0019632
1550.0 0.0023999
1570.0 0.0028109
1590.0 0.0032302
1610.0 0.0036463
1630.0 0.0040622
1650.0 0.0044745
1670.0 0.0048721
1690.0 0.0052549
1710.0 0.0056291
1730.0 0.0059895
1750.0 0.0063247
1770.0 0.0066489
1790.0 0.0069616
1810.0 0.0072543
1830.0 0.00753
1850.0 0.0078031
1870.0 0.0080591
1890.0 0.0082974
1910.0 0.0085282
1930.0 0.0087533
1950.0 0.0089601
1970.0 0.0091556
1990.0 0.0093492
2010.0 0.0095314
2030.0 0.0096992
2050.0 0.009865
2070.0 0.010029
2090.0 0.010175
2110.0 0.010315
2130.0 0.010455
2150.0 0.010586
2170.0 0.010705
2190.0 0.010826
2210.0 0.010945
2230.0 0.011054
2250.0 0.01116
2270.0 0.011272
2290.0 0.011378
2310.0 0.011476
2330.0 0.011579
2350.0 0.011685
2370.0 0.011784
2390.0 0.011885
2410.0 0.011997
2430.0 0.012108
2450.0 0.012225
2470.0 0.012367
2490.0 0.012547
2510.0 0.01277
2530.0 0.013081
2550.0 0.013535
2570.0 0.014161
2590.0 0.014997
2610.0 0.016196
2630.0 0.017776
2650.0 0.019683
2670.0 0.022005
2690.0 0.024771
2710.0 0.027743
2730.0 0.030808
2750.0 0.034061
2770.0 0.037222
2790.0 0.040099
2810.0 0.042747
2830.0 0.045167
2850.0 0.047137
2870.0 0.048822
2890.0 0.050333
2910.0 0.051685
2930.0 0.052915
2950.0 0.054133
2970.0 0.055353
2990.0 0.056551
3010.0 0.057749
3030.0 0.058979
3050.0 0.060206
3070.0 0.061378
3090.0 0.062557
3110.0 0.063753
3130.0 0.064991
3150.0 0.066754
3170.0 0.06902
3190.0 0.072145
3210.0 0.076334
3230.0 0.081868
3250.0 0.088196
3270.0 0.092607
3290.0 0.10223
3310.0 0.12723
3330.0 0.13255
3350.0 0.13302
3370.0 0.13317
3390.0 0.13334
3410.0 0.13365
3430.0 0.13407
3450.0 0.13452
3470.0 0.1349
3490.0 0.13539
3510.0 0.13655
3530.0 0.13488
3550.0 0.1295
3570.0 0.12616
3590.0 0.12808
3610.0 0.13607
3630.0 0.13344
3650.0 0.12499
3670.0 0.11558
3690.0 0.11216
3710.0 0.11543
3730.0 0.11874
3750.0 0.12024
3770.0 0.1243
3790.0 0.12917
3810.0 0.12602
3830.0 0.11854
3850.0 0.11339
3870.0 0.11188
3890.0 0.11032
3910.0 0.1081
3930.0 0.10858
3950.0 0.11321
3970.0 0.11872
3990.0 0.12318
4010.0 0.12046
4030.0 0.11695
4050.0 0.11619
4070.0 0.11604
4090.0 0.11604
4110.0 0.11459
4130.0 0.11099
4150.0 0.10751
4170.0 0.10682
4190.0 0.10237
4210.0 0.09621
4230.0 0.089187
4250.0 0.082426
4270.0 0.078053
4290.0 0.074277
4310.0 0.073495
4330.0 0.07599
4350.0 0.0776
4370.0 0.081016
4390.0 0.085948
4410.0 0.090405
4430.0 0.089096
4450.0 0.083679
4470.0 0.079199
4490.0 0.077071
4510.0 0.076465
4530.0 0.077037
4550.0 0.07773
4570.0 0.079043
4590.0 0.081564
4610.0 0.08623
4630.0 0.089493
4650.0 0.091939
4670.0 0.090632
4690.0 0.086372
4710.0 0.081703
4730.0 0.079006
4750.0 0.077278
4770.0 0.078689
4790.0 0.078281
4810.0 0.076513
4830.0 0.078232
4850.0 0.07908
4870.0 0.081184
4890.0 0.077929
4910.0 0.074248
4930.0 0.069038
4950.0 0.06349
4970.0 0.058351
4990.0 0.054123
5010.0 0.053369
5030.0 0.054649
5050.0 0.054108
5070.0 0.055323
5090.0 0.057647
5110.0 0.057405
5130.0 0.057014
5150.0 0.056797
5170.0 0.056941
5190.0 0.057727
5210.0 0.056434
5230.0 0.055227
5250.0 0.054193
5270.0 0.053072
5290.0 0.052431
5310.0 0.051846
5330.0 0.049995
5350.0 0.049186
5370.0 0.047891
5390.0 0.046338
5410.0 0.04545
5430.0 0.044409
5450.0 0.045255
5470.0 0.045723
5490.0 0.045297
5510.0 0.046445
5530.0 0.046717
5550.0 0.047409
5570.0 0.046989
5590.0 0.045405
5610.0 0.044975
5630.0 0.045526
5650.0 0.04495
5670.0 0.044065
5690.0 0.042671
5710.0 0.043132
5730.0 0.043642
5750.0 0.041995
5770.0 0.040235
5790.0 0.036723
5810.0 0.031906
5830.0 0.035157
5850.0 0.040202
5870.0 0.041937
5890.0 0.042743
5910.0 0.043279
5930.0 0.043964
5950.0 0.043677
5970.0 0.043792
5990.0 0.043613
6010.0 0.043055
6030.0 0.042129
6050.0 0.042196
6070.0 0.04308
6090.0 0.042924
6110.0 0.042039
6130.0 0.041446
6150.0 0.040382
6170.0 0.039208
6190.0 0.038614
6210.0 0.037781
6230.0 0.037653
6250.0 0.037452
6270.0 0.037255
6290.0 0.0373
6310.0 0.037308
6330.0 0.03695
6350.0 0.03629
6370.0 0.035949
6390.0 0.035991
6410.0 0.035266
6430.0 0.034839
6450.0 0.034324
6470.0 0.033809
6490.0 0.033535
6510.0 0.033519
6530.0 0.032833
6550.0 0.032324
6570.0 0.032181
6590.0 0.032117
6610.0 0.032032
6630.0 0.031016
6650.0 0.030362
6670.0 0.030195
6690.0 0.02979
6710.0 0.029145
6730.0 0.028937
6750.0 0.02913
6770.0 0.031048
6790.0 0.035548
6810.0 0.033306
6830.0 0.028579
6850.0 0.027472
6870.0 0.026884
6890.0 0.026738
6910.0 0.026626
6930.0 0.026545
6950.0 0.026121
6970.0 0.025241
6990.0 0.024774
7010.0 0.024903
7030.0 0.024641
7050.0 0.024003
7070.0 0.02379
7090.0 0.023934
7110.0 0.02429
7130.0 0.023942
7150.0 0.023653
7170.0 0.023472
7190.0 0.023661
7210.0 0.023301
7230.0 0.022961
7250.0 0.022968
7270.0 0.022796
7290.0 0.022703
7310.0 0.022989
7330.0 0.022519
7350.0 0.021751
7370.0 0.020924
7390.0 0.020308
7410.0 0.02044
7430.0 0.020328
7450.0 0.020152
7470.0 0.0199
7490.0 0.019405
7510.0 0.019058
7530.0 0.018863
7550.0 0.019797
7570.0 0.0196
7590.0 0.017932
7610.0 0.017217
7630.0 0.018148
7650.0 0.018075
7670.0 0.018367
7690.0 0.019302
7710.0 0.019468
7730.0 0.019055
7750.0 0.020134
7770.0 0.018923
7790.0 0.018054
7810.0 0.019186
7830.0 0.019476
7850.0 0.020095
7870.0 0.019983
7890.0 0.020109
7910.0 0.019737
7930.0 0.019922
7950.0 0.020893
7970.0 0.020486
7990.0 0.018646
8010.0 0.018873
8030.0 0.018626
8050.0 0.018283
8070.0 0.017825
8090.0 0.016167
8110.0 0.016173
8130.0 0.017579
8150.0 0.018341
8170.0 0.018602
8190.0 0.019196
8210.0 0.018752
8230.0 0.018555
8250.0 0.018528
8270.0 0.018209
8290.0 0.017843
8310.0 0.01699
8330.0 0.016934
8350.0 0.01726
8370.0 0.017379
8390.0 0.017214
8410.0 0.016981
8430.0 0.016625
8450.0 0.016541
8470.0 0.017308
8490.0 0.017472
8510.0 0.016687
8530.0 0.016161
8550.0 0.016048
8570.0 0.01548
8590.0 0.015303
8610.0 0.01557
8630.0 0.015686
8650.0 0.015601
8670.0 0.015512
8690.0 0.015298
8710.0 0.014658
8730.0 0.014549
8750.0 0.014248
8770.0 0.014288
8790.0 0.014257
8810.0 0.013811
8830.0 0.013824
8850.0 0.01403
8870.0 0.013354
8890.0 0.012747
8910.0 0.012375
8930.0 0.011911
8950.0 0.011498
8970.0 0.01102
8990.0 0.010826
9010.0 0.010388
9030.0 0.010261
9050.0 0.010201
9070.0 0.010143
9090.0 0.010085
9110.0 0.010026
9130.0 0.0099662
9150.0 0.0099077
9170.0 0.0098485
9190.0 0.0097888
9210.0 0.0097286
9230.0 0.009668
9250.0 0.0096072
9270.0 0.0095461
9290.0 0.0094848
9310.0 0.009425
9330.0 0.0093676
9350.0 0.0093099
9370.0 0.0092522
9390.0 0.0091944
9410.0 0.0091364
9430.0 0.0090784
9450.0 0.0090205
9470.0 0.008968
9490.0 0.0089126
9510.0 0.0088517
9530.0 0.0087915
9550.0 0.0087327
9570.0 0.0086745
9590.0 0.0086166
9610.0 0.008561
9630.0 0.0085063
9650.0 0.0084515
9670.0 0.0083966
9690.0 0.0083424
9710.0 0.0082884
9730.0 0.0082344
9750.0 0.0081806
9770.0 0.0081278
9790.0 0.0080747
9810.0 0.0080218
9830.0 0.0079695
9850.0 0.0079129
9870.0 0.0078549
9890.0 0.0078083
9910.0 0.0077604
9930.0 0.0077038
9950.0 0.0076537
9970.0 0.0076077
9990.0 0.0075606
10010.0 0.0075137
10030.0 0.0074662
10050.0 0.0074184
10070.0 0.0073711
10090.0 0.0073245
10110.0 0.0072776
10130.0 0.0072312
10150.0 0.0071859
10170.0 0.0071408
10190.0 0.0070958
10210.0 0.0070518
10230.0 0.0070084
10250.0 0.0069651
10270.0 0.0069223
10290.0 0.0068805
10310.0 0.0068388
10330.0 0.0067973
10350.0 0.0067568
10370.0 0.0067168
10390.0 0.0066767
10410.0 0.0066335
10430.0 0.0065901
10450.0 0.0065563
10470.0 0.0065204
10490.0 0.0064849
10510.0 0.0064496
10530.0 0.0064132
10550.0 0.0063776
10570.0 0.0063432
10590.0 0.0063086
10610.0 0.0062741
10630.0 0.0062409
10650.0 0.0062081
10670.0 0.0061748
10690.0 0.0061426
10710.0 0.0061113
10730.0 0.0060799
10750.0 0.0060483
10770.0 0.0060185
10790.0 0.0059889
10810.0 0.0059591
10830.0 0.0059301
10850.0 0.0059023
10870.0 0.0058736
10890.0 0.0058453
10910.0 0.0058181
10930.0 0.0057909
10950.0 0.005763
10970.0 0.0057354
10990.0 0.0057084
11010.0 0.0057168
11030.0 0.0056877
11050.0 0.0056602
11070.0 0.0056325
11090.0 0.0056028
11110.0 0.0055747
11130.0 0.0055468
11150.0 0.0055172
11170.0 0.005487
11190.0 0.0054582
11210.0 0.0054281
11230.0 0.0053967
11250.0 0.0053668
11270.0 0.0053379
11290.0 0.0053081
11310.0 0.0052794
11330.0 0.0052542
11350.0 0.0052295
11370.0 0.0052058
11390.0 0.0051848
11410.0 0.0051659
11430.0 0.0051468
11450.0 0.0051296
11470.0 0.0051143
11490.0 0.0050991
11510.0 0.0050836
11530.0 0.0050693
11550.0 0.0050552
11570.0 0.0050396
11590.0 0.0050238
11610.0 0.0050081
11630.0 0.0049907
11650.0 0.0049715
11670.0 0.0049529
11690.0 0.0049335
11710.0 0.0049122
11730.0 0.0048905
11750.0 0.0048696
11770.0 0.004847
11790.0 0.0048238
11810.0 0.0048015
11830.0 0.0047795
11850.0 0.0047559
11870.0 0.0047339
11890.0 0.0047137
11910.0 0.0046932
11930.0 0.0046735
11950.0 0.0046561
11970.0 0.0046396
11990.0 0.0046235
12010.0 0.0046095
12030.0 0.0045975
12050.0 0.0045863
12070.0 0.0045761
12090.0 0.0045685
12110.0 0.0045619
12130.0 0.004556
12150.0 0.0045515
12170.0 0.0045482
12190.0 0.0045446
12210.0 0.0045413
12230.0 0.0045385
12250.0 0.0045351
12270.0 0.0045305
12290.0 0.0045252
12310.0 0.0045189
12330.0 0.0045102
12350.0 0.0044995
12370.0 0.0044873
12390.0 0.0044727
12410.0 0.0044544
12430.0 0.004435
12450.0 0.0044138
12470.0 0.0043894
12490.0 0.0043629
12510.0 0.0043362
12530.0 0.0043069
12550.0 0.0042752
12570.0 0.0042436
12590.0 0.0042116
12610.0 0.0041772
12630.0 0.0041425
12650.0 0.0041098
12670.0 0.004076
12690.0 0.0040419
12710.0 0.0040096
12730.0 0.0039785
12750.0 0.0039464
12770.0 0.0039164
12790.0 0.0038888
12810.0 0.003862
12830.0 0.003836
12850.0 0.0038131
12870.0 0.0037921
12890.0 0.0037721
12910.0 0.0037544
12930.0 0.0037392
12950.0 0.0037254
12970.0 0.0037134
12990.0 0.0037043
13010.0 0.0036971
13030.0 0.0036916
13050.0 0.0036881
13070.0 0.0036864
13090.0 0.0036859
13110.0 0.0036864
13130.0 0.0036875
13150.0 0.0036889
13170.0 0.00369
13190.0 0.0036903
13210.0 0.0036894
13230.0 0.0036869
13250.0 0.0036823
13270.0 0.0036758
13290.0 0.0036668
13310.0 0.0036549
13330.0 0.0036407
13350.0 0.0036243
13370.0 0.003605
13390.0 0.0035828
13410.0 0.0035598
13430.0 0.0035344
13450.0 0.0035064
13470.0 0.0034774
13490.0 0.0034477
13510.0 0.0034148
13530.0 0.0033809
13550.0 0.0033473
13570.0 0.0033123
13590.0 0.0032755
13610.0 0.0032392
13630.0 0.0032033
13650.0 0.0031654
13670.0 0.0031276
13690.0 0.0030908
13710.0 0.0030535
13730.0 0.0030146
13750.0 0.0029782
13770.0 0.0029425
13790.0 0.0029064
13810.0 0.0028712
13830.0 0.0028382
13850.0 0.0028052
13870.0 0.0027727
13890.0 0.0027423
13910.0 0.0027131
13930.0 0.002684
13950.0 0.0026561
13970.0 0.0026305
13990.0 0.0026052
14010.0 0.0025804
14030.0 0.0025573
14050.0 0.0025351
14070.0 0.0025129
14090.0 0.002492
14110.0 0.0024725
14130.0 0.0024533
14150.0 0.0024346
14170.0 0.0024174
14190.0 0.0024008
14210.0 0.0023843
14230.0 0.0023686
14250.0 0.0023537
14270.0 0.0023387
14290.0 0.0023239
14310.0 0.0023099
14330.0 0.0022961
14350.0 0.0022822
14370.0 0.0022686
14390.0 0.0022555
14410.0 0.0022421
14430.0 0.0022287
14450.0 0.0022158
14470.0 0.002203
14490.0 0.0021897
14510.0 0.0021768
14530.0 0.0021642
14550.0 0.0021513
14570.0 0.0021383
14590.0 0.0021256
14610.0 0.0021127
14630.0 0.0020993
14650.0 0.0020862
14670.0 0.0020732
14690.0 0.0020597
14710.0 0.002046
14730.0 0.0020328
14750.0 0.0020193
14770.0 0.0020054
14790.0 0.0019916
14810.0 0.0019779
14830.0 0.0019634
14850.0 0.0019489
14870.0 0.0019347
14890.0 0.0019204
14910.0 0.0019058
14930.0 0.0018918
14950.0 0.0018785
14970.0 0.0018654
14990.0 0.0018532
15010.0 0.0018421
15030.0 0.0018319
15050.0 0.0018221
15070.0 0.0018135
15090.0 0.0018054
15110.0 0.0017974
15130.0 0.0017898
15150.0 0.0017824
15170.0 0.001775
15190.0 0.0017676
15210.0 0.0017603
15230.0 0.0017531
15250.0 0.0017458
15270.0 0.0017386
15290.0 0.0017315
15310.0 0.0017244
15330.0 0.0017173
15350.0 0.0017103
15370.0 0.0017034
15390.0 0.0016963
15410.0 0.0016894
15430.0 0.0016826
15450.0 0.0016757
15470.0 0.0016688
15490.0 0.0016621
15510.0 0.0016555
15530.0 0.0016487
15550.0 0.0016421
15570.0 0.0016356
15590.0 0.001629
15610.0 0.0016224
15630.0 0.001616
15650.0 0.0016097
15670.0 0.0016032
15690.0 0.0015969
15710.0 0.0015907
15730.0 0.0015844
15750.0 0.0015782
15770.0 0.0015721
15790.0 0.001566
15810.0 0.0015598
15830.0 0.0015538
15850.0 0.001548
15870.0 0.001542
15890.0 0.0015361
15910.0 0.0015304
15930.0 0.0015246
15950.0 0.0015187
15970.0 0.001513
15990.0 0.0015075
16010.0 0.0015018
16030.0 0.0014961
16050.0 0.0014907
16070.0 0.0014853
16090.0 0.0014797
16110.0 0.0014744
16130.0 0.0014691
16150.0 0.0014637
16170.0 0.0014584
16190.0 0.0014532
16210.0 0.001448
16230.0 0.0014428
16250.0 0.0014377
16270.0 0.0014328
16290.0 0.0014277
16310.0 0.0014227
16330.0 0.0014178
16350.0 0.0014129
16370.0 0.0014079
16390.0 0.0014031
16410.0 0.0013984
16430.0 0.0013936
16450.0 0.0013888
16470.0 0.0013843
16490.0 0.0013796
16510.0 0.0013749
16530.0 0.0013704
16550.0 0.0013659
16570.0 0.0013613
16590.0 0.0013568
16610.0 0.0013525
16630.0 0.0013481
16650.0 0.0013436
16670.0 0.0013394
16690.0 0.0013352
16710.0 0.0013307
16730.0 0.0013265
16750.0 0.0013223
16770.0 0.0013181
16790.0 0.0013139
16810.0 0.0013099
16830.0 0.0013058
16850.0 0.0013017
16870.0 0.0012976
16890.0 0.0012937
16910.0 0.0012897
16930.0 0.0012856
16950.0 0.0012817
16970.0 0.0012779
16990.0 0.0012739
17010.0 0.00127
17030.0 0.0012663
17050.0 0.0012625
17070.0 0.0012586
17090.0 0.0012549
17110.0 0.0012512
17130.0 0.0012473
17150.0 0.0012436
17170.0 0.00124
17190.0 0.0012363
17210.0 0.0012326
17230.0 0.0012291
17250.0 0.0012255
17270.0 0.0012218
17290.0 0.0012182
17310.0 0.0012147
17330.0 0.0012111
17350.0 0.0012075
17370.0 0.0012041
17390.0 0.0012007
17410.0 0.0011971
17430.0 0.0011937
17450.0 0.0011903
17470.0 0.0011868
17490.0 0.0011833
17510.0 0.00118
17530.0 0.0011766
17550.0 0.0011731
17570.0 0.0011698
17590.0 0.0011665
17610.0 0.001163
17630.0 0.0011597
17650.0 0.0011564
17670.0 0.0011531
17690.0 0.0011496
17710.0 0.0011464
17730.0 0.0011431
17750.0 0.0011398
17770.0 0.0011365
17790.0 0.0011333
17810.0 0.00113
17830.0 0.0011267
17850.0 0.0011235
17870.0 0.0011203
17890.0 0.0011169
17910.0 0.0011136
17930.0 0.0011105
17950.0 0.0011073
17970.0 0.001104
17990.0 0.0011008
18010.0 0.0010977
18030.0 0.0010943
18050.0 0.0010911
18070.0 0.001088
18090.0 0.0010847
18110.0 0.0010814
18130.0 0.0010783
18150.0 0.0010752
18170.0 0.0010719
18190.0 0.0010687
18210.0 0.0010656
18230.0 0.0010623
18250.0 0.001059
18270.0 0.0010559
18290.0 0.0010527
18310.0 0.0010494
18330.0 0.0010462
18350.0 0.0010432
18370.0 0.0010399
18390.0 0.0010366
18410.0 0.0010335
18430.0 0.0010303
18450.0 0.0010269
18470.0 0.0010237
18490.0 0.0010206
18510.0 0.0010174
18530.0 0.0010141
18550.0 0.001011
18570.0 0.0010077
18590.0 0.0010044
18610.0 0.0010012
18630.0 0.00099801
18650.0 0.00099469
18670.0 0.00099135
18690.0 0.00098823
18710.0 0.00098498
18730.0 0.00098164
18750.0 0.00097841
18770.0 0.00097524
18790.0 0.0009718
18810.0 0.00096847
18830.0 0.00096527
18850.0 0.00096197
18870.0 0.00095857
18890.0 0.00095533
18910.0 0.0009521
18930.0 0.00094868
18950.0 0.00094533
18970.0 0.00094209
18990.0 0.00093872
19010.0 0.00093519
19030.0 0.00093193
19050.0 0.00092863
19070.0 0.00092518
19090.0 0.00092179
19110.0 0.00091855
19130.0 0.00091507
19150.0 0.00091158
19170.0 0.00090823
19190.0 0.00090486
19210.0 0.00090131
19230.0 0.00089784
19250.0 0.00089453
19270.0 0.00089105
19290.0 0.00088752
19310.0 0.00088415
19330.0 0.00088073
19350.0 0.00087707
19370.0 0.00087358
19390.0 0.00087017
19410.0 0.00086661
19430.0 0.00086299
19450.0 0.00085958
19470.0 0.00085608
19490.0 0.00085244
19510.0 0.0008489
19530.0 0.00084544
19550.0 0.00084177
19570.0 0.00083807
19590.0 0.00083459
19610.0 0.00083101
19630.0 0.00082731
19650.0 0.00082372
19670.0 0.00082022
19690.0 0.00081648
19710.0 0.00081278
19730.0 0.00080921
19750.0 0.00080555
19770.0 0.00080172
19790.0 0.00079808
19810.0 0.00079449
19830.0 0.00079073
19850.0 0.000787
19870.0 0.00078345
19890.0 0.00077978
19910.0 0.00077608
19930.0 0.0007727
19950.0 0.00076954
19970.0 0.00076655
19990.0 0.00076397
20010.0 0.00076195
20030.0 0.00076029
20050.0 0.00075902
20070.0 0.00075817
20090.0 0.00075762
20110.0 0.00075719
20130.0 0.00075692
20150.0 0.00075673
20170.0 0.00075652
20190.0 0.00075629
20210.0 0.00075605
20230.0 0.00075576
20250.0 0.00075538
20270.0 0.00075495
20290.0 0.00075449
20310.0 0.00075394
20330.0 0.00075327
20350.0 0.00075262
20370.0 0.00075189
20390.0 0.00075106
20410.0 0.0007502
20430.0 0.00074935
20450.0 0.00074837
20470.0 0.00074737
20490.0 0.00074641
20510.0 0.00074543
20530.0 0.0007444
20550.0 0.00074342
20570.0 0.00074253
20590.0 0.0007416
20610.0 0.0007407
20630.0 0.00073989
20650.0 0.00073908
20670.0 0.00073823
20690.0 0.00073744
20710.0 0.00073667
20730.0 0.00073582
20750.0 0.00073492
20770.0 0.00073402
20790.0 0.00073302
20810.0 0.00073186
20830.0 0.00073063
20850.0 0.00072932
20870.0 0.00072778
20890.0 0.00072609
20910.0 0.0007244
20930.0 0.00072253
20950.0 0.0007205
20970.0 0.00071845
20990.0 0.00071637
21010.0 0.00071409
21030.0 0.00071181
21050.0 0.0007096
21070.0 0.00070734
21090.0 0.00070499
21110.0 0.00070281
21130.0 0.00070068
21150.0 0.00069848
21170.0 0.00069635
21190.0 0.00069434
21210.0 0.00069225
21230.0 0.0006901
21250.0 0.00068808
21270.0 0.00068604
21290.0 0.00068389
21310.0 0.00068171
21330.0 0.00067962
21350.0 0.00067737
21370.0 0.00067501
21390.0 0.00067268
21410.0 0.0006703
21430.0 0.00066765
21450.0 0.00066504
21470.0 0.00066245
21490.0 0.0006597
21510.0 0.00065684
21530.0 0.00065407
21550.0 0.00065124
21570.0 0.00064822
21590.0 0.00064525
21610.0 0.00064236
21630.0 0.00063934
21650.0 0.00063621
21670.0 0.00063334
21690.0 0.00063042
21710.0 0.0006274
21730.0 0.00062448
21750.0 0.00062169
21770.0 0.00061871
21790.0 0.00061576
21810.0 0.00061296
21830.0 0.00061013
21850.0 0.00060718
21870.0 0.00060435
21890.0 0.00060163
21910.0 0.00059879
21930.0 0.00059596
21950.0 0.00059329
21970.0 0.00059059
21990.0 0.00058779
22010.0 0.00058521
22030.0 0.00058275
22050.0 0.00058028
22070.0 0.0005779
22090.0 0.00057579
22110.0 0.00057372
22130.0 0.00057171
22150.0 0.00056992
22170.0 0.0005683
22190.0 0.0005667
22210.0 0.00056524
22230.0 0.00056403
22250.0 0.00056286
22270.0 0.00056176
22290.0 0.00056081
22310.0 0.00055996
22330.0 0.00055907
22350.0 0.00055826
22370.0 0.00055753
22390.0 0.00055679
22410.0 0.000556
22430.0 0.00055529
22450.0 0.00055459
22470.0 0.00055381
22490.0 0.00055304
22510.0 0.00055232
22530.0 0.00055152
22550.0 0.00055067
22570.0 0.0005499
22590.0 0.00054914
22610.0 0.00054833
22630.0 0.00054758
22650.0 0.00054694
22670.0 0.00054628
22690.0 0.00054567
22710.0 0.00054518
22730.0 0.00054478
22750.0 0.00054438
22770.0 0.00054415
22790.0 0.00054406
22810.0 0.00054404
22830.0 0.00054412
22850.0 0.00054436
22870.0 0.00054471
22890.0 0.00054512
22910.0 0.00054567
22930.0 0.00054634
22950.0 0.00054708
22970.0 0.0005479
22990.0 0.00054884
23010.0 0.00054986
23030.0 0.00055094
23050.0 0.00055211
23070.0 0.00055338
23090.0 0.00055472
23110.0 0.00055615
23130.0 0.0005577
23150.0 0.00055936
23170.0 0.00056117
23190.0 0.00056313
23210.0 0.00056523
23230.0 0.00056751
23250.0 0.00056997
23270.0 0.00057257
23290.0 0.00057535
23310.0 0.00057832
23330.0 0.00058139
23350.0 0.00058457
23370.0 0.00058789
23390.0 0.00059128
23410.0 0.00059467
23430.0 0.00059812
23450.0 0.00060162
23470.0 0.00060507
23490.0 0.00060849
23510.0 0.00061192
23530.0 0.00061532
23550.0 0.00061864
23570.0 0.00062198
23590.0 0.00062532
23610.0 0.00062865
23630.0 0.00063201
23650.0 0.00063544
23670.0 0.00063894
23690.0 0.0006425
23710.0 0.00064618
23730.0 0.00065
23750.0 0.00065391
23770.0 0.00065797
23790.0 0.00066222
23810.0 0.00066663
23830.0 0.00067118
23850.0 0.00067599
23870.0 0.00068104
23890.0 0.00068624
23910.0 0.00069166
23930.0 0.00069698
23950.0 0.00070225
