#lamb flux
1010.0 5.951e-07
1030.0 5.951e-07
1050.0 5.951e-07
1070.0 5.951e-07
1090.0 5.951e-07
1110.0 5.951e-07
1130.0 5.951e-07
1150.0 5.951e-07
1170.0 5.951e-07
1190.0 5.951e-07
1210.0 5.951e-07
1230.0 5.951e-07
1250.0 5.951e-07
1270.0 5.951e-07
1290.0 5.951e-07
1310.0 5.951e-07
1330.0 5.951e-07
1350.0 5.951e-07
1370.0 5.951e-07
1390.0 5.951e-07
1410.0 5.951e-07
1430.0 5.951e-07
1450.0 6.5993e-07
1470.0 7.5002e-07
1490.0 8.5145e-07
1510.0 9.6612e-07
1530.0 1.0908e-06
1550.0 1.2272e-06
1570.0 1.3781e-06
1590.0 1.5433e-06
1610.0 1.7208e-06
1630.0 1.9127e-06
1650.0 2.1235e-06
1670.0 2.3506e-06
1690.0 2.596e-06
1710.0 2.8641e-06
1730.0 3.1537e-06
1750.0 3.4595e-06
1770.0 3.7883e-06
1790.0 4.1397e-06
1810.0 4.5076e-06
1830.0 4.8916e-06
1850.0 5.2983e-06
1870.0 5.7163e-06
1890.0 6.1409e-06
1910.0 6.5753e-06
1930.0 7.017e-06
1950.0 7.452e-06
1970.0 7.8803e-06
1990.0 8.3053e-06
2010.0 8.7145e-06
2030.0 9.1002e-06
2050.0 9.4692e-06
2070.0 9.8176e-06
2090.0 1.0128e-05
2110.0 1.0407e-05
2130.0 1.0657e-05
2150.0 1.0871e-05
2170.0 1.1041e-05
2190.0 1.1183e-05
2210.0 1.1291e-05
2230.0 1.1359e-05
2250.0 1.1393e-05
2270.0 1.1405e-05
2290.0 1.1383e-05
2310.0 1.1329e-05
2330.0 1.1257e-05
2350.0 1.1167e-05
2370.0 1.1053e-05
2390.0 1.0928e-05
2410.0 1.08e-05
2430.0 1.0661e-05
2450.0 1.0517e-05
2470.0 1.038e-05
2490.0 1.0253e-05
2510.0 1.0135e-05
2530.0 1.0055e-05
2550.0 1.0052e-05
2570.0 1.0161e-05
2590.0 1.0424e-05
2610.0 1.0963e-05
2630.0 1.1801e-05
2650.0 1.289e-05
2670.0 1.4268e-05
2690.0 1.5918e-05
2710.0 1.765e-05
2730.0 1.9391e-05
2750.0 2.1234e-05
2770.0 2.3062e-05
2790.0 2.4828e-05
2810.0 2.665e-05
2830.0 2.8636e-05
2850.0 3.0595e-05
2870.0 3.2634e-05
2890.0 3.4852e-05
2910.0 3.7182e-05
2930.0 3.9538e-05
2950.0 4.2091e-05
2970.0 4.4824e-05
2990.0 4.7616e-05
3010.0 5.0523e-05
3030.0 5.3648e-05
3050.0 5.6889e-05
3070.0 6.0066e-05
3090.0 6.3295e-05
3110.0 6.6398e-05
3130.0 6.9121e-05
3150.0 7.135e-05
3170.0 7.2936e-05
3190.0 7.3661e-05
3210.0 7.3383e-05
3230.0 7.2418e-05
3250.0 7.2054e-05
3270.0 7.3035e-05
3290.0 7.4961e-05
3310.0 7.7357e-05
3330.0 8.0314e-05
3350.0 8.3645e-05
3370.0 8.7399e-05
3390.0 9.178e-05
3410.0 9.5941e-05
3430.0 0.00010243
3450.0 0.0001076
3470.0 0.00011303
3490.0 0.00011762
3510.0 0.0001232
3530.0 0.00014166
3550.0 0.00016747
3570.0 0.00018322
3590.0 0.00019011
3610.0 0.00019081
3630.0 0.00018496
3650.0 0.00019988
3670.0 0.00023774
3690.0 0.0002677
3710.0 0.00028361
3730.0 0.00029687
3750.0 0.00031145
3770.0 0.0003089
3790.0 0.00029261
3810.0 0.00027399
3830.0 0.00025524
3850.0 0.00025346
3870.0 0.00027437
3890.0 0.00029609
3910.0 0.00031108
3930.0 0.00032057
3950.0 0.00034876
3970.0 0.000375
3990.0 0.00035836
4010.0 0.00031528
4030.0 0.00027617
4050.0 0.00026445
4070.0 0.00027113
4090.0 0.0002712
4110.0 0.00026522
4130.0 0.00026082
4150.0 0.00026353
4170.0 0.00028715
4190.0 0.00031533
4210.0 0.0003118
4230.0 0.00029494
4250.0 0.0002875
4270.0 0.00028732
4290.0 0.00029961
4310.0 0.00031276
4330.0 0.00029776
4350.0 0.00025833
4370.0 0.00022616
4390.0 0.00020326
4410.0 0.00018377
4430.0 0.00018269
4450.0 0.00019829
4470.0 0.00021204
4490.0 0.00023031
4510.0 0.00026351
4530.0 0.00033335
4550.0 0.00042357
4570.0 0.00047758
4590.0 0.00050912
4610.0 0.00055916
4630.0 0.0005951
4650.0 0.00055664
4670.0 0.00045639
4690.0 0.00037345
4710.0 0.00033952
4730.0 0.00032955
4750.0 0.00030381
4770.0 0.00028175
4790.0 0.00029603
4810.0 0.00032369
4830.0 0.00032688
4850.0 0.00030546
4870.0 0.00029639
4890.0 0.00031617
4910.0 0.00033633
4930.0 0.00033883
4950.0 0.00032717
4970.0 0.00030667
4990.0 0.00027723
5010.0 0.000251
5030.0 0.00023573
5050.0 0.0002287
5070.0 0.00022306
5090.0 0.00021647
5110.0 0.00021458
5130.0 0.00021589
5150.0 0.000226
5170.0 0.00025116
5190.0 0.00028318
5210.0 0.00031921
5230.0 0.00034225
5250.0 0.00035369
5270.0 0.00037226
5290.0 0.00039435
5310.0 0.00040216
5330.0 0.00038625
5350.0 0.00036383
5370.0 0.00036208
5390.0 0.00038684
5410.0 0.00041825
5430.0 0.00043711
5450.0 0.0004402
5470.0 0.00042934
5490.0 0.00041163
5510.0 0.00039944
5530.0 0.00039618
5550.0 0.0003977
5570.0 0.00039757
5590.0 0.00038694
5610.0 0.00036808
5630.0 0.0003427
5650.0 0.00031608
5670.0 0.00029937
5690.0 0.00029038
5710.0 0.00028514
5730.0 0.00028555
5750.0 0.00028206
5770.0 0.00027551
5790.0 0.00027557
5810.0 0.00027695
5830.0 0.00027933
5850.0 0.00028062
5870.0 0.00027437
5890.0 0.000262
5910.0 0.00024576
5930.0 0.00022122
5950.0 0.00020097
5970.0 0.00019578
5990.0 0.0002019
6010.0 0.00020616
6030.0 0.00019929
6050.0 0.00019266
6070.0 0.00019993
6090.0 0.00021545
6110.0 0.00022452
6130.0 0.00021896
6150.0 0.0002063
6170.0 0.0001972
6190.0 0.00018876
6210.0 0.00017748
6230.0 0.00016569
6250.0 0.0001601
6270.0 0.00016364
6290.0 0.00016994
6310.0 0.00017997
6330.0 0.00019458
6350.0 0.00021015
6370.0 0.00021885
6390.0 0.000221
6410.0 0.00022315
6430.0 0.00022533
6450.0 0.00022777
6470.0 0.00023226
6490.0 0.00023715
6510.0 0.00024056
6530.0 0.0002405
6550.0 0.00023671
6570.0 0.00022869
6590.0 0.00021807
6610.0 0.00021048
6630.0 0.00020612
6650.0 0.00019968
6670.0 0.00019067
6690.0 0.00018297
6710.0 0.00017897
6730.0 0.00017713
6750.0 0.00017443
6770.0 0.00017112
6790.0 0.00016834
6810.0 0.00016485
6830.0 0.00016289
6850.0 0.00016573
6870.0 0.00016753
6890.0 0.00016583
6910.0 0.00016219
6930.0 0.00015879
6950.0 0.00015585
6970.0 0.00015057
6990.0 0.00014484
7010.0 0.00014232
7030.0 0.00014092
7050.0 0.00013677
7070.0 0.00013063
7090.0 0.000128
7110.0 0.00013125
7130.0 0.00013928
7150.0 0.00014788
7170.0 0.00015345
7190.0 0.00015236
7210.0 0.0001464
7230.0 0.00014258
7250.0 0.00014227
7270.0 0.00014192
7290.0 0.00014075
7310.0 0.0001418
7330.0 0.00014602
7350.0 0.00015158
7370.0 0.00015499
7390.0 0.00015455
7410.0 0.0001512
7430.0 0.00014681
7450.0 0.0001417
7470.0 0.00013494
7490.0 0.00013028
7510.0 0.00012639
7530.0 0.00012426
7550.0 0.0001253
7570.0 0.000127
7590.0 0.00012818
7610.0 0.00012793
7630.0 0.00012752
7650.0 0.00012873
7670.0 0.00013225
7690.0 0.00013664
7710.0 0.00014173
7730.0 0.00014573
7750.0 0.00015042
7770.0 0.00015393
7790.0 0.00015598
7810.0 0.00015636
7830.0 0.00015652
7850.0 0.00015399
7870.0 0.00014758
7890.0 0.00014091
7910.0 0.00013675
7930.0 0.00013378
7950.0 0.00013092
7970.0 0.00012958
7990.0 0.00013053
8010.0 0.00012575
8030.0 0.00012462
8050.0 0.00012308
8070.0 0.00012113
8090.0 0.00011914
8110.0 0.00011924
8130.0 0.00012005
8150.0 0.00011975
8170.0 0.000119
8190.0 0.00011607
8210.0 0.00010956
8230.0 0.00010244
8250.0 9.839e-05
8270.0 9.5292e-05
8290.0 9.2092e-05
8310.0 9.0643e-05
8330.0 9.0525e-05
8350.0 8.836e-05
8370.0 8.7291e-05
8390.0 9.026e-05
8410.0 9.5618e-05
8430.0 0.00010252
8450.0 0.00010978
8470.0 0.00011403
8490.0 0.00011782
8510.0 0.00012052
8530.0 0.00012322
8550.0 0.00012593
8570.0 0.00012778
8590.0 0.00012947
8610.0 0.00013304
8630.0 0.0001346
8650.0 0.00013212
8670.0 0.00013237
8690.0 0.00013467
8710.0 0.00013683
8730.0 0.00013666
8750.0 0.00013352
8770.0 0.0001324
8790.0 0.00013193
8810.0 0.00012994
8830.0 0.0001216
8850.0 0.00011109
8870.0 0.0001036
8890.0 9.9867e-05
8910.0 9.4682e-05
8930.0 8.8158e-05
8950.0 8.3984e-05
8970.0 8.3341e-05
8990.0 8.4239e-05
9010.0 8.4208e-05
9030.0 8.3582e-05
9050.0 8.3006e-05
9070.0 8.2522e-05
9090.0 8.2055e-05
9110.0 8.1592e-05
9130.0 8.113e-05
9150.0 8.0673e-05
9170.0 8.0216e-05
9190.0 7.9763e-05
9210.0 7.9311e-05
9230.0 7.8863e-05
9250.0 7.8419e-05
9270.0 7.7976e-05
9290.0 7.7536e-05
9310.0 7.7099e-05
9330.0 7.6664e-05
9350.0 7.6233e-05
9370.0 7.5802e-05
9390.0 7.5376e-05
9410.0 7.4951e-05
9430.0 7.4522e-05
9450.0 7.4064e-05
9470.0 7.3619e-05
9490.0 7.3242e-05
9510.0 7.2846e-05
9530.0 7.2453e-05
9550.0 7.2051e-05
9570.0 7.1649e-05
9590.0 7.1251e-05
9610.0 7.0854e-05
9630.0 7.0455e-05
9650.0 7.006e-05
9670.0 6.9672e-05
9690.0 6.928e-05
9710.0 6.8891e-05
9730.0 6.8507e-05
9750.0 6.8124e-05
9770.0 6.7738e-05
9790.0 6.7357e-05
9810.0 6.698e-05
9830.0 6.6597e-05
9850.0 6.6188e-05
9870.0 6.5824e-05
9890.0 6.5463e-05
9910.0 6.5096e-05
9930.0 6.4728e-05
9950.0 6.4365e-05
9970.0 6.3996e-05
9990.0 6.362e-05
10010.0 6.3211e-05
10030.0 6.2828e-05
10050.0 6.2486e-05
10070.0 6.214e-05
10090.0 6.1792e-05
10110.0 6.141e-05
10130.0 6.0915e-05
10150.0 6.0577e-05
10170.0 6.0264e-05
10190.0 5.9921e-05
10210.0 5.9582e-05
10230.0 5.924e-05
10250.0 5.8875e-05
10270.0 5.8509e-05
10290.0 5.8157e-05
10310.0 5.7788e-05
10330.0 5.7404e-05
10350.0 5.7041e-05
10370.0 5.6677e-05
10390.0 5.6297e-05
10410.0 5.5919e-05
10430.0 5.556e-05
10450.0 5.5183e-05
10470.0 5.4796e-05
10490.0 5.4424e-05
10510.0 5.4052e-05
10530.0 5.3653e-05
10550.0 5.3264e-05
10570.0 5.289e-05
10590.0 5.2501e-05
10610.0 5.2101e-05
10630.0 5.1719e-05
10650.0 5.1332e-05
10670.0 5.0922e-05
10690.0 5.0521e-05
10710.0 5.013e-05
10730.0 4.9721e-05
10750.0 4.9297e-05
10770.0 4.89e-05
10790.0 4.8494e-05
10810.0 4.8071e-05
10830.0 4.7654e-05
10850.0 4.725e-05
10870.0 4.6817e-05
10890.0 4.6383e-05
10910.0 4.5966e-05
10930.0 4.5546e-05
10950.0 4.5112e-05
10970.0 4.4692e-05
10990.0 4.4295e-05
11010.0 4.3e-05
11030.0 4.2586e-05
11050.0 4.2197e-05
11070.0 4.1815e-05
11090.0 4.1422e-05
11110.0 4.106e-05
11130.0 4.0716e-05
11150.0 4.0374e-05
11170.0 4.0049e-05
11190.0 3.9755e-05
11210.0 3.9473e-05
11230.0 3.9206e-05
11250.0 3.8969e-05
11270.0 3.8756e-05
11290.0 3.8557e-05
11310.0 3.8377e-05
11330.0 3.8225e-05
11350.0 3.8083e-05
11370.0 3.795e-05
11390.0 3.783e-05
11410.0 3.7717e-05
11430.0 3.76e-05
11450.0 3.7483e-05
11470.0 3.7366e-05
11490.0 3.7238e-05
11510.0 3.7096e-05
11530.0 3.6946e-05
11550.0 3.6783e-05
11570.0 3.6597e-05
11590.0 3.6393e-05
11610.0 3.6176e-05
11630.0 3.593e-05
11650.0 3.5654e-05
11670.0 3.5367e-05
11690.0 3.5056e-05
11710.0 3.4711e-05
11730.0 3.4345e-05
11750.0 3.397e-05
11770.0 3.3559e-05
11790.0 3.312e-05
11810.0 3.2675e-05
11830.0 3.2215e-05
11850.0 3.1715e-05
11870.0 3.1216e-05
11890.0 3.0726e-05
11910.0 3.0216e-05
11930.0 2.97e-05
11950.0 2.9207e-05
11970.0 2.8718e-05
11990.0 2.822e-05
12010.0 2.7748e-05
12030.0 2.7302e-05
12050.0 2.686e-05
12070.0 2.643e-05
12090.0 2.6044e-05
12110.0 2.5673e-05
12130.0 2.5314e-05
12150.0 2.4986e-05
12170.0 2.4688e-05
12190.0 2.44e-05
12210.0 2.4142e-05
12230.0 2.3919e-05
12250.0 2.3721e-05
12270.0 2.3548e-05
12290.0 2.3409e-05
12310.0 2.3298e-05
12330.0 2.3211e-05
12350.0 2.315e-05
12370.0 2.3112e-05
12390.0 2.3092e-05
12410.0 2.3091e-05
12430.0 2.3101e-05
12450.0 2.3121e-05
12470.0 2.3149e-05
12490.0 2.3181e-05
12510.0 2.3211e-05
12530.0 2.3242e-05
12550.0 2.3271e-05
12570.0 2.329e-05
12590.0 2.33e-05
12610.0 2.33e-05
12630.0 2.3284e-05
12650.0 2.3251e-05
12670.0 2.32e-05
12690.0 2.3128e-05
12710.0 2.3035e-05
12730.0 2.2922e-05
12750.0 2.2782e-05
12770.0 2.2623e-05
12790.0 2.2447e-05
12810.0 2.2251e-05
12830.0 2.2034e-05
12850.0 2.1813e-05
12870.0 2.1585e-05
12890.0 2.1343e-05
12910.0 2.1101e-05
12930.0 2.0865e-05
12950.0 2.0623e-05
12970.0 2.0381e-05
12990.0 2.0154e-05
13010.0 1.9932e-05
13030.0 1.9712e-05
13050.0 1.9501e-05
13070.0 1.9304e-05
13090.0 1.9108e-05
13110.0 1.8918e-05
13130.0 1.874e-05
13150.0 1.8569e-05
13170.0 1.8399e-05
13190.0 1.8241e-05
13210.0 1.8095e-05
13230.0 1.7952e-05
13250.0 1.7817e-05
13270.0 1.7692e-05
13290.0 1.7572e-05
13310.0 1.7455e-05
13330.0 1.7345e-05
13350.0 1.724e-05
13370.0 1.7135e-05
13390.0 1.7029e-05
13410.0 1.6926e-05
13430.0 1.682e-05
13450.0 1.6708e-05
13470.0 1.6593e-05
13490.0 1.6476e-05
13510.0 1.6347e-05
13530.0 1.6212e-05
13550.0 1.6076e-05
13570.0 1.5932e-05
13590.0 1.5778e-05
13610.0 1.5624e-05
13630.0 1.547e-05
13650.0 1.5306e-05
13670.0 1.5142e-05
13690.0 1.4981e-05
13710.0 1.4817e-05
13730.0 1.4646e-05
13750.0 1.4484e-05
13770.0 1.4324e-05
13790.0 1.4161e-05
13810.0 1.4001e-05
13830.0 1.3848e-05
13850.0 1.3693e-05
13870.0 1.3538e-05
13890.0 1.3391e-05
13910.0 1.3249e-05
13930.0 1.3106e-05
13950.0 1.2968e-05
13970.0 1.2841e-05
13990.0 1.2716e-05
14010.0 1.2595e-05
14030.0 1.2482e-05
14050.0 1.2375e-05
14070.0 1.2268e-05
14090.0 1.2168e-05
14110.0 1.2074e-05
14130.0 1.1982e-05
14150.0 1.1892e-05
14170.0 1.1808e-05
14190.0 1.1728e-05
14210.0 1.1647e-05
14230.0 1.1569e-05
14250.0 1.1497e-05
14270.0 1.1423e-05
14290.0 1.1351e-05
14310.0 1.1285e-05
14330.0 1.122e-05
14350.0 1.1155e-05
14370.0 1.1094e-05
14390.0 1.1036e-05
14410.0 1.0978e-05
14430.0 1.0922e-05
14450.0 1.087e-05
14470.0 1.0819e-05
14490.0 1.0767e-05
14510.0 1.0718e-05
14530.0 1.0672e-05
14550.0 1.0625e-05
14570.0 1.0577e-05
14590.0 1.0531e-05
14610.0 1.0483e-05
14630.0 1.0431e-05
14650.0 1.038e-05
14670.0 1.0329e-05
14690.0 1.0277e-05
14710.0 1.0224e-05
14730.0 1.0178e-05
14750.0 1.0137e-05
14770.0 1.0102e-05
14790.0 1.0079e-05
14810.0 1.007e-05
14830.0 1.0076e-05
14850.0 1.0102e-05
14870.0 1.0147e-05
14890.0 1.0211e-05
14910.0 1.0294e-05
14930.0 1.0389e-05
14950.0 1.0488e-05
14970.0 1.0592e-05
14990.0 1.0688e-05
15010.0 1.0771e-05
15030.0 1.084e-05
15050.0 1.0894e-05
15070.0 1.0932e-05
15090.0 1.096e-05
15110.0 1.0982e-05
15130.0 1.0998e-05
15150.0 1.1012e-05
15170.0 1.1025e-05
15190.0 1.1037e-05
15210.0 1.105e-05
15230.0 1.1063e-05
15250.0 1.1076e-05
15270.0 1.109e-05
15290.0 1.1104e-05
15310.0 1.1119e-05
15330.0 1.1133e-05
15350.0 1.1149e-05
15370.0 1.1164e-05
15390.0 1.118e-05
15410.0 1.1196e-05
15430.0 1.1213e-05
15450.0 1.1229e-05
15470.0 1.1246e-05
15490.0 1.1264e-05
15510.0 1.1282e-05
15530.0 1.13e-05
15550.0 1.1318e-05
15570.0 1.1337e-05
15590.0 1.1356e-05
15610.0 1.1375e-05
15630.0 1.1395e-05
15650.0 1.1415e-05
15670.0 1.1435e-05
15690.0 1.1455e-05
15710.0 1.1476e-05
15730.0 1.1497e-05
15750.0 1.1518e-05
15770.0 1.154e-05
15790.0 1.1561e-05
15810.0 1.1583e-05
15830.0 1.1605e-05
15850.0 1.1628e-05
15870.0 1.165e-05
15890.0 1.1673e-05
15910.0 1.1696e-05
15930.0 1.1719e-05
15950.0 1.1743e-05
15970.0 1.1766e-05
15990.0 1.179e-05
16010.0 1.1814e-05
16030.0 1.1838e-05
16050.0 1.1862e-05
16070.0 1.1887e-05
16090.0 1.1911e-05
16110.0 1.1936e-05
16130.0 1.1961e-05
16150.0 1.1985e-05
16170.0 1.201e-05
16190.0 1.2036e-05
16210.0 1.2061e-05
16230.0 1.2086e-05
16250.0 1.2111e-05
16270.0 1.2137e-05
16290.0 1.2162e-05
16310.0 1.2188e-05
16330.0 1.2214e-05
16350.0 1.2239e-05
16370.0 1.2265e-05
16390.0 1.2291e-05
16410.0 1.2317e-05
16430.0 1.2342e-05
16450.0 1.2368e-05
16470.0 1.2394e-05
16490.0 1.242e-05
16510.0 1.2445e-05
16530.0 1.2471e-05
16550.0 1.2497e-05
16570.0 1.2522e-05
16590.0 1.2548e-05
16610.0 1.2573e-05
16630.0 1.2599e-05
16650.0 1.2624e-05
16670.0 1.2649e-05
16690.0 1.2675e-05
16710.0 1.27e-05
16730.0 1.2724e-05
16750.0 1.2749e-05
16770.0 1.2774e-05
16790.0 1.2798e-05
16810.0 1.2823e-05
16830.0 1.2847e-05
16850.0 1.2871e-05
16870.0 1.2895e-05
16890.0 1.2919e-05
16910.0 1.2942e-05
16930.0 1.2965e-05
16950.0 1.2988e-05
16970.0 1.3011e-05
16990.0 1.3034e-05
17010.0 1.3056e-05
17030.0 1.3079e-05
17050.0 1.31e-05
17070.0 1.3122e-05
17090.0 1.3143e-05
17110.0 1.3164e-05
17130.0 1.3185e-05
17150.0 1.3205e-05
17170.0 1.3225e-05
17190.0 1.3245e-05
17210.0 1.3264e-05
17230.0 1.3283e-05
17250.0 1.3302e-05
17270.0 1.332e-05
17290.0 1.3338e-05
17310.0 1.3356e-05
17330.0 1.3373e-05
17350.0 1.339e-05
17370.0 1.3406e-05
17390.0 1.3422e-05
17410.0 1.3438e-05
17430.0 1.3453e-05
17450.0 1.3468e-05
17470.0 1.3482e-05
17490.0 1.3496e-05
17510.0 1.3509e-05
17530.0 1.3522e-05
17550.0 1.3534e-05
17570.0 1.3546e-05
17590.0 1.3558e-05
17610.0 1.3568e-05
17630.0 1.3579e-05
17650.0 1.3589e-05
17670.0 1.3598e-05
17690.0 1.3606e-05
17710.0 1.3615e-05
17730.0 1.3623e-05
17750.0 1.363e-05
17770.0 1.3636e-05
17790.0 1.3642e-05
17810.0 1.3648e-05
17830.0 1.3652e-05
17850.0 1.3657e-05
17870.0 1.366e-05
17890.0 1.3663e-05
17910.0 1.3666e-05
17930.0 1.3668e-05
17950.0 1.3669e-05
17970.0 1.3669e-05
17990.0 1.3669e-05
18010.0 1.3669e-05
18030.0 1.3667e-05
18050.0 1.3665e-05
18070.0 1.3663e-05
18090.0 1.3659e-05
18110.0 1.3655e-05
18130.0 1.3651e-05
18150.0 1.3646e-05
18170.0 1.3639e-05
18190.0 1.3633e-05
18210.0 1.3626e-05
18230.0 1.3617e-05
18250.0 1.3609e-05
18270.0 1.3599e-05
18290.0 1.3589e-05
18310.0 1.3578e-05
18330.0 1.3567e-05
18350.0 1.3555e-05
18370.0 1.3542e-05
18390.0 1.3529e-05
18410.0 1.3514e-05
18430.0 1.35e-05
18450.0 1.3484e-05
18470.0 1.3467e-05
18490.0 1.345e-05
18510.0 1.3433e-05
18530.0 1.3414e-05
18550.0 1.3395e-05
18570.0 1.3375e-05
18590.0 1.3354e-05
18610.0 1.3333e-05
18630.0 1.3311e-05
18650.0 1.3288e-05
18670.0 1.3265e-05
18690.0 1.3241e-05
18710.0 1.3216e-05
18730.0 1.3191e-05
18750.0 1.3164e-05
18770.0 1.3138e-05
18790.0 1.311e-05
18810.0 1.3082e-05
18830.0 1.3053e-05
18850.0 1.3023e-05
18870.0 1.2993e-05
18890.0 1.2962e-05
18910.0 1.293e-05
18930.0 1.2898e-05
18950.0 1.2865e-05
18970.0 1.2832e-05
18990.0 1.2797e-05
19010.0 1.2762e-05
19030.0 1.2727e-05
19050.0 1.2691e-05
19070.0 1.2654e-05
19090.0 1.2616e-05
19110.0 1.2578e-05
19130.0 1.254e-05
19150.0 1.25e-05
19170.0 1.246e-05
19190.0 1.242e-05
19210.0 1.2379e-05
19230.0 1.2337e-05
19250.0 1.2295e-05
19270.0 1.2252e-05
19290.0 1.2209e-05
19310.0 1.2165e-05
19330.0 1.2121e-05
19350.0 1.2075e-05
19370.0 1.203e-05
19390.0 1.1984e-05
19410.0 1.1937e-05
19430.0 1.189e-05
19450.0 1.1843e-05
19470.0 1.1795e-05
19490.0 1.1746e-05
19510.0 1.1697e-05
19530.0 1.1647e-05
19550.0 1.1597e-05
19570.0 1.1547e-05
19590.0 1.1496e-05
19610.0 1.1445e-05
19630.0 1.1393e-05
19650.0 1.1341e-05
19670.0 1.1289e-05
19690.0 1.1236e-05
19710.0 1.1182e-05
19730.0 1.1129e-05
19750.0 1.1075e-05
19770.0 1.102e-05
19790.0 1.0965e-05
19810.0 1.091e-05
19830.0 1.0854e-05
19850.0 1.0798e-05
19870.0 1.0741e-05
19890.0 1.0682e-05
19910.0 1.0619e-05
19930.0 1.0551e-05
19950.0 1.0477e-05
19970.0 1.0391e-05
19990.0 1.0292e-05
20010.0 1.0182e-05
20030.0 1.0056e-05
20050.0 9.9141e-06
20070.0 9.7643e-06
20090.0 9.6072e-06
20110.0 9.4375e-06
20130.0 9.2683e-06
20150.0 9.1022e-06
20170.0 8.9336e-06
20190.0 8.7649e-06
20210.0 8.6037e-06
20230.0 8.4456e-06
20250.0 8.2868e-06
20270.0 8.1347e-06
20290.0 7.99e-06
20310.0 7.8475e-06
20330.0 7.7075e-06
20350.0 7.5796e-06
20370.0 7.4564e-06
20390.0 7.3369e-06
20410.0 7.2253e-06
20430.0 7.122e-06
20450.0 7.0217e-06
20470.0 6.9282e-06
20490.0 6.8426e-06
20510.0 6.7626e-06
20530.0 6.6873e-06
20550.0 6.6184e-06
20570.0 6.5553e-06
20590.0 6.4961e-06
20610.0 6.4414e-06
20630.0 6.3909e-06
20650.0 6.3436e-06
20670.0 6.2992e-06
20690.0 6.2573e-06
20710.0 6.2172e-06
20730.0 6.1784e-06
20750.0 6.1405e-06
20770.0 6.1025e-06
20790.0 6.0644e-06
20810.0 6.0257e-06
20830.0 5.9856e-06
20850.0 5.944e-06
20870.0 5.9005e-06
20890.0 5.8545e-06
20910.0 5.8065e-06
20930.0 5.7558e-06
20950.0 5.702e-06
20970.0 5.646e-06
20990.0 5.5877e-06
21010.0 5.5259e-06
21030.0 5.4617e-06
21050.0 5.3962e-06
21070.0 5.3281e-06
21090.0 5.2571e-06
21110.0 5.186e-06
21130.0 5.1141e-06
21150.0 5.0401e-06
21170.0 4.9656e-06
21190.0 4.8922e-06
21210.0 4.8173e-06
21230.0 4.7417e-06
21250.0 4.6681e-06
21270.0 4.5952e-06
21290.0 4.5219e-06
21310.0 4.4501e-06
21330.0 4.381e-06
21350.0 4.312e-06
21370.0 4.2441e-06
21390.0 4.1789e-06
21410.0 4.1155e-06
21430.0 4.0522e-06
21450.0 3.9918e-06
21470.0 3.9342e-06
21490.0 3.8777e-06
21510.0 3.823e-06
21530.0 3.771e-06
21550.0 3.7208e-06
21570.0 3.6717e-06
21590.0 3.6249e-06
21610.0 3.58e-06
21630.0 3.5363e-06
21650.0 3.4936e-06
21670.0 3.4531e-06
21690.0 3.4136e-06
21710.0 3.3747e-06
21730.0 3.3369e-06
21750.0 3.3001e-06
21770.0 3.2633e-06
21790.0 3.2271e-06
21810.0 3.1914e-06
21830.0 3.1558e-06
21850.0 3.1201e-06
21870.0 3.0845e-06
21890.0 3.0492e-06
21910.0 3.0134e-06
21930.0 2.9773e-06
21950.0 2.9414e-06
21970.0 2.9051e-06
21990.0 2.8681e-06
22010.0 2.8312e-06
22030.0 2.7943e-06
22050.0 2.7567e-06
22070.0 2.7189e-06
22090.0 2.6814e-06
22110.0 2.6434e-06
22130.0 2.6048e-06
22150.0 2.5666e-06
22170.0 2.5283e-06
22190.0 2.4893e-06
22210.0 2.4502e-06
22230.0 2.4118e-06
22250.0 2.3731e-06
22270.0 2.3339e-06
22290.0 2.2953e-06
22310.0 2.2569e-06
22330.0 2.2177e-06
22350.0 2.179e-06
22370.0 2.1408e-06
22390.0 2.1024e-06
22410.0 2.0635e-06
22430.0 2.0258e-06
22450.0 1.9883e-06
22470.0 1.9505e-06
22490.0 1.9131e-06
22510.0 1.8766e-06
22530.0 1.8398e-06
22550.0 1.803e-06
22570.0 1.7675e-06
22590.0 1.7325e-06
22610.0 1.6975e-06
22630.0 1.6634e-06
22650.0 1.6307e-06
22670.0 1.5981e-06
