#lamb flux
1010.0 0.00013926
1030.0 0.00015223
1050.0 0.00016722
1070.0 0.00018416
1090.0 0.00020346
1110.0 0.00022338
1130.0 0.00024359
1150.0 0.00026491
1170.0 0.00028708
1190.0 0.00030837
1210.0 0.00033018
1230.0 0.00035295
1250.0 0.00037557
1270.0 0.0003979
1290.0 0.00042172
1310.0 0.00044589
1330.0 0.00046952
1350.0 0.00049377
1370.0 0.00051912
1390.0 0.00054431
1410.0 0.00056926
1430.0 0.00059558
1450.0 0.00062231
1470.0 0.00064866
1490.0 0.00067562
1510.0 0.0007042
1530.0 0.00073184
1550.0 0.00075943
1570.0 0.00078803
1590.0 0.00081681
1610.0 0.00084464
1630.0 0.00087319
1650.0 0.00090231
1670.0 0.0009305
1690.0 0.00095814
1710.0 0.00098634
1730.0 0.0010143
1750.0 0.0010401
1770.0 0.001066
1790.0 0.0010916
1810.0 0.0011155
1830.0 0.0011381
1850.0 0.0011609
1870.0 0.0011819
1890.0 0.0012008
1910.0 0.0012187
1930.0 0.0012358
1950.0 0.0012502
1970.0 0.0012627
1990.0 0.0012746
2010.0 0.0012843
2030.0 0.0012916
2050.0 0.0012979
2070.0 0.0013031
2090.0 0.0013054
2110.0 0.0013061
2130.0 0.0013058
2150.0 0.0013038
2170.0 0.0012995
2190.0 0.0012946
2210.0 0.0012887
2230.0 0.0012809
2250.0 0.0012721
2270.0 0.0012632
2290.0 0.0012529
2310.0 0.0012413
2330.0 0.0012297
2350.0 0.0012177
2370.0 0.0012047
2390.0 0.0011915
2410.0 0.0011786
2430.0 0.0011647
2450.0 0.0011499
2470.0 0.0011343
2490.0 0.0011174
2510.0 0.0010989
2530.0 0.0010804
2550.0 0.001065
2570.0 0.001057
2590.0 0.0010614
2610.0 0.0010889
2630.0 0.0011447
2650.0 0.001226
2670.0 0.0013352
2690.0 0.0014696
2710.0 0.0016095
2730.0 0.001745
2750.0 0.0018795
2770.0 0.0019999
2790.0 0.0021022
2810.0 0.002196
2830.0 0.0022891
2850.0 0.0023729
2870.0 0.0024558
2890.0 0.0025444
2910.0 0.002635
2930.0 0.0027227
2950.0 0.0028165
2970.0 0.0029148
2990.0 0.0030109
3010.0 0.0068845
3030.0 0.0071138
3050.0 0.0073481
3070.0 0.0075722
3090.0 0.0078066
3110.0 0.0080446
3130.0 0.0082703
3150.0 0.0084846
3170.0 0.0086972
3190.0 0.0088805
3210.0 0.0090206
3230.0 0.0091487
3250.0 0.0089994
3270.0 0.0090984
3290.0 0.0090129
3310.0 0.0097966
3330.0 0.010516
3350.0 0.011301
3370.0 0.012207
3390.0 0.013226
3410.0 0.014286
3430.0 0.015426
3450.0 0.016684
3470.0 0.018019
3490.0 0.019413
3510.0 0.020888
3530.0 0.022462
3550.0 0.024487
3570.0 0.026826
3590.0 0.028766
3610.0 0.030942
3630.0 0.031762
3650.0 0.03241
3670.0 0.032811
3690.0 0.033732
3710.0 0.034776
3730.0 0.034202
3750.0 0.033191
3770.0 0.031803
3790.0 0.030184
3810.0 0.028135
3830.0 0.024885
3850.0 0.015547
3870.0 0.021601
3890.0 0.029451
3910.0 0.036338
3930.0 0.041905
3950.0 0.044486
3970.0 0.046381
3990.0 0.055722
4010.0 0.052681
4030.0 0.046137
4050.0 0.040927
4070.0 0.036845
4090.0 0.043165
4110.0 0.046023
4130.0 0.04641
4150.0 0.045823
4170.0 0.043102
4190.0 0.040724
4210.0 0.048078
4230.0 0.054469
4250.0 0.055474
4270.0 0.053509
4290.0 0.054515
4310.0 0.057866
4330.0 0.065678
4350.0 0.070509
4370.0 0.069517
4390.0 0.05862
4410.0 0.050186
4430.0 0.042549
4450.0 0.036984
4470.0 0.03847
4490.0 0.047987
4510.0 0.052008
4530.0 0.057145
4550.0 0.061493
4570.0 0.076112
4590.0 0.11065
4610.0 0.14454
4630.0 0.14492
4650.0 0.13573
4670.0 0.14609
4690.0 0.16476
4710.0 0.13927
4730.0 0.10106
4750.0 0.078564
4770.0 0.073441
4790.0 0.074929
4810.0 0.069647
4830.0 0.075724
4850.0 0.092395
4870.0 0.11323
4890.0 0.10327
4910.0 0.088225
4930.0 0.09507
4950.0 0.1251
4970.0 0.16497
4990.0 0.17073
5010.0 0.14926
5030.0 0.11467
5050.0 0.081958
5070.0 0.067734
5090.0 0.06319
5110.0 0.063264
5130.0 0.066095
5150.0 0.065003
5170.0 0.066562
5190.0 0.063631
5210.0 0.064591
5230.0 0.069218
5250.0 0.074283
5270.0 0.091439
5290.0 0.10594
5310.0 0.10453
5330.0 0.10696
5350.0 0.12112
5370.0 0.13098
5390.0 0.11993
5410.0 0.10138
5430.0 0.094736
5450.0 0.10857
5470.0 0.14013
5490.0 0.17309
5510.0 0.18729
5530.0 0.18751
5550.0 0.17603
5570.0 0.16402
5590.0 0.15768
5610.0 0.15846
5630.0 0.15944
5650.0 0.15757
5670.0 0.15564
5690.0 0.15013
5710.0 0.13017
5730.0 0.10828
5750.0 0.091015
5770.0 0.091952
5790.0 0.099508
5810.0 0.10596
5830.0 0.10825
5850.0 0.10579
5870.0 0.096142
5890.0 0.082799
5910.0 0.081279
5930.0 0.08844
5950.0 0.088411
5970.0 0.078936
5990.0 0.066875
6010.0 0.054083
6030.0 0.045384
6050.0 0.045723
6070.0 0.052759
6090.0 0.055614
6110.0 0.049451
6130.0 0.045927
6150.0 0.049961
6170.0 0.060291
6190.0 0.071791
6210.0 0.076386
6230.0 0.073103
6250.0 0.067126
6270.0 0.057863
6290.0 0.047978
6310.0 0.040115
6330.0 0.036998
6350.0 0.039104
6370.0 0.041238
6390.0 0.04368
6410.0 0.050231
6430.0 0.063284
6450.0 0.079763
6470.0 0.088982
6490.0 0.087221
6510.0 0.085858
6530.0 0.088992
6550.0 0.089984
6570.0 0.091498
6590.0 0.09185
6610.0 0.090217
6630.0 0.091226
6650.0 0.090781
6670.0 0.086204
6690.0 0.076438
6710.0 0.064947
6730.0 0.063829
6750.0 0.069232
6770.0 0.074563
6790.0 0.076432
6810.0 0.075759
6830.0 0.074527
6850.0 0.072997
6870.0 0.068558
6890.0 0.065311
6910.0 0.061996
6930.0 0.060403
6950.0 0.065143
6970.0 0.069975
6990.0 0.073355
7010.0 0.073744
7030.0 0.069361
7050.0 0.060234
7070.0 0.048883
7090.0 0.041664
7110.0 0.040716
7130.0 0.043607
7150.0 0.043392
7170.0 0.039348
7190.0 0.038981
7210.0 0.043178
7230.0 0.050079
7250.0 0.056938
7270.0 0.059471
7290.0 0.055068
7310.0 0.048647
7330.0 0.044647
7350.0 0.044086
7370.0 0.045415
7390.0 0.047196
7410.0 0.050394
7430.0 0.057915
7450.0 0.067483
7470.0 0.076405
7490.0 0.079968
7510.0 0.077516
7530.0 0.065463
7550.0 0.054298
7570.0 0.045846
7590.0 0.040996
7610.0 0.043106
7630.0 0.050394
7650.0 0.058121
7670.0 0.06568
7690.0 0.071531
7710.0 0.076531
7730.0 0.081436
7750.0 0.08615
7770.0 0.088828
7790.0 0.089123
7810.0 0.091109
7830.0 0.095103
7850.0 0.094842
7870.0 0.092298
7890.0 0.086867
7910.0 0.081812
7930.0 0.079075
7950.0 0.078534
7970.0 0.077986
7990.0 0.078629
8010.0 0.080695
8030.0 0.081546
8050.0 0.083715
8070.0 0.083138
8090.0 0.083441
8110.0 0.08041
8130.0 0.080269
8150.0 0.078684
8170.0 0.076831
8190.0 0.076052
8210.0 0.076904
8230.0 0.073335
8250.0 0.069649
8270.0 0.061316
8290.0 0.04951
8310.0 0.037808
8330.0 0.028909
8350.0 0.025961
8370.0 0.030004
8390.0 0.035658
8410.0 0.0396
8430.0 0.043174
8450.0 0.045572
8470.0 0.048012
8490.0 0.053529
8510.0 0.060368
8530.0 0.070489
8550.0 0.082506
8570.0 0.093542
8590.0 0.10254
8610.0 0.10972
8630.0 0.11416
8650.0 0.11506
8670.0 0.11561
8690.0 0.12004
8710.0 0.12391
8730.0 0.12765
8750.0 0.12622
8770.0 0.1273
8790.0 0.12611
8810.0 0.11797
8830.0 0.11437
8850.0 0.10789
8870.0 0.1029
8890.0 0.099331
8910.0 0.10145
8930.0 0.096095
8950.0 0.09226
8970.0 0.090888
8990.0 0.089324
9010.0 0.087132
9030.0 0.084998
9050.0 0.084456
9070.0 0.084201
9090.0 0.083959
9110.0 0.083728
9130.0 0.08348
9150.0 0.083227
9170.0 0.082886
9190.0 0.082477
9210.0 0.082801
9230.0 0.082377
9250.0 0.082033
9270.0 0.081715
9290.0 0.081414
9310.0 0.081121
9330.0 0.080832
9350.0 0.08055
9370.0 0.080267
9390.0 0.079979
9410.0 0.079692
9430.0 0.0794
9450.0 0.079062
9470.0 0.078737
9490.0 0.078486
9510.0 0.07821
9530.0 0.077926
9550.0 0.077638
9570.0 0.077345
9590.0 0.077048
9610.0 0.076749
9630.0 0.07645
9650.0 0.07615
9670.0 0.075847
9690.0 0.075546
9710.0 0.075244
9730.0 0.07494
9750.0 0.074637
9770.0 0.074335
9790.0 0.074031
9810.0 0.073726
9830.0 0.073422
9850.0 0.073119
9870.0 0.072813
9890.0 0.072508
9910.0 0.072203
9930.0 0.07189
9950.0 0.071069
9970.0 0.070916
9990.0 0.070733
10010.0 0.070534
10030.0 0.070292
10050.0 0.070013
10070.0 0.069716
10090.0 0.069439
10110.0 0.06913
10130.0 0.06884
10150.0 0.068543
10170.0 0.068228
10190.0 0.067897
10210.0 0.067589
10230.0 0.067288
10250.0 0.066967
10270.0 0.066649
10290.0 0.066349
10310.0 0.066031
10330.0 0.065696
10350.0 0.065384
10370.0 0.065073
10390.0 0.064741
10410.0 0.064413
10430.0 0.064106
10450.0 0.063778
10470.0 0.06344
10490.0 0.063117
10510.0 0.062796
10530.0 0.062442
10550.0 0.0621
10570.0 0.061776
10590.0 0.061433
10610.0 0.061079
10630.0 0.060745
10650.0 0.060406
10670.0 0.060039
10690.0 0.059683
10710.0 0.059338
10730.0 0.058973
10750.0 0.058589
10770.0 0.058237
10790.0 0.057875
10810.0 0.057491
10830.0 0.057114
10850.0 0.056752
10870.0 0.056349
10890.0 0.055936
10910.0 0.055532
10930.0 0.055099
10950.0 0.05461
10970.0 0.054094
10990.0 0.053555
11010.0 0.049661
11030.0 0.048998
11050.0 0.048365
11070.0 0.047726
11090.0 0.04705
11110.0 0.046434
11130.0 0.045846
11150.0 0.045245
11170.0 0.044656
11190.0 0.044113
11210.0 0.043559
11230.0 0.04299
11250.0 0.04245
11270.0 0.041925
11290.0 0.041375
11310.0 0.04083
11330.0 0.040335
11350.0 0.03983
11370.0 0.039319
11390.0 0.038837
11410.0 0.038372
11430.0 0.037874
11450.0 0.037388
11470.0 0.036918
11490.0 0.036424
11510.0 0.035897
11530.0 0.035382
11550.0 0.034853
11570.0 0.034274
11590.0 0.033678
11610.0 0.033084
11630.0 0.03244
11650.0 0.031754
11670.0 0.03109
11690.0 0.030415
11710.0 0.029706
11730.0 0.029005
11750.0 0.028343
11770.0 0.027661
11790.0 0.026986
11810.0 0.026359
11830.0 0.025757
11850.0 0.025147
11870.0 0.024589
11890.0 0.024082
11910.0 0.023585
11930.0 0.023111
11950.0 0.022685
11970.0 0.022279
11990.0 0.021876
12010.0 0.021508
12030.0 0.02117
12050.0 0.020839
12070.0 0.020519
12090.0 0.020242
12110.0 0.019979
12130.0 0.019727
12150.0 0.019507
12170.0 0.019318
12190.0 0.019142
12210.0 0.019
12230.0 0.018898
12250.0 0.018829
12270.0 0.018797
12290.0 0.01881
12310.0 0.018866
12330.0 0.018968
12350.0 0.019119
12370.0 0.019311
12390.0 0.01955
12410.0 0.019846
12430.0 0.020169
12450.0 0.020522
12470.0 0.020914
12490.0 0.021327
12510.0 0.021738
12530.0 0.022165
12550.0 0.022598
12570.0 0.023008
12590.0 0.023394
12610.0 0.023766
12630.0 0.024101
12650.0 0.024383
12670.0 0.024628
12690.0 0.024827
12710.0 0.024972
12730.0 0.025068
12750.0 0.025115
12770.0 0.025111
12790.0 0.025065
12810.0 0.024975
12830.0 0.024841
12850.0 0.024683
12870.0 0.0245
12890.0 0.024286
12910.0 0.024057
12930.0 0.023825
12950.0 0.023572
12970.0 0.023306
12990.0 0.023051
13010.0 0.022791
13030.0 0.022519
13050.0 0.022249
13070.0 0.021987
13090.0 0.021712
13110.0 0.021431
13130.0 0.021158
13150.0 0.020886
13170.0 0.020602
13190.0 0.020334
13210.0 0.020085
13230.0 0.019842
13250.0 0.019619
13270.0 0.019431
13290.0 0.01927
13310.0 0.019139
13330.0 0.019051
13350.0 0.019003
13370.0 0.018991
13390.0 0.019016
13410.0 0.019069
13430.0 0.019142
13450.0 0.019228
13470.0 0.019313
13490.0 0.019386
13510.0 0.019441
13530.0 0.019463
13550.0 0.019446
13570.0 0.019386
13590.0 0.019276
13610.0 0.019122
13630.0 0.018932
13650.0 0.018695
13670.0 0.018427
13690.0 0.018146
13710.0 0.017844
13730.0 0.017521
13750.0 0.017217
13770.0 0.016923
13790.0 0.016632
13810.0 0.016362
13830.0 0.016122
13850.0 0.015896
13870.0 0.015689
13890.0 0.015511
13910.0 0.015356
13930.0 0.015214
13950.0 0.015091
13970.0 0.01499
13990.0 0.014898
14010.0 0.014817
14030.0 0.014747
14050.0 0.014685
14070.0 0.014626
14090.0 0.014571
14110.0 0.01452
14130.0 0.014467
14150.0 0.014412
14170.0 0.014356
14190.0 0.014297
14210.0 0.014234
14230.0 0.014168
14250.0 0.014101
14270.0 0.014032
14290.0 0.013962
14310.0 0.013896
14330.0 0.013834
14350.0 0.013776
14370.0 0.013724
14390.0 0.01368
14410.0 0.013641
14430.0 0.013608
14450.0 0.013581
14470.0 0.013558
14490.0 0.013539
14510.0 0.013521
14530.0 0.013505
14550.0 0.01349
14570.0 0.013476
14590.0 0.013464
14610.0 0.013454
14630.0 0.013451
14650.0 0.013453
14670.0 0.013463
14690.0 0.013485
14710.0 0.013521
14730.0 0.013568
14750.0 0.013632
14770.0 0.013716
14790.0 0.013816
14810.0 0.013931
14830.0 0.014077
14850.0 0.014243
14870.0 0.014422
14890.0 0.014622
14910.0 0.014841
14930.0 0.015056
14950.0 0.01526
14970.0 0.015456
14990.0 0.015621
15010.0 0.015742
15030.0 0.015828
15050.0 0.015878
15070.0 0.01589
15090.0 0.015878
15110.0 0.015851
15130.0 0.015813
15150.0 0.015768
15170.0 0.015721
15190.0 0.015672
15210.0 0.015622
15230.0 0.015573
15250.0 0.015522
15270.0 0.015472
15290.0 0.015422
15310.0 0.015371
15330.0 0.015321
15350.0 0.01527
15370.0 0.01522
15390.0 0.015169
15410.0 0.015118
15430.0 0.015068
15450.0 0.015017
15470.0 0.014965
15490.0 0.014915
15510.0 0.014864
15530.0 0.014813
15550.0 0.014762
15570.0 0.014711
15590.0 0.01466
15610.0 0.014609
15630.0 0.014558
15650.0 0.014507
15670.0 0.014456
15690.0 0.014405
15710.0 0.014354
15730.0 0.014303
15750.0 0.014252
15770.0 0.014201
15790.0 0.014151
15810.0 0.0141
15830.0 0.014049
15850.0 0.013999
15870.0 0.013948
15890.0 0.013897
15910.0 0.013847
15930.0 0.013797
15950.0 0.013746
15970.0 0.013696
15990.0 0.013646
16010.0 0.013596
16030.0 0.013546
16050.0 0.013496
16070.0 0.013447
16090.0 0.013397
16110.0 0.013347
16130.0 0.013298
16150.0 0.013249
16170.0 0.013199
16190.0 0.01315
16210.0 0.013101
16230.0 0.013052
16250.0 0.013004
16270.0 0.012955
16290.0 0.012907
16310.0 0.012858
16330.0 0.01281
16350.0 0.012762
16370.0 0.012714
16390.0 0.012666
16410.0 0.012619
16430.0 0.012571
16450.0 0.012524
16470.0 0.012477
16490.0 0.01243
16510.0 0.012383
16530.0 0.012336
16550.0 0.01229
16570.0 0.012243
16590.0 0.012197
16610.0 0.012151
16630.0 0.012105
16650.0 0.01206
16670.0 0.012014
16690.0 0.011969
16710.0 0.011923
16730.0 0.011878
16750.0 0.011834
16770.0 0.011789
16790.0 0.011744
16810.0 0.0117
16830.0 0.011656
16850.0 0.011612
16870.0 0.011568
16890.0 0.011525
16910.0 0.011481
16930.0 0.011438
16950.0 0.011395
16970.0 0.011352
16990.0 0.011309
17010.0 0.011267
17030.0 0.011225
17050.0 0.011182
17070.0 0.01114
17090.0 0.011099
17110.0 0.011057
17130.0 0.011016
17150.0 0.010975
17170.0 0.010934
17190.0 0.010893
17210.0 0.010852
17230.0 0.010812
17250.0 0.010772
17270.0 0.010732
17290.0 0.010692
17310.0 0.010652
17330.0 0.010613
17350.0 0.010573
17370.0 0.010535
17390.0 0.010496
17410.0 0.010457
17430.0 0.010419
17450.0 0.010381
17470.0 0.010342
17490.0 0.010304
17510.0 0.010267
17530.0 0.010229
17550.0 0.010192
17570.0 0.010155
17590.0 0.010118
17610.0 0.010081
17630.0 0.010045
17650.0 0.010009
17670.0 0.0099724
17690.0 0.0099361
17710.0 0.0099005
17730.0 0.0098651
17750.0 0.0098296
17770.0 0.0097944
17790.0 0.0097597
17810.0 0.0097248
17830.0 0.00969
17850.0 0.0096557
17870.0 0.0096216
17890.0 0.0095873
17910.0 0.0095534
17930.0 0.00952
17950.0 0.0094865
17970.0 0.009453
17990.0 0.0094201
18010.0 0.0093873
18030.0 0.0093543
18050.0 0.0093217
18070.0 0.0092895
18090.0 0.0092573
18110.0 0.0092251
18130.0 0.0091934
18150.0 0.0091619
18170.0 0.0091303
18190.0 0.009099
18210.0 0.0090681
18230.0 0.009037
18250.0 0.0090061
18270.0 0.0089757
18290.0 0.0089453
18310.0 0.008915
18330.0 0.008885
18350.0 0.0088553
18370.0 0.0088255
18390.0 0.0087958
18410.0 0.0087666
18430.0 0.0087375
18450.0 0.0087082
18470.0 0.0086794
18490.0 0.0086509
18510.0 0.0086223
18530.0 0.0085939
18550.0 0.0085659
18570.0 0.0085379
18590.0 0.0085098
18610.0 0.0084822
18630.0 0.0084548
18650.0 0.0084273
18670.0 0.0084
18690.0 0.0083732
18710.0 0.0083463
18730.0 0.0083194
18750.0 0.008293
18770.0 0.0082667
18790.0 0.0082402
18810.0 0.008214
18830.0 0.0081883
18850.0 0.0081625
18870.0 0.0081367
18890.0 0.0081113
18910.0 0.0080861
18930.0 0.0080608
18950.0 0.0080357
18970.0 0.008011
18990.0 0.0079862
19010.0 0.0079613
19030.0 0.0079371
19050.0 0.0079129
19070.0 0.0078886
19090.0 0.0078646
19110.0 0.0078409
19130.0 0.0078171
19150.0 0.0077933
19170.0 0.00777
19190.0 0.0077468
19210.0 0.0077234
19230.0 0.0077003
19250.0 0.0076776
19270.0 0.0076548
19290.0 0.0076321
19310.0 0.0076097
19330.0 0.0075875
19350.0 0.007565
19370.0 0.0075429
19390.0 0.007521
19410.0 0.0074991
19430.0 0.0074773
19450.0 0.0074559
19470.0 0.0074345
19490.0 0.007413
19510.0 0.0073918
19530.0 0.0073709
19550.0 0.0073498
19570.0 0.0073288
19590.0 0.0073083
19610.0 0.0072877
19630.0 0.0072671
19650.0 0.0072468
19670.0 0.0072268
19690.0 0.0072065
19710.0 0.0071865
19730.0 0.0071667
19750.0 0.007147
19770.0 0.0071271
19790.0 0.0071076
19810.0 0.0070883
19830.0 0.0070687
19850.0 0.007049
19870.0 0.007029
19890.0 0.0070076
19910.0 0.0069835
19930.0 0.0069559
19950.0 0.0069225
19970.0 0.0068798
19990.0 0.0068261
20010.0 0.0067629
20030.0 0.0066857
20050.0 0.0065952
20070.0 0.0064972
20090.0 0.0063927
20110.0 0.006277
20130.0 0.0061617
20150.0 0.0060492
20170.0 0.0059346
20190.0 0.0058203
20210.0 0.0057131
20230.0 0.0056089
20250.0 0.0055047
20270.0 0.0054068
20290.0 0.0053155
20310.0 0.0052265
20330.0 0.00514
20350.0 0.0050636
20370.0 0.0049911
20390.0 0.0049219
20410.0 0.0048591
20430.0 0.004803
20450.0 0.0047495
20470.0 0.0047017
20490.0 0.0046605
20510.0 0.0046241
20530.0 0.004592
20550.0 0.0045658
20570.0 0.0045448
20590.0 0.004528
20610.0 0.0045156
20630.0 0.0045075
20650.0 0.004503
20670.0 0.0045022
20690.0 0.0045042
20710.0 0.0045085
20730.0 0.0045151
20750.0 0.0045235
20770.0 0.0045322
20790.0 0.0045419
20810.0 0.0045521
20830.0 0.0045615
20850.0 0.0045699
20870.0 0.0045778
20890.0 0.004584
20910.0 0.0045876
20930.0 0.0045892
20950.0 0.0045883
20970.0 0.0045845
20990.0 0.0045779
21010.0 0.0045682
21030.0 0.0045554
21050.0 0.0045399
21070.0 0.0045213
21090.0 0.0044993
21110.0 0.0044756
21130.0 0.0044499
21150.0 0.0044215
21170.0 0.0043916
21190.0 0.0043614
21210.0 0.0043292
21230.0 0.0042959
21250.0 0.0042635
21270.0 0.0042313
21290.0 0.0041986
21310.0 0.0041669
21330.0 0.0041374
21350.0 0.0041082
21370.0 0.0040803
21390.0 0.0040549
21410.0 0.0040314
21430.0 0.0040091
21450.0 0.0039899
21470.0 0.0039735
21490.0 0.0039593
21510.0 0.0039479
21530.0 0.0039396
21550.0 0.003934
21570.0 0.0039315
21590.0 0.003932
21610.0 0.0039352
21630.0 0.0039416
21650.0 0.0039514
21670.0 0.003963
21690.0 0.0039773
21710.0 0.0039945
21730.0 0.0040134
21750.0 0.0040332
21770.0 0.004056
21790.0 0.0040799
21810.0 0.0041036
21830.0 0.004128
21850.0 0.0041535
21870.0 0.0041779
21890.0 0.0042008
21910.0 0.0042239
21930.0 0.0042457
21950.0 0.0042652
21970.0 0.0042833
21990.0 0.0043005
22010.0 0.0043144
22030.0 0.004326
22050.0 0.0043356
22070.0 0.0043427
22090.0 0.0043468
22110.0 0.0043487
22130.0 0.0043479
22150.0 0.0043444
22170.0 0.0043383
22190.0 0.0043293
22210.0 0.0043176
22230.0 0.0043036
22250.0 0.0042868
22270.0 0.0042671
22290.0 0.0042453
22310.0 0.0042214
22330.0 0.0041938
22350.0 0.0041642
22370.0 0.004133
22390.0 0.0040989
22410.0 0.0040615
22430.0 0.0040236
22450.0 0.003984
22470.0 0.0039411
22490.0 0.003897
22510.0 0.0038529
22530.0 0.0038057
22550.0 0.0037565
22570.0 0.0037086
22590.0 0.0036602
22610.0 0.00361
22630.0 0.0035605
22650.0 0.0035133
22670.0 0.0034652
22690.0 0.0034176
22710.0 0.0033728
22730.0 0.0033296
22750.0 0.0032858
22770.0 0.0032456
22790.0 0.0032084
22810.0 0.0031723
22830.0 0.003138
22850.0 0.0031071
22870.0 0.003078
22890.0 0.0030499
22910.0 0.0030245
22930.0 0.0030014
22950.0 0.0029792
22970.0 0.0029582
22990.0 0.0029399
23010.0 0.0029223
23030.0 0.0029054
23050.0 0.0028896
23070.0 0.002875
23090.0 0.0028601
23110.0 0.0028456
23130.0 0.0028319
23150.0 0.0028181
23170.0 0.0028038
23190.0 0.0027899
23210.0 0.0027763
23230.0 0.0027622
23250.0 0.0027481
23270.0 0.0027346
23290.0 0.0027211
23310.0 0.0027076
23330.0 0.0026952
23350.0 0.0026837
23370.0 0.0026726
23390.0 0.0026625
23410.0 0.0026537
23430.0 0.0026456
23450.0 0.0026384
23470.0 0.0026322
23490.0 0.0026268
23510.0 0.002622
23530.0 0.0026178
23550.0 0.0026142
23570.0 0.0026108
23590.0 0.0026076
23610.0 0.0026047
23630.0 0.0026018
23650.0 0.0025988
23670.0 0.002596
23690.0 0.0025933
23710.0 0.0025908
23730.0 0.0025887
23750.0 0.0025871
23770.0 0.0025864
23790.0 0.0025869
23810.0 0.0025889
23830.0 0.0025926
23850.0 0.0025989
23870.0 0.002608
23890.0 0.0026198
23910.0 0.0026348
23930.0 0.0026539
23950.0 0.0026762
23970.0 0.002701
23990.0 0.00273
24010.0 0.0027624
24030.0 0.0027962
24050.0 0.002832
24070.0 0.0028717
24090.0 0.0029108
24110.0 0.0029493
24130.0 0.0029891
24150.0 0.0030288
24170.0 0.0030659
24190.0 0.0031026
24210.0 0.0031393
24230.0 0.0031733
24250.0 0.003205
24270.0 0.0032363
24290.0 0.0032665
24310.0 0.0032933
24330.0 0.0033195
24350.0 0.0033455
24370.0 0.00337
24390.0 0.0033935
24410.0 0.0034185
24430.0 0.0034434
24450.0 0.0034678
24470.0 0.0034931
24490.0 0.00352
24510.0 0.0035464
24530.0 0.0035724
24550.0 0.0035994
24570.0 0.0036254
24590.0 0.0036493
24610.0 0.0036717
24630.0 0.0036923
24650.0 0.0037087
24670.0 0.0037217
