#lamb flux
1010.0 1.882e-05
1030.0 1.8898e-05
1050.0 1.8983e-05
1070.0 1.9428e-05
1090.0 2.0652e-05
1110.0 2.1603e-05
1130.0 2.2281e-05
1150.0 2.2825e-05
1170.0 2.3222e-05
1190.0 2.3338e-05
1210.0 2.3365e-05
1230.0 2.3357e-05
1250.0 2.3258e-05
1270.0 2.308e-05
1290.0 2.2964e-05
1310.0 2.284e-05
1330.0 2.2678e-05
1350.0 2.2567e-05
1370.0 2.254e-05
1390.0 2.2552e-05
1410.0 2.2623e-05
1430.0 2.2843e-05
1450.0 2.3187e-05
1470.0 2.3647e-05
1490.0 2.4287e-05
1510.0 2.517e-05
1530.0 2.6225e-05
1550.0 2.7518e-05
1570.0 2.9123e-05
1590.0 3.1047e-05
1610.0 3.3287e-05
1630.0 3.5975e-05
1650.0 3.9143e-05
1670.0 4.278e-05
1690.0 4.6959e-05
1710.0 5.1808e-05
1730.0 5.7357e-05
1750.0 6.3562e-05
1770.0 7.0618e-05
1790.0 7.8583e-05
1810.0 8.7417e-05
1830.0 9.7178e-05
1850.0 0.00010808
1870.0 0.00011995
1890.0 0.00013276
1910.0 0.00014662
1930.0 0.00016152
1950.0 0.00017716
1970.0 0.00019352
1990.0 0.00021068
2010.0 0.00022828
2030.0 0.00024605
2050.0 0.00026409
2070.0 0.0002822
2090.0 0.00029975
2110.0 0.00031681
2130.0 0.00033334
2150.0 0.00034891
2170.0 0.0003632
2190.0 0.00037654
2210.0 0.00038864
2230.0 0.00039915
2250.0 0.00040824
2270.0 0.00041619
2290.0 0.00042255
2310.0 0.00042731
2330.0 0.00043099
2350.0 0.00043354
2370.0 0.00043478
2390.0 0.00043519
2410.0 0.00043517
2430.0 0.00043445
2450.0 0.00043331
2470.0 0.00043232
2490.0 0.00043171
2510.0 0.00043131
2530.0 0.00043236
2550.0 0.0004364
2570.0 0.00044463
2590.0 0.00045873
2610.0 0.00048358
2630.0 0.00051998
2650.0 0.00056592
2670.0 0.00062285
2690.0 0.0006901
2710.0 0.00075997
2730.0 0.00082956
2750.0 0.00090266
2770.0 0.00097456
2790.0 0.0010434
2810.0 0.0011139
2830.0 0.00119
2850.0 0.0012642
2870.0 0.0013405
2890.0 0.0014226
2910.0 0.0015079
2930.0 0.0015928
2950.0 0.0016842
2970.0 0.001781
2990.0 0.0018789
3010.0 0.0019799
3030.0 0.0020881
3050.0 0.0021997
3070.0 0.0023084
3090.0 0.0024194
3110.0 0.0025272
3130.0 0.0026236
3150.0 0.0027061
3170.0 0.0027719
3190.0 0.0028179
3210.0 0.0028508
3230.0 0.0028782
3250.0 0.0029105
3270.0 0.0029596
3290.0 0.0030321
3310.0 0.003134
3330.0 0.0032624
3350.0 0.003409
3370.0 0.0035713
3390.0 0.003738
3410.0 0.0039076
3430.0 0.0042508
3450.0 0.0045047
3470.0 0.0047289
3490.0 0.0048013
3510.0 0.0047384
3530.0 0.0053691
3550.0 0.0063871
3570.0 0.0070222
3590.0 0.007504
3610.0 0.0075671
3630.0 0.007178
3650.0 0.0077145
3670.0 0.0092279
3690.0 0.010369
3710.0 0.010827
3730.0 0.011083
3750.0 0.01166
3770.0 0.011686
3790.0 0.011201
3810.0 0.010542
3830.0 0.0098333
3850.0 0.0098058
3870.0 0.010405
3890.0 0.010992
3910.0 0.011447
3930.0 0.011585
3950.0 0.012362
3970.0 0.013207
3990.0 0.012723
4010.0 0.011365
4030.0 0.010094
4050.0 0.0097164
4070.0 0.010115
4090.0 0.010197
4110.0 0.0099107
4130.0 0.0097856
4150.0 0.010045
4170.0 0.011088
4190.0 0.012008
4210.0 0.011632
4230.0 0.010857
4250.0 0.01044
4270.0 0.010203
4290.0 0.010384
4310.0 0.010695
4330.0 0.010185
4350.0 0.0089596
4370.0 0.0079313
4390.0 0.0072256
4410.0 0.0066702
4430.0 0.0066727
4450.0 0.0072582
4470.0 0.0078483
4490.0 0.0085413
4510.0 0.0096624
4530.0 0.011821
4550.0 0.014267
4570.0 0.015736
4590.0 0.016828
4610.0 0.018094
4630.0 0.018707
4650.0 0.017426
4670.0 0.014619
4690.0 0.012426
4710.0 0.011673
4730.0 0.011283
4750.0 0.010111
4770.0 0.0091744
4790.0 0.0095278
4810.0 0.010354
4830.0 0.01031
4850.0 0.009504
4870.0 0.0093092
4890.0 0.0097121
4910.0 0.01016
4930.0 0.010149
4950.0 0.0098678
4970.0 0.0093994
4990.0 0.0086394
5010.0 0.0079348
5030.0 0.0075347
5050.0 0.0073496
5070.0 0.0072248
5090.0 0.0071091
5110.0 0.0070986
5130.0 0.0072079
5150.0 0.0076128
5170.0 0.0084068
5190.0 0.009371
5210.0 0.010378
5230.0 0.010985
5250.0 0.011295
5270.0 0.011863
5290.0 0.012415
5310.0 0.012538
5330.0 0.012059
5350.0 0.011505
5370.0 0.011495
5390.0 0.012103
5410.0 0.012689
5430.0 0.012884
5450.0 0.012797
5470.0 0.012412
5490.0 0.011943
5510.0 0.011699
5530.0 0.011738
5550.0 0.011901
5570.0 0.012005
5590.0 0.011638
5610.0 0.010962
5630.0 0.010301
5650.0 0.0097805
5670.0 0.0094584
5690.0 0.0090665
5710.0 0.008765
5730.0 0.0088842
5750.0 0.0088557
5770.0 0.0086616
5790.0 0.0087288
5810.0 0.0089206
5830.0 0.0090994
5850.0 0.0091572
5870.0 0.0089581
5890.0 0.0085656
5910.0 0.0081191
5930.0 0.0074899
5950.0 0.007038
5970.0 0.0070201
5990.0 0.007233
6010.0 0.0073093
6030.0 0.0070509
6050.0 0.0069452
6070.0 0.007213
6090.0 0.0075704
6110.0 0.0077034
6130.0 0.0074401
6150.0 0.0070065
6170.0 0.0067214
6190.0 0.0064392
6210.0 0.0061377
6230.0 0.0059083
6250.0 0.0058379
6270.0 0.0059889
6290.0 0.00626
6310.0 0.0066085
6330.0 0.0069909
6350.0 0.0073084
6370.0 0.0074507
6390.0 0.0074655
6410.0 0.0075437
6430.0 0.0076362
6450.0 0.0076619
6470.0 0.0077602
6490.0 0.007879
6510.0 0.0079117
6530.0 0.007827
6550.0 0.0076056
6570.0 0.0073261
6590.0 0.0071125
6610.0 0.0069546
6630.0 0.0068159
6650.0 0.0065815
6670.0 0.0063034
6690.0 0.0060954
6710.0 0.0059664
6730.0 0.0059267
6750.0 0.005854
6770.0 0.0057366
6790.0 0.0056475
6810.0 0.0055764
6830.0 0.0055618
6850.0 0.0055661
6870.0 0.005523
6890.0 0.0054884
6910.0 0.0053734
6930.0 0.0052479
6950.0 0.0052189
6970.0 0.0051309
6990.0 0.0049708
7010.0 0.0048947
7030.0 0.0048333
7050.0 0.0047245
7070.0 0.0045956
7090.0 0.0045039
7110.0 0.0045512
7130.0 0.0047284
7150.0 0.0049307
7170.0 0.0050611
7190.0 0.0050231
7210.0 0.0049258
7230.0 0.0048619
7250.0 0.0047975
7270.0 0.0047559
7290.0 0.0046945
7310.0 0.0046644
7330.0 0.0047453
7350.0 0.0048383
7370.0 0.0048876
7390.0 0.0048397
7410.0 0.0047214
7430.0 0.0046641
7450.0 0.0046116
7470.0 0.0043872
7490.0 0.0042237
7510.0 0.0040472
7530.0 0.0039186
7550.0 0.0039032
7570.0 0.0039506
7590.0 0.0039286
7610.0 0.003891
7630.0 0.0038757
7650.0 0.003861
7670.0 0.0039359
7690.0 0.0040803
7710.0 0.0042512
7730.0 0.0043817
7750.0 0.0045092
7770.0 0.0045734
7790.0 0.0045633
7810.0 0.0044955
7830.0 0.0045447
7850.0 0.0045394
7870.0 0.0043936
7890.0 0.0042368
7910.0 0.0041034
7930.0 0.003968
7950.0 0.0038736
7970.0 0.0038601
7990.0 0.0039092
8010.0 0.0038674
8030.0 0.0038237
8050.0 0.0037593
8070.0 0.0036883
8090.0 0.0036141
8110.0 0.0036197
8130.0 0.0036485
8150.0 0.0036432
8170.0 0.0036175
8190.0 0.0035433
8210.0 0.0033648
8230.0 0.0031383
8250.0 0.0029989
8270.0 0.0029106
8290.0 0.0028553
8310.0 0.0028643
8330.0 0.0029105
8350.0 0.0028484
8370.0 0.0027828
8390.0 0.0028339
8410.0 0.0029637
8430.0 0.0031538
8450.0 0.0033384
8470.0 0.0034136
8490.0 0.0034726
8510.0 0.0034893
8530.0 0.0035093
8550.0 0.0035511
8570.0 0.0035704
8590.0 0.0035887
8610.0 0.0036885
8630.0 0.0037292
8650.0 0.0036519
8670.0 0.0036506
8690.0 0.0036795
8710.0 0.0036744
8730.0 0.003644
8750.0 0.0035421
8770.0 0.0034971
8790.0 0.0034717
8810.0 0.0034308
8830.0 0.0032383
8850.0 0.0029805
8870.0 0.002792
8890.0 0.0026856
8910.0 0.0025279
8930.0 0.002354
8950.0 0.0022658
8970.0 0.0022545
8990.0 0.0022669
9010.0 0.0022561
9030.0 0.0022402
9050.0 0.0022255
9070.0 0.0022118
9090.0 0.0021984
9110.0 0.0021851
9130.0 0.0021718
9150.0 0.0021586
9170.0 0.0021453
9190.0 0.0021321
9210.0 0.0021189
9230.0 0.0021059
9250.0 0.0020929
9270.0 0.00208
9290.0 0.0020671
9310.0 0.0020543
9330.0 0.0020415
9350.0 0.0020287
9370.0 0.002016
9390.0 0.0020034
9410.0 0.0019909
9430.0 0.0019783
9450.0 0.0019653
9470.0 0.0019526
9490.0 0.0019409
9510.0 0.0019288
9530.0 0.0019168
9550.0 0.0019047
9570.0 0.0018926
9590.0 0.0018807
9610.0 0.0018687
9630.0 0.0018569
9650.0 0.001845
9670.0 0.0018334
9690.0 0.0018217
9710.0 0.00181
9730.0 0.0017985
9750.0 0.001787
9770.0 0.0017755
9790.0 0.0017641
9810.0 0.0017529
9830.0 0.0017414
9850.0 0.0017286
9870.0 0.0017178
9890.0 0.0017073
9910.0 0.0016966
9930.0 0.0016856
9950.0 0.001675
9970.0 0.0016641
9990.0 0.0016531
10010.0 0.0016407
10030.0 0.0016294
10050.0 0.0016195
10070.0 0.0016094
10090.0 0.0015993
10110.0 0.0015884
10130.0 0.0015753
10150.0 0.0015654
10170.0 0.0015559
10190.0 0.0015457
10210.0 0.0015358
10230.0 0.0015259
10250.0 0.0015155
10270.0 0.0015051
10290.0 0.001495
10310.0 0.0014846
10330.0 0.0014739
10350.0 0.0014637
10370.0 0.0014536
10390.0 0.0014431
10410.0 0.0014327
10430.0 0.0014228
10450.0 0.0014124
10470.0 0.001402
10490.0 0.0013918
10510.0 0.0013818
10530.0 0.0013711
10550.0 0.0013607
10570.0 0.0013507
10590.0 0.0013404
10610.0 0.0013299
10630.0 0.0013198
10650.0 0.0013097
10670.0 0.0012991
10690.0 0.0012887
10710.0 0.0012786
10730.0 0.0012681
10750.0 0.0012573
10770.0 0.0012472
10790.0 0.0012369
10810.0 0.0012263
10830.0 0.0012158
10850.0 0.0012057
10870.0 0.001195
10890.0 0.0011843
10910.0 0.001174
10930.0 0.0011638
10950.0 0.0011533
10970.0 0.0011433
10990.0 0.0011338
11010.0 0.0011563
11030.0 0.0011477
11050.0 0.0011394
11070.0 0.0011311
11090.0 0.0011223
11110.0 0.0011138
11130.0 0.0011053
11150.0 0.0010966
11170.0 0.0010878
11190.0 0.0010795
11210.0 0.0010712
11230.0 0.0010628
11250.0 0.0010551
11270.0 0.0010477
11290.0 0.0010404
11310.0 0.0010334
11330.0 0.0010272
11350.0 0.0010211
11370.0 0.0010152
11390.0 0.0010096
11410.0 0.0010043
11430.0 0.00099887
11450.0 0.00099352
11470.0 0.00098827
11490.0 0.00098279
11510.0 0.00097694
11530.0 0.00097107
11550.0 0.00096494
11570.0 0.00095822
11590.0 0.00095117
11610.0 0.00094393
11630.0 0.00093605
11650.0 0.00092754
11670.0 0.00091902
11690.0 0.00091016
11710.0 0.00090073
11730.0 0.00089114
11750.0 0.00088174
11770.0 0.00087188
11790.0 0.00086182
11810.0 0.00085206
11830.0 0.00084235
11850.0 0.00083224
11870.0 0.00082252
11890.0 0.00081324
11910.0 0.00080386
11930.0 0.0007946
11950.0 0.00078589
11970.0 0.00077735
11990.0 0.00076878
12010.0 0.00076071
12030.0 0.0007531
12050.0 0.00074561
12070.0 0.00073835
12090.0 0.00073182
12110.0 0.00072558
12130.0 0.00071959
12150.0 0.00071415
12170.0 0.00070927
12190.0 0.00070465
12210.0 0.0007006
12230.0 0.00069719
12250.0 0.00069428
12270.0 0.0006919
12290.0 0.0006901
12310.0 0.00068883
12330.0 0.00068804
12350.0 0.00068771
12370.0 0.00068773
12390.0 0.00068807
12410.0 0.00068875
12430.0 0.00068949
12450.0 0.00069027
12470.0 0.00069109
12490.0 0.00069179
12510.0 0.00069222
12530.0 0.00069242
12550.0 0.00069228
12570.0 0.00069167
12590.0 0.00069057
12610.0 0.00068891
12630.0 0.00068663
12650.0 0.00068383
12670.0 0.00068038
12690.0 0.00067628
12710.0 0.00067171
12730.0 0.0006667
12750.0 0.00066097
12770.0 0.00065493
12790.0 0.00064872
12810.0 0.00064213
12830.0 0.00063518
12850.0 0.00062838
12870.0 0.00062154
12890.0 0.00061445
12910.0 0.00060746
12930.0 0.00060071
12950.0 0.00059379
12970.0 0.00058684
12990.0 0.00058026
13010.0 0.00057376
13030.0 0.00056718
13050.0 0.0005608
13070.0 0.00055473
13090.0 0.00054859
13110.0 0.00054256
13130.0 0.00053687
13150.0 0.00053136
13170.0 0.00052583
13190.0 0.00052071
13210.0 0.00051594
13230.0 0.0005113
13250.0 0.00050688
13270.0 0.00050284
13290.0 0.00049897
13310.0 0.00049518
13330.0 0.00049165
13350.0 0.0004883
13370.0 0.00048496
13390.0 0.00048164
13410.0 0.0004785
13430.0 0.00047532
13450.0 0.00047204
13470.0 0.00046878
13490.0 0.00046554
13510.0 0.00046207
13530.0 0.00045857
13550.0 0.00045512
13570.0 0.00045157
13590.0 0.00044789
13610.0 0.00044425
13630.0 0.00044068
13650.0 0.00043694
13670.0 0.00043321
13690.0 0.00042959
13710.0 0.00042592
13730.0 0.00042209
13750.0 0.00041845
13770.0 0.00041484
13790.0 0.00041112
13810.0 0.0004074
13830.0 0.00040382
13850.0 0.00040011
13870.0 0.00039631
13890.0 0.00039261
13910.0 0.00038892
13930.0 0.00038506
13950.0 0.0003812
13970.0 0.00037751
13990.0 0.00037369
14010.0 0.00036978
14030.0 0.00036598
14050.0 0.0003622
14070.0 0.00035821
14090.0 0.00035432
14110.0 0.00035055
14130.0 0.00034671
14150.0 0.00034285
14170.0 0.00033922
14190.0 0.00033569
14210.0 0.00033214
14230.0 0.00032878
14250.0 0.00032566
14270.0 0.00032257
14290.0 0.0003196
14310.0 0.00031695
14330.0 0.00031445
14350.0 0.00031204
14370.0 0.00030983
14390.0 0.00030784
14410.0 0.00030589
14430.0 0.00030405
14450.0 0.00030238
14470.0 0.00030078
14490.0 0.00029918
14510.0 0.0002977
14530.0 0.00029632
14550.0 0.00029493
14570.0 0.00029357
14590.0 0.0002923
14610.0 0.00029103
14630.0 0.00028974
14650.0 0.00028852
14670.0 0.00028738
14690.0 0.00028624
14710.0 0.00028516
14730.0 0.00028425
14750.0 0.00028342
14770.0 0.00028273
14790.0 0.00028225
14810.0 0.00028199
14830.0 0.00028195
14850.0 0.00028221
14870.0 0.00028276
14890.0 0.0002836
14910.0 0.00028473
14930.0 0.00028603
14950.0 0.00028742
14970.0 0.00028888
14990.0 0.00029024
15010.0 0.0002914
15030.0 0.00029237
15050.0 0.00029313
15070.0 0.00029366
15090.0 0.00029404
15110.0 0.00029431
15130.0 0.00029452
15150.0 0.00029471
15170.0 0.00029487
15190.0 0.00029503
15210.0 0.00029521
15230.0 0.0002954
15250.0 0.00029558
15270.0 0.00029577
15290.0 0.00029599
15310.0 0.00029621
15330.0 0.00029643
15350.0 0.00029667
15370.0 0.00029693
15390.0 0.00029717
15410.0 0.00029743
15430.0 0.00029771
15450.0 0.00029799
15470.0 0.00029827
15490.0 0.00029858
15510.0 0.00029889
15530.0 0.0002992
15550.0 0.00029952
15570.0 0.00029986
15590.0 0.0003002
15610.0 0.00030053
15630.0 0.00030089
15650.0 0.00030126
15670.0 0.00030162
15690.0 0.000302
15710.0 0.00030239
15730.0 0.00030277
15750.0 0.00030317
15770.0 0.00030358
15790.0 0.00030399
15810.0 0.00030439
15830.0 0.00030481
15850.0 0.00030525
15870.0 0.00030568
15890.0 0.00030612
15910.0 0.00030657
15930.0 0.00030703
15950.0 0.00030747
15970.0 0.00030793
15990.0 0.00030841
16010.0 0.00030887
16030.0 0.00030934
16050.0 0.00030983
16070.0 0.00031031
16090.0 0.00031079
16110.0 0.00031129
16130.0 0.00031179
16150.0 0.00031228
16170.0 0.00031278
16190.0 0.00031329
16210.0 0.0003138
16230.0 0.0003143
16250.0 0.00031482
16270.0 0.00031534
16290.0 0.00031585
16310.0 0.00031637
16330.0 0.0003169
16350.0 0.00031742
16370.0 0.00031793
16390.0 0.00031846
16410.0 0.00031899
16430.0 0.00031951
16450.0 0.00032004
16470.0 0.00032058
16490.0 0.0003211
16510.0 0.00032162
16530.0 0.00032215
16550.0 0.00032268
16570.0 0.00032319
16590.0 0.00032371
16610.0 0.00032425
16630.0 0.00032477
16650.0 0.00032528
16670.0 0.0003258
16690.0 0.00032632
16710.0 0.00032682
16730.0 0.00032733
16750.0 0.00032785
16770.0 0.00032835
16790.0 0.00032884
16810.0 0.00032934
16830.0 0.00032984
16850.0 0.00033032
16870.0 0.00033081
16890.0 0.0003313
16910.0 0.00033177
16930.0 0.00033223
16950.0 0.0003327
16970.0 0.00033316
16990.0 0.00033361
17010.0 0.00033406
17030.0 0.00033451
17050.0 0.00033494
17070.0 0.00033536
17090.0 0.00033579
17110.0 0.00033621
17130.0 0.0003366
17150.0 0.00033701
17170.0 0.00033741
17190.0 0.00033779
17210.0 0.00033816
17230.0 0.00033854
17250.0 0.0003389
17270.0 0.00033923
17290.0 0.00033958
17310.0 0.00033992
17330.0 0.00034023
17350.0 0.00034053
17370.0 0.00034085
17390.0 0.00034114
17410.0 0.00034141
17430.0 0.00034169
17450.0 0.00034196
17470.0 0.00034219
17490.0 0.00034243
17510.0 0.00034266
17530.0 0.00034287
17550.0 0.00034307
17570.0 0.00034326
17590.0 0.00034345
17610.0 0.00034361
17630.0 0.00034376
17650.0 0.00034391
17670.0 0.00034403
17690.0 0.00034413
17710.0 0.00034424
17730.0 0.00034433
17750.0 0.0003444
17770.0 0.00034445
17790.0 0.00034451
17810.0 0.00034454
17830.0 0.00034454
17850.0 0.00034455
17870.0 0.00034455
17890.0 0.00034451
17910.0 0.00034446
17930.0 0.00034442
17950.0 0.00034434
17970.0 0.00034425
17990.0 0.00034415
18010.0 0.00034404
18030.0 0.00034389
18050.0 0.00034374
18070.0 0.00034358
18090.0 0.0003434
18110.0 0.00034319
18130.0 0.00034298
18150.0 0.00034276
18170.0 0.0003425
18190.0 0.00034224
18210.0 0.00034197
18230.0 0.00034167
18250.0 0.00034134
18270.0 0.00034102
18290.0 0.00034068
18310.0 0.00034031
18330.0 0.00033993
18350.0 0.00033955
18370.0 0.00033913
18390.0 0.00033869
18410.0 0.00033826
18430.0 0.00033779
18450.0 0.0003373
18470.0 0.0003368
18490.0 0.0003363
18510.0 0.00033576
18530.0 0.00033521
18550.0 0.00033466
18570.0 0.00033408
18590.0 0.00033347
18610.0 0.00033286
18630.0 0.00033223
18650.0 0.00033157
18670.0 0.0003309
18690.0 0.00033023
18710.0 0.00032954
18730.0 0.00032881
18750.0 0.00032809
18770.0 0.00032735
18790.0 0.00032657
18810.0 0.00032579
18830.0 0.000325
18850.0 0.00032419
18870.0 0.00032335
18890.0 0.00032252
18910.0 0.00032167
18930.0 0.00032078
18950.0 0.00031989
18970.0 0.000319
18990.0 0.00031808
19010.0 0.00031712
19030.0 0.00031618
19050.0 0.00031522
19070.0 0.00031424
19090.0 0.00031324
19110.0 0.00031225
19130.0 0.00031122
19150.0 0.00031017
19170.0 0.00030913
19190.0 0.00030807
19210.0 0.00030698
19230.0 0.00030588
19250.0 0.00030479
19270.0 0.00030367
19290.0 0.00030253
19310.0 0.0003014
19330.0 0.00030025
19350.0 0.00029907
19370.0 0.00029789
19390.0 0.0002967
19410.0 0.0002955
19430.0 0.00029427
19450.0 0.00029306
19470.0 0.00029182
19490.0 0.00029057
19510.0 0.00028931
19530.0 0.00028805
19550.0 0.00028676
19570.0 0.00028546
19590.0 0.00028417
19610.0 0.00028286
19630.0 0.00028154
19650.0 0.00028021
19670.0 0.00027889
19690.0 0.00027753
19710.0 0.00027617
19730.0 0.00027482
19750.0 0.00027345
19770.0 0.00027206
19790.0 0.00027068
19810.0 0.00026929
19830.0 0.00026788
19850.0 0.00026646
19870.0 0.00026503
19890.0 0.00026355
19910.0 0.00026198
19930.0 0.00026032
19950.0 0.00025851
19970.0 0.00025644
19990.0 0.00025409
20010.0 0.0002515
20030.0 0.00024853
20050.0 0.00024522
20070.0 0.00024172
20090.0 0.00023804
20110.0 0.00023406
20130.0 0.00023008
20150.0 0.00022618
20170.0 0.0002222
20190.0 0.00021822
20210.0 0.00021442
20230.0 0.0002107
20250.0 0.00020696
20270.0 0.0002034
20290.0 0.00020003
20310.0 0.00019672
20330.0 0.00019348
20350.0 0.00019054
20370.0 0.00018772
20390.0 0.00018499
20410.0 0.00018246
20430.0 0.00018012
20450.0 0.00017785
20470.0 0.00017573
20490.0 0.0001738
20510.0 0.00017198
20530.0 0.00017027
20550.0 0.0001687
20570.0 0.00016725
20590.0 0.00016588
20610.0 0.0001646
20630.0 0.00016341
20650.0 0.00016229
20670.0 0.00016122
20690.0 0.0001602
20710.0 0.00015922
20730.0 0.00015827
20750.0 0.00015732
20770.0 0.00015637
20790.0 0.00015541
20810.0 0.00015443
20830.0 0.00015342
20850.0 0.00015236
20870.0 0.00015125
20890.0 0.00015007
20910.0 0.00014885
20930.0 0.00014756
20950.0 0.00014618
20970.0 0.00014476
20990.0 0.00014328
21010.0 0.0001417
21030.0 0.00014007
21050.0 0.00013841
21070.0 0.00013669
21090.0 0.0001349
21110.0 0.00013311
21130.0 0.00013132
21150.0 0.00012947
21170.0 0.00012762
21190.0 0.0001258
21210.0 0.00012396
21230.0 0.0001221
21250.0 0.00012031
21270.0 0.00011855
21290.0 0.00011678
21310.0 0.00011506
21330.0 0.00011342
21350.0 0.00011179
21370.0 0.00011019
21390.0 0.00010866
21410.0 0.00010718
21430.0 0.00010569
21450.0 0.00010428
21470.0 0.00010292
21490.0 0.00010158
21510.0 0.00010027
21530.0 9.9011e-05
21550.0 9.7779e-05
21570.0 9.6553e-05
21590.0 9.5365e-05
21610.0 9.421e-05
21630.0 9.3061e-05
21650.0 9.1916e-05
21670.0 9.082e-05
21690.0 8.9732e-05
21710.0 8.8643e-05
21730.0 8.7577e-05
21750.0 8.6534e-05
21770.0 8.5476e-05
21790.0 8.4429e-05
21810.0 8.3403e-05
21830.0 8.2378e-05
21850.0 8.1342e-05
21870.0 8.032e-05
21890.0 7.9312e-05
21910.0 7.8287e-05
21930.0 7.726e-05
21950.0 7.6249e-05
21970.0 7.523e-05
21990.0 7.4188e-05
22010.0 7.3167e-05
22030.0 7.2154e-05
22050.0 7.1127e-05
22070.0 7.0103e-05
22090.0 6.9106e-05
22110.0 6.8104e-05
22130.0 6.7099e-05
22150.0 6.6119e-05
22170.0 6.5157e-05
22190.0 6.4189e-05
22210.0 6.3238e-05
22230.0 6.2327e-05
22250.0 6.1421e-05
22270.0 6.0524e-05
22290.0 5.9659e-05
22310.0 5.8815e-05
22330.0 5.7967e-05
22350.0 5.7142e-05
22370.0 5.6343e-05
22390.0 5.5549e-05
22410.0 5.4754e-05
22430.0 5.3987e-05
22450.0 5.3231e-05
22470.0 5.2468e-05
22490.0 5.1715e-05
22510.0 5.0979e-05
22530.0 5.0231e-05
22550.0 4.9481e-05
22570.0 4.8749e-05
22590.0 4.802e-05
22610.0 4.7283e-05
22630.0 4.6555e-05
22650.0 4.5848e-05
22670.0 4.5136e-05
22690.0 4.4428e-05
22710.0 4.3744e-05
22730.0 4.3073e-05
22750.0 4.2398e-05
22770.0 4.1753e-05
22790.0 4.1136e-05
22810.0 4.053e-05
22830.0 3.9945e-05
22850.0 3.9396e-05
22870.0 3.887e-05
22890.0 3.8365e-05
22910.0 3.7898e-05
22930.0 3.7467e-05
22950.0 3.7065e-05
22970.0 3.6698e-05
22990.0 3.6372e-05
23010.0 3.6078e-05
23030.0 3.5819e-05
23050.0 3.559e-05
23070.0 3.5386e-05
23090.0 3.5211e-05
23110.0 3.5054e-05
23130.0 3.4908e-05
23150.0 3.4771e-05
