#lamb flux
1010.0 5.1109e-09
1030.0 5.6527e-09
1050.0 6.2758e-09
1070.0 6.9773e-09
1090.0 7.7741e-09
1110.0 8.5913e-09
1130.0 9.4139e-09
1150.0 1.0275e-08
1170.0 1.1164e-08
1190.0 1.2007e-08
1210.0 1.2861e-08
1230.0 1.3744e-08
1250.0 1.4608e-08
1270.0 1.5448e-08
1290.0 1.6336e-08
1310.0 1.7222e-08
1330.0 1.8073e-08
1350.0 1.8933e-08
1370.0 1.9821e-08
1390.0 2.0686e-08
1410.0 2.1526e-08
1430.0 2.2405e-08
1450.0 2.3283e-08
1470.0 2.4131e-08
1490.0 2.4989e-08
1510.0 2.5896e-08
1530.0 2.6754e-08
1550.0 2.7602e-08
1570.0 2.8479e-08
1590.0 2.9357e-08
1610.0 3.0196e-08
1630.0 3.1061e-08
1650.0 3.1949e-08
1670.0 3.2809e-08
1690.0 3.3659e-08
1710.0 3.4541e-08
1730.0 3.543e-08
1750.0 3.6266e-08
1770.0 3.7127e-08
1790.0 3.8007e-08
1810.0 3.886e-08
1830.0 3.97e-08
1850.0 4.0592e-08
1870.0 4.1462e-08
1890.0 4.2305e-08
1910.0 4.3166e-08
1930.0 4.405e-08
1950.0 4.4895e-08
1970.0 4.5732e-08
1990.0 4.6603e-08
2010.0 4.7461e-08
2030.0 4.829e-08
2050.0 4.9147e-08
2070.0 5.0027e-08
2090.0 5.086e-08
2110.0 5.1691e-08
2130.0 5.255e-08
2150.0 5.3393e-08
2170.0 5.4202e-08
2190.0 5.5043e-08
2210.0 5.5891e-08
2230.0 5.6706e-08
2250.0 5.7518e-08
2270.0 5.8368e-08
2290.0 5.9192e-08
2310.0 5.9985e-08
2330.0 6.0809e-08
2350.0 6.1656e-08
2370.0 6.2499e-08
2390.0 6.3413e-08
2410.0 6.4495e-08
2430.0 6.574e-08
2450.0 6.7227e-08
2470.0 6.9133e-08
2490.0 7.1536e-08
2510.0 7.4266e-08
2530.0 7.7554e-08
2550.0 8.1668e-08
2570.0 8.6787e-08
2590.0 9.3446e-08
2610.0 1.0342e-07
2630.0 1.1765e-07
2650.0 1.3626e-07
2670.0 1.6032e-07
2690.0 1.8989e-07
2710.0 2.2145e-07
2730.0 2.5264e-07
2750.0 2.8336e-07
2770.0 3.1008e-07
2790.0 3.313e-07
2810.0 3.4814e-07
2830.0 3.6129e-07
2850.0 3.7027e-07
2870.0 3.7687e-07
2890.0 3.8208e-07
2910.0 3.8625e-07
2930.0 3.8965e-07
2950.0 3.929e-07
2970.0 3.9608e-07
2990.0 3.9906e-07
3010.0 1.128e-05
3030.0 1.1364e-05
3050.0 1.1445e-05
3070.0 1.1515e-05
3090.0 1.1575e-05
3110.0 1.1612e-05
3130.0 1.1611e-05
3150.0 1.1559e-05
3170.0 1.1436e-05
3190.0 1.1241e-05
3210.0 1.0995e-05
3230.0 1.0712e-05
3250.0 1.0434e-05
3270.0 1.023e-05
3290.0 1.0117e-05
3310.0 1.0135e-05
3330.0 1.0282e-05
3350.0 1.0538e-05
3370.0 1.0902e-05
3390.0 1.1362e-05
3410.0 1.1862e-05
3430.0 1.2424e-05
3450.0 1.307e-05
3470.0 1.3776e-05
3490.0 1.4525e-05
3510.0 1.537e-05
3530.0 1.6276e-05
3550.0 1.7193e-05
3570.0 1.8149e-05
3590.0 1.919e-05
3610.0 2.0261e-05
3630.0 2.133e-05
3650.0 2.2439e-05
3670.0 2.3451e-05
3690.0 2.4207e-05
3710.0 2.4641e-05
3730.0 2.4655e-05
3750.0 2.4312e-05
3770.0 2.4177e-05
3790.0 2.4034e-05
3810.0 2.3443e-05
3830.0 2.4169e-05
3850.0 2.7023e-05
3870.0 2.859e-05
3890.0 2.846e-05
3910.0 2.8581e-05
3930.0 2.9334e-05
3950.0 2.9797e-05
3970.0 2.7148e-05
3990.0 2.3359e-05
4010.0 7.0011e-05
4030.0 8.4829e-05
4050.0 9.7251e-05
4070.0 8.4381e-05
4090.0 7.6424e-05
4110.0 6.7437e-05
4130.0 6.2069e-05
4150.0 6.6022e-05
4170.0 6.5035e-05
4190.0 6.9322e-05
4210.0 6.8688e-05
4230.0 7.2654e-05
4250.0 8.5951e-05
4270.0 8.6962e-05
4290.0 8.0134e-05
4310.0 8.3265e-05
4330.0 8.8569e-05
4350.0 9.9308e-05
4370.0 0.00011301
4390.0 0.00010605
4410.0 7.8354e-05
4430.0 6.6331e-05
4450.0 6.0951e-05
4470.0 4.6782e-05
4490.0 5.0484e-05
4510.0 7.6257e-05
4530.0 8.7947e-05
4550.0 8.871e-05
4570.0 9.9821e-05
4590.0 0.00011371
4610.0 0.00015336
4630.0 0.00019918
4650.0 0.00021601
4670.0 0.00020005
4690.0 0.00019088
4710.0 0.00020178
4730.0 0.00019042
4750.0 0.00014236
4770.0 0.00010443
4790.0 9.7516e-05
4810.0 9.2948e-05
4830.0 8.5093e-05
4850.0 9.3375e-05
4870.0 0.00012336
4890.0 0.00014547
4910.0 0.00012763
4930.0 0.00011294
4950.0 0.00012408
4970.0 0.00015912
4990.0 0.00021565
5010.0 0.00024808
5030.0 0.00021875
5050.0 0.000148
5070.0 9.7536e-05
5090.0 7.8648e-05
5110.0 8.0882e-05
5130.0 9.3351e-05
5150.0 0.00010114
5170.0 9.9621e-05
5190.0 9.3089e-05
5210.0 9.73e-05
5230.0 0.00010228
5250.0 0.00011023
5270.0 0.00011893
5290.0 0.00013181
5310.0 0.00015342
5330.0 0.00016978
5350.0 0.00016869
5370.0 0.0001772
5390.0 0.00020334
5410.0 0.00020316
5430.0 0.00017966
5450.0 0.00016507
5470.0 0.00017527
5490.0 0.00021414
5510.0 0.00026775
5530.0 0.00030709
5550.0 0.00029681
5570.0 0.00026982
5590.0 0.00023462
5610.0 0.00021637
5630.0 0.00020981
5650.0 0.00019982
5670.0 0.00018935
5690.0 0.00016928
5710.0 0.00016505
5730.0 0.00015204
5750.0 0.0001072
5770.0 8.363e-05
5790.0 9.4771e-05
5810.0 0.00010701
5830.0 0.00013132
5850.0 0.00015632
5870.0 0.00017344
5890.0 0.00017638
5910.0 0.00017304
5930.0 0.00016472
5950.0 0.00016785
5970.0 0.00019133
5990.0 0.0001799
6010.0 0.00015081
6030.0 0.00012741
6050.0 0.00011096
6070.0 0.00011035
6090.0 0.00011966
6110.0 0.0001338
6130.0 0.00013585
6150.0 0.00011688
6170.0 0.00010282
6190.0 0.00011571
6210.0 0.00015297
6230.0 0.00020074
6250.0 0.00021743
6270.0 0.00019
6290.0 0.00015986
6310.0 0.0001248
6330.0 9.5619e-05
6350.0 8.529e-05
6370.0 8.9691e-05
6390.0 0.00010369
6410.0 0.00012785
6430.0 0.0001493
6450.0 0.00017083
6470.0 0.00019561
6490.0 0.00023628
6510.0 0.00026419
6530.0 0.00025919
6550.0 0.00023438
6570.0 0.00019896
6590.0 0.00017941
6610.0 0.0001547
6630.0 0.00014015
6650.0 0.00013248
6670.0 0.00012871
6690.0 0.00011629
6710.0 0.00010571
6730.0 7.6142e-05
6750.0 7.5487e-05
6770.0 8.2049e-05
6790.0 9.4309e-05
6810.0 8.6295e-05
6830.0 8.886e-05
6850.0 8.3112e-05
6870.0 7.5923e-05
6890.0 7.2898e-05
6910.0 7.7682e-05
6930.0 7.276e-05
6950.0 7.4858e-05
6970.0 7.8737e-05
6990.0 8.9373e-05
7010.0 9.0134e-05
7030.0 9.1566e-05
7050.0 8.7323e-05
7070.0 8.3203e-05
7090.0 8.3447e-05
7110.0 8.586e-05
7130.0 9.2399e-05
7150.0 9.8135e-05
7170.0 0.00010829
7190.0 0.00011904
7210.0 0.00011697
7230.0 0.00012025
7250.0 0.00012922
7270.0 0.00014082
7290.0 0.00016714
7310.0 0.00018136
7330.0 0.0001753
7350.0 0.00015855
7370.0 0.00013795
7390.0 0.00013383
7410.0 0.00014222
7430.0 0.00015806
7450.0 0.00017216
7470.0 0.00017058
7490.0 0.00015553
7510.0 0.00017618
7530.0 0.00017425
7550.0 0.00015662
7570.0 0.00012235
7590.0 8.4111e-05
7610.0 7.2193e-05
7630.0 8.2025e-05
7650.0 9.6983e-05
7670.0 0.0001207
7690.0 0.00013282
7710.0 0.00013842
7730.0 0.00014546
7750.0 0.0001633
7770.0 0.00016586
7790.0 0.00015235
7810.0 0.00013901
7830.0 0.00014335
7850.0 0.00013935
7870.0 0.00012776
7890.0 0.00010735
7910.0 8.7257e-05
7930.0 8.3317e-05
7950.0 7.5905e-05
7970.0 7.0263e-05
7990.0 6.9862e-05
8010.0 5.1742e-06
8030.0 5.1069e-06
8050.0 5.038e-06
8070.0 5.104e-06
8090.0 5.4841e-06
8110.0 5.3907e-06
8130.0 4.4466e-06
8150.0 4.3305e-06
8170.0 3.7301e-06
8190.0 3.5351e-06
8210.0 4.5906e-06
8230.0 5.1111e-06
8250.0 4.6066e-06
8270.0 4.0094e-06
8290.0 3.9084e-06
8310.0 3.0081e-06
8330.0 2.0274e-06
8350.0 1.4388e-06
8370.0 9.0654e-07
8390.0 1.6571e-06
8410.0 1.931e-06
8430.0 2.3802e-06
8450.0 2.7951e-06
8470.0 3.4741e-06
8490.0 3.4496e-06
8510.0 3.3932e-06
8530.0 3.5413e-06
8550.0 4.7779e-06
8570.0 5.6563e-06
8590.0 6.1031e-06
8610.0 7.7095e-06
8630.0 9.2872e-06
8650.0 9.7154e-06
8670.0 1.0325e-05
8690.0 1.0382e-05
8710.0 9.4027e-06
8730.0 8.746e-06
8750.0 7.72e-06
8770.0 7.3251e-06
8790.0 7.1965e-06
8810.0 6.8958e-06
8830.0 5.5143e-06
8850.0 4.0368e-06
8870.0 3.0909e-06
8890.0 3.0219e-06
8910.0 3.4631e-06
8930.0 3.9391e-06
8950.0 4.0145e-06
8970.0 4.0335e-06
8990.0 3.5974e-06
9010.0 3.7699e-05
9030.0 3.416e-05
9050.0 3.4324e-05
9070.0 3.4595e-05
9090.0 3.4833e-05
9110.0 3.5126e-05
9130.0 3.5353e-05
9150.0 3.5529e-05
9170.0 3.5717e-05
9190.0 3.5917e-05
9210.0 3.6128e-05
9230.0 3.6351e-05
9250.0 3.6577e-05
9270.0 3.6811e-05
9290.0 3.7053e-05
9310.0 3.7296e-05
9330.0 3.7545e-05
9350.0 3.7802e-05
9370.0 3.8062e-05
9390.0 3.8325e-05
9410.0 3.8596e-05
9430.0 3.8874e-05
9450.0 3.9152e-05
9470.0 3.9435e-05
9490.0 3.9727e-05
9510.0 4.0022e-05
9530.0 4.0319e-05
9550.0 4.0625e-05
9570.0 4.0938e-05
9590.0 4.125e-05
9610.0 4.1569e-05
9630.0 4.1896e-05
9650.0 4.2226e-05
9670.0 4.2556e-05
9690.0 4.2895e-05
9710.0 4.3239e-05
9730.0 4.3585e-05
9750.0 4.3935e-05
9770.0 4.4296e-05
9790.0 4.4656e-05
9810.0 4.5018e-05
9830.0 4.5387e-05
9850.0 4.5762e-05
9870.0 4.6135e-05
9890.0 4.6514e-05
9910.0 4.69e-05
9930.0 4.7286e-05
9950.0 4.7674e-05
9970.0 4.8069e-05
9990.0 4.8469e-05
10010.0 4.2058e-05
10030.0 4.2403e-05
10050.0 4.2756e-05
10070.0 4.312e-05
10090.0 4.3463e-05
10110.0 4.3815e-05
10130.0 4.4169e-05
10150.0 4.4521e-05
10170.0 4.4877e-05
10190.0 4.524e-05
10210.0 4.5598e-05
10230.0 4.5956e-05
10250.0 4.6319e-05
10270.0 4.6682e-05
10290.0 4.704e-05
10310.0 4.7403e-05
10330.0 4.7769e-05
10350.0 4.8129e-05
10370.0 4.8488e-05
10390.0 4.8852e-05
10410.0 4.9213e-05
10430.0 4.9567e-05
10450.0 4.9925e-05
10470.0 5.0284e-05
10490.0 5.0637e-05
10510.0 5.0987e-05
10530.0 5.1343e-05
10550.0 5.1694e-05
10570.0 5.2037e-05
10590.0 5.2381e-05
10610.0 5.2726e-05
10630.0 5.3062e-05
10650.0 5.3395e-05
10670.0 5.3732e-05
10690.0 5.4062e-05
10710.0 5.4384e-05
10730.0 5.4708e-05
10750.0 5.5033e-05
10770.0 5.5343e-05
10790.0 5.5652e-05
10810.0 5.596e-05
10830.0 5.6258e-05
10850.0 5.6542e-05
10870.0 5.6816e-05
10890.0 5.7058e-05
10910.0 5.7244e-05
10930.0 5.7349e-05
10950.0 5.7325e-05
10970.0 5.7131e-05
10990.0 5.6749e-05
11010.0 5.6112e-05
11030.0 5.522e-05
11050.0 5.4132e-05
11070.0 5.2831e-05
11090.0 5.1268e-05
11110.0 4.9651e-05
11130.0 4.7964e-05
11150.0 4.6148e-05
11170.0 4.4277e-05
11190.0 4.2461e-05
11210.0 4.0586e-05
11230.0 3.8663e-05
11250.0 3.6826e-05
11270.0 3.5062e-05
11290.0 3.3294e-05
11310.0 3.162e-05
11330.0 3.0145e-05
11350.0 2.8752e-05
11370.0 2.7465e-05
11390.0 2.6351e-05
11410.0 2.5377e-05
11430.0 2.4472e-05
11450.0 2.3692e-05
11470.0 2.3017e-05
11490.0 2.2389e-05
11510.0 2.1785e-05
11530.0 2.1224e-05
11550.0 2.0666e-05
11570.0 2.0071e-05
11590.0 1.9456e-05
11610.0 1.8829e-05
11630.0 1.8146e-05
11650.0 1.7416e-05
11670.0 1.6696e-05
11690.0 1.5966e-05
11710.0 1.5213e-05
11730.0 1.4483e-05
11750.0 1.3807e-05
11770.0 1.3145e-05
11790.0 1.2524e-05
11810.0 1.1978e-05
11830.0 1.1489e-05
11850.0 1.1039e-05
11870.0 1.0662e-05
11890.0 1.0349e-05
11910.0 1.0074e-05
11930.0 9.8379e-06
11950.0 9.6411e-06
11970.0 9.4652e-06
11990.0 9.2989e-06
12010.0 9.1451e-06
12030.0 8.9969e-06
12050.0 8.8436e-06
12070.0 8.6842e-06
12090.0 8.5306e-06
12110.0 8.3746e-06
12130.0 8.2183e-06
12150.0 8.0742e-06
12170.0 7.9484e-06
12190.0 7.8396e-06
12210.0 7.7637e-06
12230.0 7.727e-06
12250.0 7.733e-06
12270.0 7.7913e-06
12290.0 7.9015e-06
12310.0 8.0596e-06
12330.0 8.2808e-06
12350.0 8.5569e-06
12370.0 8.8712e-06
12390.0 9.2337e-06
12410.0 9.6583e-06
12430.0 1.009e-05
12450.0 1.0537e-05
12470.0 1.1012e-05
12490.0 1.1489e-05
12510.0 1.1937e-05
12530.0 1.2383e-05
12550.0 1.2813e-05
12570.0 1.3192e-05
12590.0 1.3525e-05
12610.0 1.3822e-05
12630.0 1.4058e-05
12650.0 1.4222e-05
12670.0 1.4329e-05
12690.0 1.4372e-05
12710.0 1.4348e-05
12730.0 1.4265e-05
12750.0 1.4117e-05
12770.0 1.3913e-05
12790.0 1.3666e-05
12810.0 1.3371e-05
12830.0 1.303e-05
12850.0 1.2673e-05
12870.0 1.2296e-05
12890.0 1.1888e-05
12910.0 1.1473e-05
12930.0 1.1064e-05
12950.0 1.0637e-05
12970.0 1.0203e-05
12990.0 9.7918e-06
13010.0 9.3859e-06
13030.0 8.9755e-06
13050.0 8.5813e-06
13070.0 8.2121e-06
13090.0 7.8416e-06
13110.0 7.4831e-06
13130.0 7.1525e-06
13150.0 6.8395e-06
13170.0 6.5331e-06
13190.0 6.2604e-06
13210.0 6.0203e-06
13230.0 5.8009e-06
13250.0 5.612e-06
13270.0 5.4629e-06
13290.0 5.347e-06
13310.0 5.2672e-06
13330.0 5.2308e-06
13350.0 5.235e-06
13370.0 5.282e-06
13390.0 5.3742e-06
13410.0 5.4989e-06
13430.0 5.6609e-06
13450.0 5.8611e-06
13470.0 6.0833e-06
13490.0 6.3186e-06
13510.0 6.5841e-06
13530.0 6.8531e-06
13550.0 7.1107e-06
13570.0 7.3646e-06
13590.0 7.6121e-06
13610.0 7.8323e-06
13630.0 8.0245e-06
13650.0 8.2e-06
13670.0 8.3456e-06
13690.0 8.4583e-06
13710.0 8.5454e-06
13730.0 8.6077e-06
13750.0 8.6388e-06
13770.0 8.6458e-06
13790.0 8.6301e-06
13810.0 8.592e-06
13830.0 8.5357e-06
13850.0 8.4595e-06
13870.0 8.3633e-06
13890.0 8.2533e-06
13910.0 8.1293e-06
13930.0 7.9858e-06
13950.0 7.8292e-06
13970.0 7.669e-06
13990.0 7.4945e-06
14010.0 7.309e-06
14030.0 7.1239e-06
14050.0 6.9375e-06
14070.0 6.7406e-06
14090.0 6.552e-06
14110.0 6.3747e-06
14130.0 6.2028e-06
14150.0 6.0411e-06
14170.0 5.9031e-06
14190.0 5.7837e-06
14210.0 5.6824e-06
14230.0 5.6074e-06
14250.0 5.559e-06
14270.0 5.5355e-06
14290.0 5.5405e-06
14310.0 5.5714e-06
14330.0 5.6268e-06
14350.0 5.7084e-06
14370.0 5.8101e-06
14390.0 5.9256e-06
14410.0 6.0616e-06
14430.0 6.2109e-06
14450.0 6.3634e-06
14470.0 6.5216e-06
14490.0 6.6899e-06
14510.0 6.8508e-06
14530.0 7.0037e-06
14550.0 7.1564e-06
14570.0 7.3031e-06
14590.0 7.4366e-06
14610.0 7.5657e-06
14630.0 7.6935e-06
14650.0 7.8125e-06
14670.0 7.9275e-06
14690.0 8.0473e-06
14710.0 8.1733e-06
14730.0 8.2993e-06
14750.0 8.4389e-06
14770.0 8.5972e-06
14790.0 8.7689e-06
14810.0 8.9548e-06
14830.0 9.1752e-06
14850.0 9.4147e-06
14870.0 9.6646e-06
14890.0 9.9342e-06
14910.0 1.022e-05
14930.0 1.0496e-05
14950.0 1.0753e-05
14970.0 1.0997e-05
14990.0 1.1201e-05
15010.0 1.1357e-05
15030.0 1.1473e-05
15050.0 1.1549e-05
15070.0 1.1587e-05
15090.0 1.16e-05
15110.0 1.1596e-05
15130.0 1.1581e-05
15150.0 1.1562e-05
15170.0 1.1539e-05
15190.0 1.1514e-05
15210.0 1.1489e-05
15230.0 1.1465e-05
15250.0 1.1439e-05
15270.0 1.1414e-05
15290.0 1.1391e-05
15310.0 1.1366e-05
15330.0 1.1342e-05
15350.0 1.1318e-05
15370.0 1.1295e-05
15390.0 1.127e-05
15410.0 1.1246e-05
15430.0 1.1223e-05
15450.0 1.12e-05
15470.0 1.1175e-05
15490.0 1.1153e-05
15510.0 1.113e-05
15530.0 1.1106e-05
15550.0 1.1084e-05
15570.0 1.1061e-05
15590.0 1.1038e-05
15610.0 1.1015e-05
15630.0 1.0993e-05
15650.0 1.097e-05
15670.0 1.0947e-05
15690.0 1.0925e-05
15710.0 1.0903e-05
15730.0 1.0881e-05
15750.0 1.0858e-05
15770.0 1.0836e-05
15790.0 1.0815e-05
15810.0 1.0792e-05
15830.0 1.077e-05
15850.0 1.0748e-05
15870.0 1.0726e-05
15890.0 1.0704e-05
15910.0 1.0683e-05
15930.0 1.0661e-05
15950.0 1.0639e-05
15970.0 1.0617e-05
15990.0 1.0596e-05
16010.0 1.0574e-05
16030.0 1.0552e-05
16050.0 1.0531e-05
16070.0 1.0509e-05
16090.0 1.0487e-05
16110.0 1.0466e-05
16130.0 1.0445e-05
16150.0 1.0423e-05
16170.0 1.0401e-05
16190.0 1.038e-05
16210.0 1.0358e-05
16230.0 1.0336e-05
16250.0 1.0315e-05
16270.0 1.0294e-05
16290.0 1.0272e-05
16310.0 1.025e-05
16330.0 1.0229e-05
16350.0 1.0208e-05
16370.0 1.0185e-05
16390.0 1.0164e-05
16410.0 1.0143e-05
16430.0 1.012e-05
16450.0 1.0099e-05
16470.0 1.0078e-05
16490.0 1.0056e-05
16510.0 1.0033e-05
16530.0 1.0012e-05
16550.0 9.9904e-06
16570.0 9.9678e-06
16590.0 9.9456e-06
16610.0 9.9244e-06
16630.0 9.9023e-06
16650.0 9.8799e-06
16670.0 9.8583e-06
16690.0 9.8367e-06
16710.0 9.8136e-06
16730.0 9.7914e-06
16750.0 9.7697e-06
16770.0 9.7472e-06
16790.0 9.7242e-06
16810.0 9.7024e-06
16830.0 9.6804e-06
16850.0 9.6574e-06
16870.0 9.6349e-06
16890.0 9.613e-06
16910.0 9.5899e-06
16930.0 9.5664e-06
16950.0 9.5443e-06
16970.0 9.5217e-06
16990.0 9.4983e-06
17010.0 9.4755e-06
17030.0 9.4533e-06
17050.0 9.4298e-06
17070.0 9.4064e-06
17090.0 9.3837e-06
17110.0 9.3607e-06
17130.0 9.3365e-06
17150.0 9.3133e-06
17170.0 9.2906e-06
17190.0 9.2669e-06
17210.0 9.2431e-06
17230.0 9.2203e-06
17250.0 9.1967e-06
17270.0 9.1722e-06
17290.0 9.1487e-06
17310.0 9.1253e-06
17330.0 9.101e-06
17350.0 9.0765e-06
17370.0 9.0534e-06
17390.0 9.0294e-06
17410.0 9.0049e-06
17430.0 8.981e-06
17450.0 8.9574e-06
17470.0 8.9322e-06
17490.0 8.9076e-06
17510.0 8.8838e-06
17530.0 8.8593e-06
17550.0 8.8342e-06
17570.0 8.81e-06
17590.0 8.786e-06
17610.0 8.7607e-06
17630.0 8.7358e-06
17650.0 8.7116e-06
17670.0 8.6867e-06
17690.0 8.6607e-06
17710.0 8.6363e-06
17730.0 8.6117e-06
17750.0 8.5861e-06
17770.0 8.5609e-06
17790.0 8.5366e-06
17810.0 8.511e-06
17830.0 8.4851e-06
17850.0 8.4602e-06
17870.0 8.4351e-06
17890.0 8.4089e-06
17910.0 8.3832e-06
17930.0 8.3585e-06
17950.0 8.3327e-06
17970.0 8.3067e-06
17990.0 8.2815e-06
18010.0 8.2562e-06
18030.0 8.2295e-06
18050.0 8.2036e-06
18070.0 8.1783e-06
18090.0 8.1522e-06
18110.0 8.1256e-06
18130.0 8.1003e-06
18150.0 8.0746e-06
18170.0 8.048e-06
18190.0 8.0219e-06
18210.0 7.9964e-06
18230.0 7.9697e-06
18250.0 7.9428e-06
18270.0 7.9172e-06
18290.0 7.8911e-06
18310.0 7.8642e-06
18330.0 7.838e-06
18350.0 7.8124e-06
18370.0 7.7855e-06
18390.0 7.7587e-06
18410.0 7.7327e-06
18430.0 7.7063e-06
18450.0 7.6788e-06
18470.0 7.6524e-06
18490.0 7.6265e-06
18510.0 7.5995e-06
18530.0 7.5727e-06
18550.0 7.5468e-06
18570.0 7.52e-06
18590.0 7.4925e-06
18610.0 7.466e-06
18630.0 7.4397e-06
18650.0 7.4125e-06
18670.0 7.3852e-06
18690.0 7.3592e-06
18710.0 7.3324e-06
18730.0 7.3051e-06
18750.0 7.2786e-06
18770.0 7.2523e-06
18790.0 7.2245e-06
18810.0 7.1973e-06
18830.0 7.171e-06
18850.0 7.1441e-06
18870.0 7.1165e-06
18890.0 7.09e-06
18910.0 7.0636e-06
18930.0 7.0361e-06
18950.0 7.009e-06
18970.0 6.9826e-06
18990.0 6.9555e-06
19010.0 6.9274e-06
19030.0 6.9011e-06
19050.0 6.8745e-06
19070.0 6.847e-06
19090.0 6.82e-06
19110.0 6.7938e-06
19130.0 6.7664e-06
19150.0 6.7388e-06
19170.0 6.7122e-06
19190.0 6.6855e-06
19210.0 6.6577e-06
19230.0 6.6305e-06
19250.0 6.6044e-06
19270.0 6.5772e-06
19290.0 6.5498e-06
19310.0 6.5234e-06
19330.0 6.4967e-06
19350.0 6.4687e-06
19370.0 6.4418e-06
19390.0 6.4153e-06
19410.0 6.3881e-06
19430.0 6.3606e-06
19450.0 6.3343e-06
19470.0 6.3076e-06
19490.0 6.2801e-06
19510.0 6.2533e-06
19530.0 6.227e-06
19550.0 6.1995e-06
19570.0 6.1719e-06
19590.0 6.1457e-06
19610.0 6.119e-06
19630.0 6.0916e-06
19650.0 6.0649e-06
19670.0 6.0388e-06
19690.0 6.0114e-06
19710.0 5.9843e-06
19730.0 5.958e-06
19750.0 5.9312e-06
19770.0 5.9035e-06
19790.0 5.877e-06
19810.0 5.8508e-06
19830.0 5.8236e-06
19850.0 5.7962e-06
19870.0 5.7694e-06
19890.0 5.7406e-06
19910.0 5.7089e-06
19930.0 5.6751e-06
19950.0 5.6363e-06
19970.0 5.5886e-06
19990.0 5.5312e-06
20010.0 4.921e-06
20030.0 4.8498e-06
20050.0 4.7665e-06
20070.0 4.6762e-06
20090.0 4.579e-06
20110.0 4.4691e-06
20130.0 4.3578e-06
20150.0 4.2476e-06
20170.0 4.1333e-06
20190.0 4.0173e-06
20210.0 3.9078e-06
20230.0 3.801e-06
20250.0 3.694e-06
20270.0 3.5946e-06
20290.0 3.5039e-06
20310.0 3.4177e-06
20330.0 3.3372e-06
20350.0 3.2703e-06
20370.0 3.2109e-06
20390.0 3.1589e-06
20410.0 3.1169e-06
20430.0 3.0844e-06
20450.0 3.0588e-06
20470.0 3.0416e-06
20490.0 3.0323e-06
20510.0 3.0297e-06
20530.0 3.0334e-06
20550.0 3.0428e-06
20570.0 3.0564e-06
20590.0 3.0748e-06
20610.0 3.0972e-06
20630.0 3.1218e-06
20650.0 3.1493e-06
20670.0 3.1808e-06
20690.0 3.2129e-06
20710.0 3.246e-06
20730.0 3.2818e-06
20750.0 3.3191e-06
20770.0 3.3559e-06
20790.0 3.3944e-06
20810.0 3.4352e-06
20830.0 3.4758e-06
20850.0 3.5166e-06
20870.0 3.5603e-06
20890.0 3.6048e-06
20910.0 3.6477e-06
20930.0 3.6923e-06
20950.0 3.7385e-06
20970.0 3.7835e-06
20990.0 3.8279e-06
21010.0 3.8746e-06
21030.0 3.9203e-06
21050.0 3.9638e-06
21070.0 4.0073e-06
21090.0 4.051e-06
21110.0 4.0908e-06
21130.0 4.1281e-06
21150.0 4.1644e-06
21170.0 4.1972e-06
21190.0 4.2254e-06
21210.0 4.2508e-06
21230.0 4.2719e-06
21250.0 4.2869e-06
21270.0 4.2965e-06
21290.0 4.3e-06
21310.0 4.2966e-06
21330.0 4.2865e-06
21350.0 4.2687e-06
21370.0 4.2425e-06
21390.0 4.2093e-06
21410.0 4.1686e-06
21430.0 4.1171e-06
21450.0 4.0593e-06
21470.0 3.9963e-06
21490.0 3.9251e-06
21510.0 3.8469e-06
21530.0 3.7675e-06
21550.0 3.6844e-06
21570.0 3.5957e-06
21590.0 3.5084e-06
21610.0 3.4242e-06
21630.0 3.3398e-06
21650.0 3.2573e-06
21670.0 3.1859e-06
21690.0 3.12e-06
21710.0 3.0606e-06
21730.0 3.012e-06
21750.0 2.9745e-06
21770.0 2.9459e-06
21790.0 2.9295e-06
21810.0 2.9249e-06
21830.0 2.9314e-06
21850.0 2.9497e-06
21870.0 2.9783e-06
21890.0 3.0152e-06
21910.0 3.0626e-06
21930.0 3.1181e-06
21950.0 3.1783e-06
21970.0 3.2449e-06
21990.0 3.3197e-06
22010.0 3.3945e-06
22030.0 3.4704e-06
22050.0 3.5502e-06
22070.0 3.6303e-06
22090.0 3.7062e-06
22110.0 3.7828e-06
22130.0 3.8592e-06
22150.0 3.9305e-06
22170.0 3.9978e-06
22190.0 4.0645e-06
22210.0 4.1265e-06
22230.0 4.1811e-06
22250.0 4.2326e-06
22270.0 4.2799e-06
22290.0 4.3204e-06
22310.0 4.3551e-06
22330.0 4.3857e-06
22350.0 4.4093e-06
22370.0 4.426e-06
22390.0 4.4364e-06
22410.0 4.4397e-06
22430.0 4.4355e-06
22450.0 4.4241e-06
22470.0 4.4043e-06
22490.0 4.3766e-06
22510.0 4.342e-06
22530.0 4.2978e-06
22550.0 4.244e-06
22570.0 4.1843e-06
22590.0 4.117e-06
22610.0 4.0396e-06
22630.0 3.9558e-06
