#lamb flux
1010.0 0.00027618
1030.0 0.00036452
1050.0 0.00047033
1070.0 0.0005934
1090.0 0.00073608
1110.0 0.00088535
1130.0 0.001036
1150.0 0.0011903
1170.0 0.0013428
1190.0 0.0014774
1210.0 0.0016
1230.0 0.0017099
1250.0 0.0017967
1270.0 0.0018578
1290.0 0.001903
1310.0 0.0019245
1330.0 0.0019185
1350.0 0.0018939
1370.0 0.0018557
1390.0 0.001799
1410.0 0.0017272
1430.0 0.0016497
1450.0 0.0015654
1470.0 0.0014755
1490.0 0.0013856
1510.0 0.0012987
1530.0 0.0012108
1550.0 0.0011269
1570.0 0.0010496
1590.0 0.0009784
1610.0 0.00091277
1630.0 0.00085427
1650.0 0.00080231
1670.0 0.00075515
1690.0 0.00071316
1710.0 0.00067693
1730.0 0.00064507
1750.0 0.00061401
1770.0 0.00058682
1790.0 0.00056289
1810.0 0.00054116
1830.0 0.0005215
1850.0 0.00050299
1870.0 0.00048623
1890.0 0.00047074
1910.0 0.00045701
1930.0 0.00044498
1950.0 0.00043405
1970.0 0.00042468
1990.0 0.00041747
2010.0 0.00041223
2030.0 0.00040921
2050.0 0.0004094
2070.0 0.00041331
2090.0 0.00042098
2110.0 0.00043356
2130.0 0.00045212
2150.0 0.00047716
2170.0 0.00050937
2190.0 0.00055032
2210.0 0.00060071
2230.0 0.00066095
2250.0 0.00073213
2270.0 0.00081554
2290.0 0.00091091
2310.0 0.0010183
2330.0 0.001139
2350.0 0.0012726
2370.0 0.0014178
2390.0 0.0015748
2410.0 0.0017431
2430.0 0.0019192
2450.0 0.0021008
2470.0 0.0022856
2490.0 0.0024698
2510.0 0.0026501
2530.0 0.0028276
2550.0 0.003007
2570.0 0.0031991
2590.0 0.0034201
2610.0 0.0037059
2630.0 0.0040911
2650.0 0.0045946
2670.0 0.0052576
2690.0 0.0061192
2710.0 0.0071394
2730.0 0.0082865
2750.0 0.0095953
2770.0 0.010963
2790.0 0.012289
2810.0 0.013566
2830.0 0.014778
2850.0 0.015792
2870.0 0.016664
2890.0 0.01744
2910.0 0.018118
2930.0 0.018703
2950.0 0.01926
2970.0 0.019795
2990.0 0.020289
3010.0 0.02076
3030.0 0.021233
3050.0 0.021688
3070.0 0.022095
3090.0 0.022489
3110.0 0.022852
3130.0 0.023152
3150.0 0.023393
3170.0 0.023586
3190.0 0.023714
3210.0 0.023801
3230.0 0.023882
3250.0 0.023983
3270.0 0.024114
3290.0 0.024298
3310.0 0.024554
3330.0 0.024849
3350.0 0.025155
3370.0 0.025477
3390.0 0.025797
3410.0 0.026078
3430.0 0.026325
3450.0 0.026516
3470.0 0.027393
3490.0 0.027057
3510.0 0.024619
3530.0 0.026883
3550.0 0.030857
3570.0 0.033946
3590.0 0.03847
3610.0 0.041092
3630.0 0.042985
3650.0 0.038852
3670.0 0.033876
3690.0 0.032254
3710.0 0.035186
3730.0 0.040893
3750.0 0.042355
3770.0 0.042729
3790.0 0.043822
3810.0 0.040954
3830.0 0.036652
3850.0 0.033161
3870.0 0.030841
3890.0 0.03423
3910.0 0.037113
3930.0 0.037941
3950.0 0.038338
3970.0 0.040078
3990.0 0.042543
4010.0 0.043002
4030.0 0.040921
4050.0 0.037147
4070.0 0.03666
4090.0 0.038505
4110.0 0.040704
4130.0 0.039551
4150.0 0.03846
4170.0 0.038048
4190.0 0.039885
4210.0 0.039559
4230.0 0.036657
4250.0 0.032812
4270.0 0.029416
4290.0 0.026747
4310.0 0.024937
4330.0 0.024441
4350.0 0.026804
4370.0 0.027528
4390.0 0.028385
4410.0 0.029986
4430.0 0.03082
4450.0 0.030061
4470.0 0.029275
4490.0 0.029941
4510.0 0.030574
4530.0 0.031255
4550.0 0.031805
4570.0 0.03188
4590.0 0.032936
4610.0 0.033526
4630.0 0.034651
4650.0 0.035612
4670.0 0.035008
4690.0 0.032781
4710.0 0.029835
4730.0 0.028546
4750.0 0.028289
4770.0 0.027224
4790.0 0.025941
4810.0 0.025137
4830.0 0.025573
4850.0 0.025373
4870.0 0.025435
4890.0 0.024625
4910.0 0.022615
4930.0 0.022903
4950.0 0.021364
4970.0 0.019396
4990.0 0.018943
5010.0 0.017666
5030.0 0.016624
5050.0 0.016609
5070.0 0.018022
5090.0 0.018721
5110.0 0.020758
5130.0 0.021375
5150.0 0.022051
5170.0 0.022723
5190.0 0.022373
5210.0 0.022407
5230.0 0.022827
5250.0 0.022891
5270.0 0.023442
5290.0 0.023294
5310.0 0.02285
5330.0 0.02168
5350.0 0.02052
5370.0 0.019246
5390.0 0.019495
5410.0 0.019884
5430.0 0.019844
5450.0 0.019999
5470.0 0.019829
5490.0 0.019533
5510.0 0.019346
5530.0 0.018935
5550.0 0.019013
5570.0 0.019224
5590.0 0.019473
5610.0 0.019263
5630.0 0.018827
5650.0 0.018614
5670.0 0.018229
5690.0 0.017699
5710.0 0.017132
5730.0 0.01689
5750.0 0.016846
5770.0 0.016532
5790.0 0.016165
5810.0 0.016059
5830.0 0.016346
5850.0 0.016614
5870.0 0.016593
5890.0 0.01637
5910.0 0.016347
5930.0 0.016447
5950.0 0.016366
5970.0 0.016181
5990.0 0.015955
6010.0 0.016264
6030.0 0.016309
6050.0 0.015943
6070.0 0.015987
6090.0 0.015943
6110.0 0.015964
6130.0 0.015947
6150.0 0.015469
6170.0 0.014327
6190.0 0.013243
6210.0 0.01278
6230.0 0.012576
6250.0 0.012646
6270.0 0.013122
6290.0 0.013501
6310.0 0.013931
6330.0 0.014332
6350.0 0.01454
6370.0 0.014551
6390.0 0.014179
6410.0 0.013886
6430.0 0.01347
6450.0 0.013136
6470.0 0.012937
6490.0 0.012955
6510.0 0.012951
6530.0 0.012918
6550.0 0.012647
6570.0 0.012443
6590.0 0.012353
6610.0 0.012061
6630.0 0.011907
6650.0 0.011706
6670.0 0.011342
6690.0 0.010974
6710.0 0.010698
6730.0 0.010587
6750.0 0.010418
6770.0 0.010316
6790.0 0.010316
6810.0 0.010144
6830.0 0.010038
6850.0 0.009924
6870.0 0.0096839
6890.0 0.0096426
6910.0 0.0095572
6930.0 0.0093724
6950.0 0.0093761
6970.0 0.0092658
6990.0 0.009261
7010.0 0.0091087
7030.0 0.0090164
7050.0 0.0089689
7070.0 0.0087932
7090.0 0.0085241
7110.0 0.0083109
7130.0 0.0083264
7150.0 0.00843
7170.0 0.0084842
7190.0 0.0086405
7210.0 0.0087341
7230.0 0.0088277
7250.0 0.0089338
7270.0 0.0087464
7290.0 0.0086878
7310.0 0.0085175
7330.0 0.0081947
7350.0 0.008025
7370.0 0.0079
7390.0 0.0078044
7410.0 0.0078657
7430.0 0.0078136
7450.0 0.0076827
7470.0 0.0075334
7490.0 0.0072643
7510.0 0.0068058
7530.0 0.0070119
7550.0 0.0070649
7570.0 0.0069677
7590.0 0.0064594
7610.0 0.006605
7630.0 0.0065531
7650.0 0.0066033
7670.0 0.0065925
7690.0 0.0067528
7710.0 0.0066559
7730.0 0.0069345
7750.0 0.0070659
7770.0 0.0073901
7790.0 0.00767
7810.0 0.0078454
7830.0 0.0081477
7850.0 0.0081005
7870.0 0.0082431
7890.0 0.0081245
7910.0 0.0078588
7930.0 0.0077574
7950.0 0.0076829
7970.0 0.0076154
7990.0 0.0076299
8010.0 0.0069519
8030.0 0.0069095
8050.0 0.0067702
8070.0 0.0067056
8090.0 0.0064985
8110.0 0.0065477
8130.0 0.0066441
8150.0 0.0067695
8170.0 0.0067085
8190.0 0.0068232
8210.0 0.0067345
8230.0 0.0064042
8250.0 0.0063058
8270.0 0.0061952
8290.0 0.0060876
8310.0 0.0058489
8330.0 0.0059132
8350.0 0.0058929
8370.0 0.0059067
8390.0 0.0060081
8410.0 0.005966
8430.0 0.0060343
8450.0 0.0061009
8470.0 0.0061555
8490.0 0.0062337
8510.0 0.0061172
8530.0 0.0058936
8550.0 0.0059401
8570.0 0.0059401
8590.0 0.0057549
8610.0 0.0058757
8630.0 0.0057915
8650.0 0.0056797
8670.0 0.0056409
8690.0 0.005627
8710.0 0.005392
8730.0 0.0054789
8750.0 0.005296
8770.0 0.0052762
8790.0 0.0051254
8810.0 0.0050596
8830.0 0.0050661
8850.0 0.0048527
8870.0 0.0046114
8890.0 0.0045519
8910.0 0.0042957
8930.0 0.0039689
8950.0 0.0039677
8970.0 0.0038249
8990.0 0.0037949
9010.0 0.0037576
9030.0 0.0037311
9050.0 0.0037047
9070.0 0.0036781
9090.0 0.0036513
9110.0 0.0036242
9130.0 0.003597
9150.0 0.0035701
9170.0 0.0035431
9190.0 0.003516
9210.0 0.0034888
9230.0 0.0034615
9250.0 0.0034342
9270.0 0.0034068
9290.0 0.0033795
9310.0 0.0033522
9330.0 0.003325
9350.0 0.0032977
9370.0 0.0032705
9390.0 0.0032434
9410.0 0.0032164
9430.0 0.0031894
9450.0 0.0031625
9470.0 0.0031377
9490.0 0.003112
9510.0 0.0030843
9530.0 0.003057
9550.0 0.0030302
9570.0 0.0030038
9590.0 0.0029776
9610.0 0.0029516
9630.0 0.002926
9650.0 0.0029005
9670.0 0.0028751
9690.0 0.0028499
9710.0 0.002825
9730.0 0.0028002
9750.0 0.0027756
9770.0 0.0027514
9790.0 0.0027272
9810.0 0.0027032
9830.0 0.0026791
9850.0 0.0026521
9870.0 0.0026279
9890.0 0.0026069
9910.0 0.0025856
9930.0 0.0025595
9950.0 0.0025372
9970.0 0.0025171
9990.0 0.0024964
10010.0 0.0024757
10030.0 0.0024548
10050.0 0.0024339
10070.0 0.0024134
10090.0 0.0023932
10110.0 0.0023727
10130.0 0.0023524
10150.0 0.0023328
10170.0 0.0023133
10190.0 0.0022938
10210.0 0.0022749
10230.0 0.0022563
10250.0 0.0022377
10270.0 0.0022193
10290.0 0.0022016
10310.0 0.0021838
10330.0 0.0021659
10350.0 0.0021488
10370.0 0.0021319
10390.0 0.0021149
10410.0 0.002098
10430.0 0.0020817
10450.0 0.0020659
10470.0 0.00205
10490.0 0.0020346
10510.0 0.0020195
10530.0 0.0020041
10550.0 0.0019891
10570.0 0.0019747
10590.0 0.0019602
10610.0 0.0019458
10630.0 0.001932
10650.0 0.0019184
10670.0 0.0019046
10690.0 0.0018912
10710.0 0.0018782
10730.0 0.0018652
10750.0 0.0018521
10770.0 0.0018398
10790.0 0.0018276
10810.0 0.0018153
10830.0 0.0018033
10850.0 0.0017919
10870.0 0.0017801
10890.0 0.0017686
10910.0 0.0017577
10930.0 0.001747
10950.0 0.0017364
10970.0 0.0017264
10990.0 0.0017172
11010.0 0.0018331
11030.0 0.0018261
11050.0 0.0018193
11070.0 0.0018121
11090.0 0.0018042
11110.0 0.0017961
11130.0 0.0017875
11150.0 0.0017782
11170.0 0.0017683
11190.0 0.0017584
11210.0 0.0017481
11230.0 0.0017372
11250.0 0.0017267
11270.0 0.0017165
11290.0 0.001706
11310.0 0.0016958
11330.0 0.0016867
11350.0 0.0016778
11370.0 0.0016692
11390.0 0.0016613
11410.0 0.001654
11430.0 0.0016466
11450.0 0.0016397
11470.0 0.0016331
11490.0 0.0016265
11510.0 0.0016195
11530.0 0.0016127
11550.0 0.0016058
11570.0 0.0015982
11590.0 0.0015904
11610.0 0.0015827
11630.0 0.0015743
11650.0 0.0015654
11670.0 0.0015569
11690.0 0.0015483
11710.0 0.0015393
11730.0 0.0015305
11750.0 0.0015223
11770.0 0.0015138
11790.0 0.0015052
11810.0 0.0014973
11830.0 0.0014895
11850.0 0.0014814
11870.0 0.0014738
11890.0 0.0014669
11910.0 0.0014599
11930.0 0.0014531
11950.0 0.0014472
11970.0 0.0014417
11990.0 0.0014365
12010.0 0.0014322
12030.0 0.0014288
12050.0 0.0014261
12070.0 0.0014242
12090.0 0.0014235
12110.0 0.0014236
12130.0 0.0014246
12150.0 0.0014264
12170.0 0.001429
12190.0 0.0014323
12210.0 0.0014362
12230.0 0.0014405
12250.0 0.0014451
12270.0 0.0014499
12290.0 0.0014548
12310.0 0.0014596
12330.0 0.0014644
12350.0 0.0014689
12370.0 0.001473
12390.0 0.0014767
12410.0 0.0014799
12430.0 0.0014825
12450.0 0.0014844
12470.0 0.0014854
12490.0 0.0014856
12510.0 0.0014849
12530.0 0.0014832
12550.0 0.0014802
12570.0 0.0014763
12590.0 0.0014714
12610.0 0.0014651
12630.0 0.0014576
12650.0 0.0014497
12670.0 0.0014406
12690.0 0.0014305
12710.0 0.00142
12730.0 0.0014091
12750.0 0.001397
12770.0 0.0013849
12790.0 0.001373
12810.0 0.0013607
12830.0 0.001348
12850.0 0.0013362
12870.0 0.0013247
12890.0 0.001313
12910.0 0.001302
12930.0 0.0012919
12950.0 0.0012818
12970.0 0.0012721
12990.0 0.0012635
13010.0 0.0012554
13030.0 0.0012475
13050.0 0.0012401
13070.0 0.0012335
13090.0 0.0012269
13110.0 0.0012205
13130.0 0.0012146
13150.0 0.0012089
13170.0 0.0012031
13190.0 0.0011976
13210.0 0.0011925
13230.0 0.0011873
13250.0 0.0011821
13270.0 0.0011772
13290.0 0.0011722
13310.0 0.001167
13330.0 0.0011618
13350.0 0.0011566
13370.0 0.0011511
13390.0 0.0011452
13410.0 0.0011393
13430.0 0.0011331
13450.0 0.0011264
13470.0 0.0011195
13490.0 0.0011125
13510.0 0.0011047
13530.0 0.0010967
13550.0 0.0010887
13570.0 0.0010804
13590.0 0.0010716
13610.0 0.0010629
13630.0 0.0010542
13650.0 0.0010449
13670.0 0.0010356
13690.0 0.0010264
13710.0 0.001017
13730.0 0.0010071
13750.0 0.00099752
13770.0 0.00098797
13790.0 0.00097808
13810.0 0.00096819
13830.0 0.00095868
13850.0 0.00094889
13870.0 0.00093897
13890.0 0.00092941
13910.0 0.00092002
13930.0 0.0009104
13950.0 0.00090097
13970.0 0.00089209
13990.0 0.00088312
14010.0 0.00087419
14030.0 0.00086565
14050.0 0.00085732
14070.0 0.00084873
14090.0 0.00084047
14110.0 0.0008325
14130.0 0.00082447
14150.0 0.00081637
14170.0 0.00080865
14190.0 0.000801
14210.0 0.0007932
14230.0 0.00078556
14250.0 0.00077819
14270.0 0.00077068
14290.0 0.00076319
14310.0 0.00075613
14330.0 0.00074919
14350.0 0.00074227
14370.0 0.00073565
14390.0 0.0007294
14410.0 0.00072316
14430.0 0.00071711
14450.0 0.0007114
14470.0 0.00070586
14490.0 0.0007003
14510.0 0.00069502
14530.0 0.00068994
14550.0 0.00068485
14570.0 0.00067981
14590.0 0.00067495
14610.0 0.00067007
14630.0 0.00066511
14650.0 0.00066028
14670.0 0.00065553
14690.0 0.0006507
14710.0 0.00064587
14730.0 0.00064125
14750.0 0.00063661
14770.0 0.00063194
14790.0 0.00062741
14810.0 0.00062299
14830.0 0.00061846
14850.0 0.00061403
14870.0 0.00060974
14890.0 0.00060546
14910.0 0.00060116
14930.0 0.00059702
14950.0 0.00059302
14970.0 0.00058903
14990.0 0.00058522
15010.0 0.00058163
15030.0 0.00057816
15050.0 0.00057476
15070.0 0.00057159
15090.0 0.00056852
15110.0 0.00056546
15130.0 0.00056247
15150.0 0.00055957
15170.0 0.00055663
15190.0 0.0005537
15210.0 0.00055082
15230.0 0.00054797
15250.0 0.00054508
15270.0 0.00054222
15290.0 0.00053944
15310.0 0.00053663
15330.0 0.00053382
15350.0 0.00053107
15370.0 0.00052834
15390.0 0.00052556
15410.0 0.00052284
15430.0 0.00052016
15450.0 0.00051748
15470.0 0.00051478
15490.0 0.00051216
15510.0 0.00050956
15530.0 0.00050693
15550.0 0.00050435
15570.0 0.00050182
15590.0 0.00049926
15610.0 0.0004967
15630.0 0.00049422
15650.0 0.00049175
15670.0 0.00048926
15690.0 0.00048682
15710.0 0.00048444
15730.0 0.00048202
15750.0 0.00047963
15770.0 0.00047729
15790.0 0.00047497
15810.0 0.00047261
15830.0 0.00047032
15850.0 0.00046807
15870.0 0.00046581
15890.0 0.00046357
15910.0 0.00046139
15930.0 0.00045921
15950.0 0.00045701
15970.0 0.00045487
15990.0 0.00045277
16010.0 0.00045065
16030.0 0.00044854
16050.0 0.00044652
16070.0 0.00044449
16090.0 0.00044245
16110.0 0.00044046
16130.0 0.00043852
16150.0 0.00043653
16170.0 0.00043458
16190.0 0.00043269
16210.0 0.0004308
16230.0 0.0004289
16250.0 0.00042706
16270.0 0.00042526
16290.0 0.00042343
16310.0 0.00042163
16330.0 0.00041988
16350.0 0.00041813
16370.0 0.00041635
16390.0 0.00041465
16410.0 0.00041298
16430.0 0.00041129
16450.0 0.00040963
16470.0 0.00040803
16490.0 0.0004064
16510.0 0.00040477
16530.0 0.00040321
16550.0 0.00040166
16570.0 0.00040008
16590.0 0.00039854
16610.0 0.00039707
16630.0 0.00039557
16650.0 0.00039408
16670.0 0.00039264
16690.0 0.00039122
16710.0 0.00038975
16730.0 0.00038834
16750.0 0.00038697
16770.0 0.00038558
16790.0 0.0003842
16810.0 0.00038288
16830.0 0.00038156
16850.0 0.00038022
16870.0 0.00037893
16890.0 0.00037767
16910.0 0.00037638
16930.0 0.00037509
16950.0 0.00037387
16970.0 0.00037265
16990.0 0.00037141
17010.0 0.00037021
17030.0 0.00036905
17050.0 0.00036786
17070.0 0.00036668
17090.0 0.00036555
17110.0 0.00036442
17130.0 0.00036325
17150.0 0.00036214
17170.0 0.00036106
17190.0 0.00035995
17210.0 0.00035886
17230.0 0.00035782
17250.0 0.00035676
17270.0 0.00035567
17290.0 0.00035464
17310.0 0.00035362
17330.0 0.00035258
17350.0 0.00035154
17370.0 0.00035057
17390.0 0.00034958
17410.0 0.00034858
17430.0 0.00034761
17450.0 0.00034667
17470.0 0.00034566
17490.0 0.0003447
17510.0 0.00034377
17530.0 0.00034283
17550.0 0.00034187
17570.0 0.00034096
17590.0 0.00034006
17610.0 0.00033912
17630.0 0.00033821
17650.0 0.00033733
17670.0 0.00033643
17690.0 0.00033549
17710.0 0.00033462
17730.0 0.00033376
17750.0 0.00033286
17770.0 0.00033198
17790.0 0.00033114
17810.0 0.00033026
17830.0 0.00032937
17850.0 0.00032853
17870.0 0.00032768
17890.0 0.0003268
17910.0 0.00032593
17930.0 0.00032512
17950.0 0.00032427
17970.0 0.0003234
17990.0 0.00032258
18010.0 0.00032176
18030.0 0.00032087
18050.0 0.00032003
18070.0 0.00031921
18090.0 0.00031836
18110.0 0.0003175
18130.0 0.00031669
18150.0 0.00031586
18170.0 0.000315
18190.0 0.00031416
18210.0 0.00031335
18230.0 0.00031249
18250.0 0.00031162
18270.0 0.0003108
18290.0 0.00030996
18310.0 0.00030909
18330.0 0.00030825
18350.0 0.00030744
18370.0 0.00030656
18390.0 0.00030569
18410.0 0.00030486
18430.0 0.000304
18450.0 0.0003031
18470.0 0.00030224
18490.0 0.0003014
18510.0 0.00030051
18530.0 0.00029962
18550.0 0.00029878
18570.0 0.00029789
18590.0 0.00029697
18610.0 0.00029608
18630.0 0.00029521
18650.0 0.00029428
18670.0 0.00029335
18690.0 0.00029248
18710.0 0.00029157
18730.0 0.00029062
18750.0 0.00028971
18770.0 0.00028881
18790.0 0.00028783
18810.0 0.00028687
18830.0 0.00028595
18850.0 0.00028499
18870.0 0.00028401
18890.0 0.00028306
18910.0 0.00028211
18930.0 0.00028111
18950.0 0.00028011
18970.0 0.00027915
18990.0 0.00027814
19010.0 0.00027709
19030.0 0.0002761
19050.0 0.0002751
19070.0 0.00027405
19090.0 0.00027302
19110.0 0.00027202
19130.0 0.00027095
19150.0 0.00026987
19170.0 0.00026882
19190.0 0.00026777
19210.0 0.00026666
19230.0 0.00026556
19250.0 0.00026451
19270.0 0.0002634
19290.0 0.00026228
19310.0 0.00026118
19330.0 0.00026008
19350.0 0.0002589
19370.0 0.00025776
19390.0 0.00025664
19410.0 0.00025548
19430.0 0.00025429
19450.0 0.00025315
19470.0 0.00025199
19490.0 0.00025078
19510.0 0.00024959
19530.0 0.00024842
19550.0 0.00024718
19570.0 0.00024594
19590.0 0.00024474
19610.0 0.00024352
19630.0 0.00024225
19650.0 0.00024102
19670.0 0.0002398
19690.0 0.00023851
19710.0 0.00023723
19730.0 0.00023597
19750.0 0.00023469
19770.0 0.00023336
19790.0 0.00023207
19810.0 0.00023079
19830.0 0.00022947
19850.0 0.00022814
19870.0 0.00022685
19890.0 0.00022552
19910.0 0.00022415
19930.0 0.00022284
19950.0 0.00022155
19970.0 0.00022023
19990.0 0.00021894
20010.0 0.00021773
20030.0 0.00021651
20050.0 0.00021529
20070.0 0.00021413
20090.0 0.00021299
20110.0 0.00021179
20130.0 0.00021063
20150.0 0.0002095
20170.0 0.00020834
20190.0 0.00020716
20210.0 0.00020602
20230.0 0.00020488
20250.0 0.00020371
20270.0 0.00020256
20290.0 0.00020144
20310.0 0.00020031
20330.0 0.00019917
20350.0 0.00019811
20370.0 0.00019705
20390.0 0.000196
20410.0 0.00019499
20430.0 0.00019402
20450.0 0.00019306
20470.0 0.00019213
20490.0 0.00019125
20510.0 0.00019041
20530.0 0.00018959
20550.0 0.00018882
20570.0 0.00018811
20590.0 0.00018744
20610.0 0.00018681
20630.0 0.00018623
20650.0 0.00018571
20670.0 0.00018522
20690.0 0.00018479
20710.0 0.00018439
20730.0 0.00018403
20750.0 0.0001837
20770.0 0.00018338
20790.0 0.00018307
20810.0 0.00018276
20830.0 0.00018244
20850.0 0.00018209
20870.0 0.00018171
20890.0 0.00018128
20910.0 0.0001808
20930.0 0.00018025
20950.0 0.00017963
20970.0 0.00017894
20990.0 0.00017818
21010.0 0.00017732
21030.0 0.00017638
21050.0 0.00017538
21070.0 0.00017429
21090.0 0.00017311
21110.0 0.00017189
21130.0 0.00017063
21150.0 0.00016929
21170.0 0.00016791
21190.0 0.00016654
21210.0 0.00016511
21230.0 0.00016364
21250.0 0.0001622
21270.0 0.00016076
21290.0 0.00015929
21310.0 0.00015783
21330.0 0.00015641
21350.0 0.00015496
21370.0 0.0001535
21390.0 0.00015208
21410.0 0.00015065
21430.0 0.00014918
21450.0 0.00014772
21470.0 0.00014628
21490.0 0.00014481
21510.0 0.00014331
21530.0 0.00014183
21550.0 0.00014033
21570.0 0.00013879
21590.0 0.00013725
21610.0 0.00013573
21630.0 0.00013417
21650.0 0.00013259
21670.0 0.00013106
21690.0 0.00012953
21710.0 0.00012798
21730.0 0.00012646
21750.0 0.00012498
21770.0 0.00012346
21790.0 0.00012197
21810.0 0.00012054
21830.0 0.00011911
21850.0 0.00011768
21870.0 0.0001163
21890.0 0.00011496
21910.0 0.00011361
21930.0 0.00011228
21950.0 0.000111
21970.0 0.00010971
21990.0 0.00010841
22010.0 0.00010715
22030.0 0.00010591
22050.0 0.00010465
22070.0 0.00010339
22090.0 0.00010216
22110.0 0.00010092
22130.0 9.9659e-05
22150.0 9.8417e-05
22170.0 9.7183e-05
22190.0 9.5912e-05
22210.0 9.4642e-05
22230.0 9.341e-05
22250.0 9.216e-05
22270.0 9.0895e-05
22290.0 8.966e-05
22310.0 8.844e-05
22330.0 8.7187e-05
22350.0 8.5958e-05
22370.0 8.4764e-05
22390.0 8.3568e-05
22410.0 8.2364e-05
22430.0 8.1216e-05
22450.0 8.0092e-05
22470.0 7.8965e-05
22490.0 7.787e-05
22510.0 7.6825e-05
22530.0 7.5779e-05
22550.0 7.4751e-05
22570.0 7.378e-05
22590.0 7.2836e-05
22610.0 7.1901e-05
22630.0 7.1003e-05
22650.0 7.0154e-05
22670.0 6.9311e-05
22690.0 6.8489e-05
22710.0 6.7707e-05
22730.0 6.6948e-05
22750.0 6.6188e-05
22770.0 6.5466e-05
22790.0 6.4777e-05
22810.0 6.4098e-05
22830.0 6.3436e-05
22850.0 6.2813e-05
22870.0 6.2208e-05
22890.0 6.1616e-05
22910.0 6.1058e-05
22930.0 6.0532e-05
22950.0 6.0026e-05
22970.0 5.9545e-05
22990.0 5.9108e-05
23010.0 5.8699e-05
23030.0 5.8318e-05
23050.0 5.7974e-05
23070.0 5.7666e-05
23090.0 5.7389e-05
23110.0 5.715e-05
23130.0 5.6945e-05
23150.0 5.6776e-05
23170.0 5.6643e-05
23190.0 5.6542e-05
23210.0 5.6468e-05
23230.0 5.6428e-05
23250.0 5.6414e-05
23270.0 5.6417e-05
23290.0 5.644e-05
23310.0 5.6488e-05
23330.0 5.6533e-05
23350.0 5.6581e-05
23370.0 5.6634e-05
23390.0 5.6681e-05
23410.0 5.6712e-05
23430.0 5.6733e-05
23450.0 5.6916e-05
23470.0 5.7122e-05
