#lamb flux
1010.0 2.3858e-05
1030.0 2.4866e-05
1050.0 2.6036e-05
1070.0 2.7357e-05
1090.0 2.8858e-05
1110.0 3.0406e-05
1130.0 3.1971e-05
1150.0 3.362e-05
1170.0 3.5331e-05
1190.0 3.6967e-05
1210.0 3.8637e-05
1230.0 4.0375e-05
1250.0 4.2094e-05
1270.0 4.3782e-05
1290.0 4.5576e-05
1310.0 4.7387e-05
1330.0 4.9147e-05
1350.0 5.0945e-05
1370.0 5.2817e-05
1390.0 5.4668e-05
1410.0 5.6491e-05
1430.0 5.841e-05
1450.0 6.0352e-05
1470.0 6.2258e-05
1490.0 6.4204e-05
1510.0 6.6267e-05
1530.0 6.8256e-05
1550.0 7.0239e-05
1570.0 7.2297e-05
1590.0 7.437e-05
1610.0 7.6374e-05
1630.0 7.8439e-05
1650.0 8.0553e-05
1670.0 8.2608e-05
1690.0 8.4634e-05
1710.0 8.6719e-05
1730.0 8.88e-05
1750.0 9.0749e-05
1770.0 9.2725e-05
1790.0 9.4708e-05
1810.0 9.6595e-05
1830.0 9.8412e-05
1850.0 0.00010029
1870.0 0.00010208
1890.0 0.00010375
1910.0 0.0001054
1930.0 0.00010703
1950.0 0.00010853
1970.0 0.00010994
1990.0 0.00011137
2010.0 0.00011271
2030.0 0.00011394
2050.0 0.00011518
2070.0 0.00011641
2090.0 0.00011752
2110.0 0.00011859
2130.0 0.0001197
2150.0 0.00012078
2170.0 0.00012179
2190.0 0.00012288
2210.0 0.00012401
2230.0 0.00012512
2250.0 0.00012629
2270.0 0.0001276
2290.0 0.00012895
2310.0 0.00013033
2330.0 0.00013189
2350.0 0.00013359
2370.0 0.00013538
2390.0 0.00013734
2410.0 0.00013956
2430.0 0.00014192
2450.0 0.00014444
2470.0 0.00014719
2490.0 0.00015015
2510.0 0.00015326
2530.0 0.00015682
2550.0 0.00016133
2570.0 0.00016747
2590.0 0.00017618
2610.0 0.0001896
2630.0 0.00020892
2650.0 0.00023396
2670.0 0.00026558
2690.0 0.00030362
2710.0 0.00034435
2730.0 0.00038567
2750.0 0.00042834
2770.0 0.00046947
2790.0 0.00050805
2810.0 0.00054597
2830.0 0.0005849
2850.0 0.000623
2870.0 0.00066219
2890.0 0.00070401
2910.0 0.00074781
2930.0 0.00079251
2950.0 0.00084023
2970.0 0.00089071
2990.0 0.00094218
3010.0 0.0017254
3030.0 0.0018217
3050.0 0.0019184
3070.0 0.0020085
3090.0 0.0020883
3110.0 0.002141
3130.0 0.0021459
3150.0 0.0020797
3170.0 0.0018959
3190.0 0.001587
3210.0 0.0011557
3230.0 0.00066549
3250.0 0.0011667
3270.0 0.00050429
3290.0 0.0016892
3310.0 0.00033616
3330.0 0.00034295
3350.0 0.00052583
3370.0 0.00073408
3390.0 0.00095493
3410.0 0.0011749
3430.0 0.0014046
3450.0 0.0016335
3470.0 0.0018434
3490.0 0.0019809
3510.0 0.0024659
3530.0 0.0033774
3550.0 0.0033857
3570.0 0.002875
3590.0 0.0041199
3610.0 0.0026557
3630.0 0.0042815
3650.0 0.00486
3670.0 0.0062476
3690.0 0.0059739
3710.0 0.0042631
3730.0 0.0056947
3750.0 0.0059216
3770.0 0.0061005
3790.0 0.005519
3810.0 0.0048505
3830.0 0.0067065
3850.0 0.0072145
3870.0 0.0089599
3890.0 0.0084563
3910.0 0.0076774
3930.0 0.0083104
3950.0 0.0093533
3970.0 0.012198
3990.0 0.0098229
4010.0 0.0064907
4030.0 0.0087417
4050.0 0.0095613
4070.0 0.010865
4090.0 0.0095353
4110.0 0.0065208
4130.0 0.0085966
4150.0 0.0079021
4170.0 0.0083739
4190.0 0.0083329
4210.0 0.010349
4230.0 0.0072385
4250.0 0.0086493
4270.0 0.0086398
4290.0 0.0087352
4310.0 0.01064
4330.0 0.010911
4350.0 0.0084615
4370.0 0.0073272
4390.0 0.0088899
4410.0 0.0090559
4430.0 0.006998
4450.0 0.0070409
4470.0 0.0081595
4490.0 0.0060892
4510.0 0.0074117
4530.0 0.0080039
4550.0 0.010701
4570.0 0.01567
4590.0 0.015218
4610.0 0.010183
4630.0 0.016189
4650.0 0.023165
4670.0 0.021428
4690.0 0.012733
4710.0 0.013758
4730.0 0.017775
4750.0 0.015889
4770.0 0.012033
4790.0 0.0083206
4810.0 0.01201
4830.0 0.013853
4850.0 0.012382
4870.0 0.0044897
4890.0 0.013291
4910.0 0.018428
4930.0 0.019762
4950.0 0.019492
4970.0 0.012307
4990.0 0.014119
5010.0 0.016407
5030.0 0.017826
5050.0 0.017569
5070.0 0.012711
5090.0 0.010433
5110.0 0.0097587
5130.0 0.0087041
5150.0 0.0099487
5170.0 0.0086731
5190.0 0.010741
5210.0 0.010719
5230.0 0.011707
5250.0 0.014818
5270.0 0.012566
5290.0 0.012318
5310.0 0.017942
5330.0 0.02074
5350.0 0.017518
5370.0 0.015278
5390.0 0.017263
5410.0 0.021532
5430.0 0.023654
5450.0 0.025313
5470.0 0.025468
5490.0 0.024937
5510.0 0.029044
5530.0 0.03005
5550.0 0.032071
5570.0 0.033914
5590.0 0.033548
5610.0 0.031738
5630.0 0.030578
5650.0 0.031085
5670.0 0.030701
5690.0 0.026209
5710.0 0.025078
5730.0 0.025288
5750.0 0.027482
5770.0 0.023833
5790.0 0.021808
5810.0 0.022063
5830.0 0.023111
5850.0 0.021105
5870.0 0.021175
5890.0 0.025054
5910.0 0.023851
5930.0 0.019582
5950.0 0.016997
5970.0 0.018106
5990.0 0.016663
6010.0 0.015692
6030.0 0.016063
6050.0 0.015069
6070.0 0.011405
6090.0 0.010259
6110.0 0.0132
6130.0 0.015206
6150.0 0.016003
6170.0 0.015612
6190.0 0.014706
6210.0 0.014411
6230.0 0.016652
6250.0 0.015393
6270.0 0.014078
6290.0 0.012935
6310.0 0.012235
6330.0 0.011643
6350.0 0.010205
6370.0 0.01014
6390.0 0.012017
6410.0 0.014925
6430.0 0.017138
6450.0 0.016162
6470.0 0.015859
6490.0 0.019745
6510.0 0.02259
6530.0 0.021402
6550.0 0.020601
6570.0 0.020918
6590.0 0.020266
6610.0 0.022014
6630.0 0.020729
6650.0 0.018371
6670.0 0.016559
6690.0 0.016035
6710.0 0.019581
6730.0 0.018008
6750.0 0.015504
6770.0 0.013982
6790.0 0.014654
6810.0 0.016207
6830.0 0.015819
6850.0 0.014399
6870.0 0.014871
6890.0 0.014601
6910.0 0.013785
6930.0 0.015792
6950.0 0.014653
6970.0 0.013743
6990.0 0.013728
7010.0 0.01314
7030.0 0.012376
7050.0 0.011937
7070.0 0.012896
7090.0 0.01222
7110.0 0.010604
7130.0 0.0085881
7150.0 0.0077961
7170.0 0.010323
7190.0 0.011249
7210.0 0.010882
7230.0 0.011325
7250.0 0.010557
7270.0 0.010056
7290.0 0.011115
7310.0 0.012382
7330.0 0.012152
7350.0 0.011408
7370.0 0.010908
7390.0 0.011427
7410.0 0.013319
7430.0 0.014566
7450.0 0.015511
7470.0 0.015252
7490.0 0.015662
7510.0 0.015044
7530.0 0.015075
7550.0 0.014901
7570.0 0.013153
7590.0 0.013047
7610.0 0.012699
7630.0 0.011851
7650.0 0.013028
7670.0 0.014246
7690.0 0.015494
7710.0 0.017298
7730.0 0.018462
7750.0 0.019326
7770.0 0.019361
7790.0 0.021158
7810.0 0.021874
7830.0 0.020273
7850.0 0.02045
7870.0 0.01951
7890.0 0.0204
7910.0 0.019375
7930.0 0.019546
7950.0 0.017389
7970.0 0.017863
7990.0 0.017161
8010.0 0.017184
8030.0 0.017142
8050.0 0.017996
8070.0 0.01739
8090.0 0.017464
8110.0 0.017052
8130.0 0.017071
8150.0 0.016373
8170.0 0.015948
8190.0 0.015778
8210.0 0.015921
8230.0 0.014205
8250.0 0.013031
8270.0 0.011452
8290.0 0.0095342
8310.0 0.0081467
8330.0 0.0065083
8350.0 0.0054888
8370.0 0.0056715
8390.0 0.0058214
8410.0 0.0061898
8430.0 0.0075498
8450.0 0.0080867
8470.0 0.0085561
8490.0 0.0098112
8510.0 0.010714
8530.0 0.012363
8550.0 0.014636
8570.0 0.016341
8590.0 0.017563
8610.0 0.019191
8630.0 0.021111
8650.0 0.021483
8670.0 0.021737
8690.0 0.022605
8710.0 0.022408
8730.0 0.022225
8750.0 0.021075
8770.0 0.021117
8790.0 0.020855
8810.0 0.019281
8830.0 0.01927
8850.0 0.018122
8870.0 0.017436
8890.0 0.015996
8910.0 0.017133
8930.0 0.015718
8950.0 0.015463
8970.0 0.015514
8990.0 0.015025
9010.0 0.015275
9030.0 0.014667
9050.0 0.014586
9070.0 0.014568
9090.0 0.014547
9110.0 0.014531
9130.0 0.014505
9150.0 0.014475
9170.0 0.01441
9190.0 0.014291
9210.0 0.014453
9230.0 0.014376
9250.0 0.014321
9270.0 0.014268
9290.0 0.014218
9310.0 0.014169
9330.0 0.01412
9350.0 0.01407
9370.0 0.014019
9390.0 0.013967
9410.0 0.013913
9430.0 0.013858
9450.0 0.013802
9470.0 0.013744
9490.0 0.013687
9510.0 0.013628
9530.0 0.013569
9550.0 0.013508
9570.0 0.013447
9590.0 0.013385
9610.0 0.013323
9630.0 0.01326
9650.0 0.013196
9670.0 0.013133
9690.0 0.013069
9710.0 0.013004
9730.0 0.01294
9750.0 0.012876
9770.0 0.012811
9790.0 0.012747
9810.0 0.012683
9830.0 0.012619
9850.0 0.012555
9870.0 0.012492
9890.0 0.012429
9910.0 0.012366
9930.0 0.012303
9950.0 0.012204
9970.0 0.012154
9990.0 0.012102
10010.0 0.01205
10030.0 0.011995
10050.0 0.011936
10070.0 0.011866
10090.0 0.011815
10110.0 0.011762
10130.0 0.011709
10150.0 0.011657
10170.0 0.011603
10190.0 0.011549
10210.0 0.011497
10230.0 0.011446
10250.0 0.011395
10270.0 0.011344
10290.0 0.011296
10310.0 0.011248
10330.0 0.011199
10350.0 0.011153
10370.0 0.011109
10390.0 0.011063
10410.0 0.011019
10430.0 0.010978
10450.0 0.010936
10470.0 0.010895
10490.0 0.010855
10510.0 0.010817
10530.0 0.010778
10550.0 0.01074
10570.0 0.010705
10590.0 0.01067
10610.0 0.010635
10630.0 0.010603
10650.0 0.010571
10670.0 0.010538
10690.0 0.010507
10710.0 0.010478
10730.0 0.010449
10750.0 0.01042
10770.0 0.010393
10790.0 0.010367
10810.0 0.010341
10830.0 0.010316
10850.0 0.010292
10870.0 0.010265
10890.0 0.010236
10910.0 0.010205
10930.0 0.010164
10950.0 0.010108
10970.0 0.010036
10990.0 0.0099451
11010.0 0.0097656
11030.0 0.009628
11050.0 0.0094692
11070.0 0.009287
11090.0 0.0090764
11110.0 0.0088665
11130.0 0.0086557
11150.0 0.0084375
11170.0 0.0082221
11190.0 0.0080223
11210.0 0.0078242
11230.0 0.0076292
11250.0 0.0074502
11270.0 0.0072839
11290.0 0.0071212
11310.0 0.0069699
11330.0 0.0068384
11350.0 0.0067133
11370.0 0.0065952
11390.0 0.0064899
11410.0 0.0063934
11430.0 0.0062963
11450.0 0.0062055
11470.0 0.0061201
11490.0 0.0060329
11510.0 0.0059413
11530.0 0.0058518
11550.0 0.0057598
11570.0 0.0056587
11590.0 0.0055537
11610.0 0.0054477
11630.0 0.0053319
11650.0 0.0052076
11670.0 0.005086
11690.0 0.0049616
11710.0 0.0048305
11730.0 0.0047007
11750.0 0.004578
11770.0 0.0044522
11790.0 0.0043283
11810.0 0.0042138
11830.0 0.0041049
11850.0 0.0039956
11870.0 0.0038967
11890.0 0.0038079
11910.0 0.0037218
11930.0 0.0036405
11950.0 0.0035683
11970.0 0.0034998
11990.0 0.003432
12010.0 0.0033702
12030.0 0.0033131
12050.0 0.0032566
12070.0 0.0032011
12090.0 0.0031524
12110.0 0.0031053
12130.0 0.0030593
12150.0 0.0030181
12170.0 0.0029823
12190.0 0.0029483
12210.0 0.0029207
12230.0 0.0029013
12250.0 0.002889
12270.0 0.0028849
12290.0 0.0028912
12310.0 0.0029074
12330.0 0.0029343
12350.0 0.0029721
12370.0 0.0030193
12390.0 0.0030761
12410.0 0.0031443
12430.0 0.003217
12450.0 0.0032943
12470.0 0.0033772
12490.0 0.0034618
12510.0 0.0035436
12530.0 0.0036257
12550.0 0.0037062
12570.0 0.0037805
12590.0 0.0038491
12610.0 0.0039138
12630.0 0.0039718
12650.0 0.0040214
12670.0 0.0040656
12690.0 0.0041036
12710.0 0.0041349
12730.0 0.0041604
12750.0 0.0041802
12770.0 0.0041944
12790.0 0.0042038
12810.0 0.0042079
12830.0 0.0042065
12850.0 0.0042015
12870.0 0.0041922
12890.0 0.0041773
12910.0 0.0041583
12930.0 0.0041365
12950.0 0.0041086
12970.0 0.0040753
12990.0 0.0040402
13010.0 0.0040011
13030.0 0.003956
13050.0 0.0039083
13070.0 0.0038599
13090.0 0.0038061
13110.0 0.0037496
13130.0 0.0036944
13150.0 0.0036388
13170.0 0.0035806
13190.0 0.0035272
13210.0 0.003479
13230.0 0.0034335
13250.0 0.0033934
13270.0 0.0033618
13290.0 0.0033366
13310.0 0.0033177
13330.0 0.0033074
13350.0 0.003304
13370.0 0.0033061
13390.0 0.003313
13410.0 0.0033229
13430.0 0.0033338
13450.0 0.0033442
13470.0 0.0033521
13490.0 0.0033562
13510.0 0.0033547
13530.0 0.0033467
13550.0 0.0033327
13570.0 0.0033118
13590.0 0.0032837
13610.0 0.003251
13630.0 0.003215
13650.0 0.0031739
13670.0 0.0031308
13690.0 0.0030884
13710.0 0.0030454
13730.0 0.0030012
13750.0 0.0029613
13770.0 0.0029237
13790.0 0.002887
13810.0 0.0028529
13830.0 0.0028223
13850.0 0.0027923
13870.0 0.0027633
13890.0 0.0027365
13910.0 0.0027106
13930.0 0.0026844
13950.0 0.0026588
13970.0 0.0026348
13990.0 0.0026106
14010.0 0.0025866
14030.0 0.0025641
14050.0 0.0025429
14070.0 0.0025219
14090.0 0.002503
14110.0 0.0024863
14130.0 0.0024712
14150.0 0.002458
14170.0 0.0024475
14190.0 0.002439
14210.0 0.0024326
14230.0 0.0024285
14250.0 0.0024264
14270.0 0.0024267
14290.0 0.0024293
14310.0 0.0024335
14330.0 0.0024395
14350.0 0.0024476
14370.0 0.0024567
14390.0 0.0024663
14410.0 0.0024772
14430.0 0.0024885
14450.0 0.0024989
14470.0 0.0025088
14490.0 0.0025186
14510.0 0.0025268
14530.0 0.0025333
14550.0 0.0025393
14570.0 0.0025445
14590.0 0.0025485
14610.0 0.0025527
14630.0 0.0025578
14650.0 0.0025636
14670.0 0.0025706
14690.0 0.0025805
14710.0 0.0025937
14730.0 0.0026088
14750.0 0.002628
14770.0 0.002652
14790.0 0.0026791
14810.0 0.0027091
14830.0 0.0027458
14850.0 0.0027852
14870.0 0.0028254
14890.0 0.0028679
14910.0 0.0029122
14930.0 0.0029527
14950.0 0.0029885
14970.0 0.0030205
14990.0 0.0030444
15010.0 0.0030589
15030.0 0.0030655
15050.0 0.0030648
15070.0 0.003057
15090.0 0.0030448
15110.0 0.0030295
15130.0 0.0030123
15150.0 0.0029942
15170.0 0.0029754
15190.0 0.0029563
15210.0 0.0029372
15230.0 0.0029181
15250.0 0.0028989
15270.0 0.0028796
15290.0 0.0028607
15310.0 0.0028416
15330.0 0.0028224
15350.0 0.0028034
15370.0 0.0027845
15390.0 0.0027654
15410.0 0.0027464
15430.0 0.0027277
15450.0 0.0027088
15470.0 0.0026899
15490.0 0.0026713
15510.0 0.0026527
15530.0 0.002634
15550.0 0.0026155
15570.0 0.0025972
15590.0 0.0025788
15610.0 0.0025603
15630.0 0.0025422
15650.0 0.0025241
15670.0 0.002506
15690.0 0.0024881
15710.0 0.0024703
15730.0 0.0024525
15750.0 0.0024348
15770.0 0.0024173
15790.0 0.0023999
15810.0 0.0023824
15830.0 0.0023651
15850.0 0.0023481
15870.0 0.002331
15890.0 0.002314
15910.0 0.0022973
15930.0 0.0022806
15950.0 0.0022639
15970.0 0.0022475
15990.0 0.0022312
16010.0 0.0022149
16030.0 0.0021987
16050.0 0.0021828
16070.0 0.002167
16090.0 0.0021512
16110.0 0.0021356
16130.0 0.0021202
16150.0 0.0021047
16170.0 0.0020894
16190.0 0.0020743
16210.0 0.0020593
16230.0 0.0020444
16250.0 0.0020297
16270.0 0.0020152
16290.0 0.0020006
16310.0 0.0019862
16330.0 0.0019721
16350.0 0.001958
16370.0 0.0019439
16390.0 0.0019301
16410.0 0.0019164
16430.0 0.0019028
16450.0 0.0018893
16470.0 0.0018761
16490.0 0.0018629
16510.0 0.0018497
16530.0 0.0018368
16550.0 0.001824
16570.0 0.0018113
16590.0 0.0017986
16610.0 0.0017863
16630.0 0.001774
16650.0 0.0017617
16670.0 0.0017497
16690.0 0.0017379
16710.0 0.0017259
16730.0 0.0017142
16750.0 0.0017027
16770.0 0.0016912
16790.0 0.0016798
16810.0 0.0016687
16830.0 0.0016576
16850.0 0.0016466
16870.0 0.0016357
16890.0 0.0016251
16910.0 0.0016144
16930.0 0.0016038
16950.0 0.0015935
16970.0 0.0015832
16990.0 0.001573
17010.0 0.0015629
17030.0 0.0015531
17050.0 0.0015432
17070.0 0.0015334
17090.0 0.0015238
17110.0 0.0015144
17130.0 0.0015048
17150.0 0.0014955
17170.0 0.0014864
17190.0 0.0014773
17210.0 0.0014683
17230.0 0.0014595
17250.0 0.0014507
17270.0 0.0014419
17290.0 0.0014333
17310.0 0.0014249
17330.0 0.0014165
17350.0 0.0014081
17370.0 0.0014
17390.0 0.0013919
17410.0 0.0013838
17430.0 0.0013759
17450.0 0.0013682
17470.0 0.0013603
17490.0 0.0013526
17510.0 0.0013452
17530.0 0.0013377
17550.0 0.0013302
17570.0 0.001323
17590.0 0.0013158
17610.0 0.0013086
17630.0 0.0013015
17650.0 0.0012947
17670.0 0.0012878
17690.0 0.0012808
17710.0 0.0012741
17730.0 0.0012676
17750.0 0.0012609
17770.0 0.0012544
17790.0 0.0012481
17810.0 0.0012417
17830.0 0.0012354
17850.0 0.0012292
17870.0 0.0012231
17890.0 0.001217
17910.0 0.001211
17930.0 0.0012051
17950.0 0.0011993
17970.0 0.0011935
17990.0 0.0011878
18010.0 0.0011822
18030.0 0.0011765
18050.0 0.001171
18070.0 0.0011656
18090.0 0.0011602
18110.0 0.0011548
18130.0 0.0011496
18150.0 0.0011444
18170.0 0.0011392
18190.0 0.0011341
18210.0 0.0011292
18230.0 0.0011242
18250.0 0.0011192
18270.0 0.0011144
18290.0 0.0011096
18310.0 0.0011048
18330.0 0.0011001
18350.0 0.0010955
18370.0 0.0010909
18390.0 0.0010863
18410.0 0.0010819
18430.0 0.0010775
18450.0 0.001073
18470.0 0.0010686
18490.0 0.0010644
18510.0 0.0010601
18530.0 0.0010559
18550.0 0.0010518
18570.0 0.0010477
18590.0 0.0010436
18610.0 0.0010396
18630.0 0.0010357
18650.0 0.0010317
18670.0 0.0010277
18690.0 0.001024
18710.0 0.0010202
18730.0 0.0010164
18750.0 0.0010127
18770.0 0.0010091
18790.0 0.0010053
18810.0 0.0010017
18830.0 0.00099818
18850.0 0.00099464
18870.0 0.00099109
18890.0 0.00098767
18910.0 0.00098431
18930.0 0.00098086
18950.0 0.00097749
18970.0 0.00097423
18990.0 0.00097093
19010.0 0.00096756
19030.0 0.0009644
19050.0 0.00096125
19070.0 0.00095804
19090.0 0.00095491
19110.0 0.0009519
19130.0 0.00094879
19150.0 0.00094569
19170.0 0.00094272
19190.0 0.00093977
19210.0 0.00093674
19230.0 0.00093379
19250.0 0.00093098
19270.0 0.00092808
19290.0 0.0009252
19310.0 0.00092243
19330.0 0.00091967
19350.0 0.00091679
19370.0 0.00091405
19390.0 0.00091138
19410.0 0.00090865
19430.0 0.00090592
19450.0 0.00090334
19470.0 0.00090073
19490.0 0.00089806
19510.0 0.00089548
19530.0 0.00089298
19550.0 0.00089037
19570.0 0.00088777
19590.0 0.00088533
19610.0 0.00088286
19630.0 0.00088033
19650.0 0.00087791
19670.0 0.00087555
19690.0 0.00087307
19710.0 0.00087064
19730.0 0.00086832
19750.0 0.00086596
19770.0 0.00086352
19790.0 0.00086121
19810.0 0.00085895
19830.0 0.0008566
19850.0 0.00085423
19870.0 0.00085192
19890.0 0.00084937
19910.0 0.00084646
19930.0 0.00084322
19950.0 0.00083931
19970.0 0.00083422
19990.0 0.00082781
20010.0 0.00082034
20030.0 0.00081108
20050.0 0.00080011
20070.0 0.0007882
20090.0 0.00077541
20110.0 0.00076097
20130.0 0.00074648
20150.0 0.00073225
20170.0 0.0007176
20190.0 0.00070283
20210.0 0.000689
20230.0 0.00067559
20250.0 0.00066219
20270.0 0.00064983
20290.0 0.00063863
20310.0 0.00062806
20330.0 0.00061829
20350.0 0.00061038
20370.0 0.00060355
20390.0 0.00059786
20410.0 0.00059367
20430.0 0.00059094
20450.0 0.00058944
20470.0 0.00058941
20490.0 0.00059071
20510.0 0.00059325
20530.0 0.00059711
20550.0 0.00060201
20570.0 0.00060767
20590.0 0.00061435
20610.0 0.00062175
20630.0 0.0006294
20650.0 0.00063747
20670.0 0.00064611
20690.0 0.00065438
20710.0 0.00066236
20730.0 0.00067025
20750.0 0.00067768
20770.0 0.00068422
20790.0 0.00069022
20810.0 0.00069559
20830.0 0.00069999
20850.0 0.0007035
20870.0 0.00070629
20890.0 0.00070818
20910.0 0.0007092
20930.0 0.00070951
20950.0 0.00070908
20970.0 0.00070803
20990.0 0.00070644
21010.0 0.00070421
21030.0 0.00070152
21050.0 0.00069852
21070.0 0.0006951
21090.0 0.00069121
21110.0 0.00068728
21130.0 0.00068322
21150.0 0.00067886
21170.0 0.00067449
21190.0 0.0006703
21210.0 0.00066601
21230.0 0.00066178
21250.0 0.00065798
21270.0 0.00065448
21290.0 0.00065121
21310.0 0.00064843
21330.0 0.00064624
21350.0 0.00064448
21370.0 0.00064326
21390.0 0.00064268
21410.0 0.00064268
21430.0 0.00064328
21450.0 0.0006445
21470.0 0.00064624
21490.0 0.00064856
21510.0 0.00065144
21530.0 0.00065467
21550.0 0.00065833
21570.0 0.00066251
21590.0 0.00066696
21610.0 0.00067159
21630.0 0.00067661
21650.0 0.00068203
21670.0 0.00068731
21690.0 0.00069283
21710.0 0.00069868
21730.0 0.00070457
21750.0 0.00071041
21770.0 0.00071672
21790.0 0.00072313
21810.0 0.00072944
21830.0 0.00073594
21850.0 0.00074277
21870.0 0.00074954
21890.0 0.00075619
21910.0 0.00076317
21930.0 0.00077019
21950.0 0.00077699
21970.0 0.00078385
21990.0 0.00079093
22010.0 0.00079754
22030.0 0.00080386
22050.0 0.00081009
22070.0 0.00081595
22090.0 0.00082114
22110.0 0.00082594
22130.0 0.00083023
22150.0 0.00083372
22170.0 0.00083643
22190.0 0.00083839
22210.0 0.00083939
22230.0 0.00083944
22250.0 0.00083852
22270.0 0.00083652
22290.0 0.00083357
22310.0 0.00082969
22330.0 0.00082454
22350.0 0.00081845
22370.0 0.00081164
22390.0 0.00080377
22410.0 0.00079477
22430.0 0.00078547
22450.0 0.0007756
22470.0 0.00076477
22490.0 0.00075361
22510.0 0.0007425
22530.0 0.00073065
22550.0 0.00071842
22570.0 0.00070669
22590.0 0.00069502
22610.0 0.00068308
22630.0 0.00067155
22650.0 0.0006608
22670.0 0.00064998
22690.0 0.00063949
22710.0 0.00062982
22730.0 0.00062064
22750.0 0.00061146
22770.0 0.00060318
22790.0 0.00059564
22810.0 0.00058837
22830.0 0.00058154
22850.0 0.00057549
22870.0 0.00056982
22890.0 0.0005644
22910.0 0.00055958
22930.0 0.00055527
22950.0 0.00055124
22970.0 0.00054753
22990.0 0.00054447
23010.0 0.00054172
23030.0 0.00053927
23050.0 0.00053728
23070.0 0.00053569
23090.0 0.00053436
23110.0 0.00053341
23130.0 0.00053282
23150.0 0.00053251
23170.0 0.00053247
23190.0 0.00053268
23210.0 0.00053309
23230.0 0.0005337
23250.0 0.00053447
23270.0 0.00053535
23290.0 0.00053636
23310.0 0.00053752
23330.0 0.00053872
23350.0 0.00053997
23370.0 0.00054132
23390.0 0.00054272
23410.0 0.00054409
23430.0 0.0005455
23450.0 0.00054694
23470.0 0.00054829
23490.0 0.00054957
23510.0 0.00055081
23530.0 0.00055192
23550.0 0.00055287
23570.0 0.0005537
23590.0 0.0005544
23610.0 0.00055495
23630.0 0.00055539
23650.0 0.00055576
23670.0 0.00055609
23690.0 0.00055643
23710.0 0.00055687
23730.0 0.00055752
23750.0 0.00055841
