#lamb flux
1010.0 1.236e-10
1030.0 1.5531e-10
1050.0 1.9166e-10
1070.0 2.3244e-10
1090.0 2.7857e-10
1110.0 3.2563e-10
1130.0 3.7271e-10
1150.0 4.2175e-10
1170.0 4.7205e-10
1190.0 5.1937e-10
1210.0 5.671e-10
1230.0 6.1627e-10
1250.0 6.6428e-10
1270.0 7.1084e-10
1290.0 7.6019e-10
1310.0 8.097e-10
1330.0 8.5745e-10
1350.0 9.0617e-10
1370.0 9.57e-10
1390.0 1.0072e-09
1410.0 1.0565e-09
1430.0 1.1087e-09
1450.0 1.1615e-09
1470.0 1.2133e-09
1490.0 1.2661e-09
1510.0 1.3222e-09
1530.0 1.3759e-09
1550.0 1.4292e-09
1570.0 1.4845e-09
1590.0 1.5399e-09
1610.0 1.5931e-09
1630.0 1.6477e-09
1650.0 1.7037e-09
1670.0 1.7578e-09
1690.0 1.8112e-09
1710.0 1.8663e-09
1730.0 1.9217e-09
1750.0 1.9737e-09
1770.0 2.0271e-09
1790.0 2.0813e-09
1810.0 2.1339e-09
1830.0 2.1854e-09
1850.0 2.2392e-09
1870.0 2.291e-09
1890.0 2.3413e-09
1910.0 2.3927e-09
1930.0 2.4456e-09
1950.0 2.4965e-09
1970.0 2.5469e-09
1990.0 2.5994e-09
2010.0 2.6513e-09
2030.0 2.7016e-09
2050.0 2.7536e-09
2070.0 2.8072e-09
2090.0 2.8582e-09
2110.0 2.9093e-09
2130.0 2.9623e-09
2150.0 3.0146e-09
2170.0 3.0651e-09
2190.0 3.1177e-09
2210.0 3.1705e-09
2230.0 3.2209e-09
2250.0 3.2715e-09
2270.0 3.3246e-09
2290.0 3.3765e-09
2310.0 3.4268e-09
2330.0 3.4789e-09
2350.0 3.5318e-09
2370.0 3.5829e-09
2390.0 3.6348e-09
2410.0 3.6894e-09
2430.0 3.7433e-09
2450.0 3.7983e-09
2470.0 3.8595e-09
2490.0 3.9308e-09
2510.0 4.0134e-09
2530.0 4.1207e-09
2550.0 4.2695e-09
2570.0 4.4699e-09
2590.0 4.735e-09
2610.0 5.1141e-09
2630.0 5.6168e-09
2650.0 6.2312e-09
2670.0 6.9897e-09
2690.0 7.9077e-09
2710.0 8.9134e-09
2730.0 9.971e-09
2750.0 1.1115e-08
2770.0 1.2251e-08
2790.0 1.3307e-08
2810.0 1.43e-08
2830.0 1.5229e-08
2850.0 1.6012e-08
2870.0 1.6705e-08
2890.0 1.7351e-08
2910.0 1.7955e-08
2930.0 1.853e-08
2950.0 1.912e-08
2970.0 1.9734e-08
2990.0 2.0361e-08
3010.0 2.1014e-08
3030.0 2.1712e-08
3050.0 2.2443e-08
3070.0 2.3187e-08
3090.0 2.3975e-08
3110.0 2.4813e-08
3130.0 2.5712e-08
3150.0 2.6738e-08
3170.0 2.8043e-08
3190.0 2.9743e-08
3210.0 3.1965e-08
3230.0 3.4919e-08
3250.0 3.866e-08
3270.0 4.2207e-08
3290.0 4.7857e-08
3310.0 5.948e-08
3330.0 6.3336e-08
3350.0 6.5228e-08
3370.0 6.7045e-08
3390.0 6.8894e-08
3410.0 7.0765e-08
3430.0 7.2652e-08
3450.0 7.4539e-08
3470.0 7.6392e-08
3490.0 7.8181e-08
3510.0 7.9815e-08
3530.0 7.9115e-08
3550.0 7.6928e-08
3570.0 7.8039e-08
3590.0 8.2913e-08
3610.0 9.0346e-08
3630.0 9.3243e-08
3650.0 8.9538e-08
3670.0 8.2261e-08
3690.0 7.8059e-08
3710.0 7.9076e-08
3730.0 8.1679e-08
3750.0 8.3074e-08
3770.0 8.5872e-08
3790.0 8.8998e-08
3810.0 8.7713e-08
3830.0 8.1748e-08
3850.0 7.6428e-08
3870.0 7.3906e-08
3890.0 7.304e-08
3910.0 7.1385e-08
3930.0 7.0558e-08
3950.0 7.254e-08
3970.0 7.4859e-08
3990.0 7.5544e-08
4010.0 7.2755e-08
4030.0 6.8795e-08
4050.0 6.6256e-08
4070.0 6.4106e-08
4090.0 6.2358e-08
4110.0 6.007e-08
4130.0 5.6474e-08
4150.0 5.2862e-08
4170.0 5.072e-08
4190.0 4.7286e-08
4210.0 4.281e-08
4230.0 3.8277e-08
4250.0 3.3979e-08
4270.0 3.0774e-08
4290.0 2.8393e-08
4310.0 2.7135e-08
4330.0 2.7091e-08
4350.0 2.7207e-08
4370.0 2.7467e-08
4390.0 2.8471e-08
4410.0 2.9166e-08
4430.0 2.8145e-08
4450.0 2.5558e-08
4470.0 2.3303e-08
4490.0 2.2072e-08
4510.0 2.1284e-08
4530.0 2.0892e-08
4550.0 2.0556e-08
4570.0 2.047e-08
4590.0 2.0751e-08
4610.0 2.1398e-08
4630.0 2.1784e-08
4650.0 2.1979e-08
4670.0 2.1445e-08
4690.0 2.0173e-08
4710.0 1.8905e-08
4730.0 1.8087e-08
4750.0 1.7584e-08
4770.0 1.7644e-08
4790.0 1.7575e-08
4810.0 1.7198e-08
4830.0 1.7228e-08
4850.0 1.7767e-08
4870.0 1.7943e-08
4890.0 1.7619e-08
4910.0 1.7215e-08
4930.0 1.6236e-08
4950.0 1.4817e-08
4970.0 1.3849e-08
4990.0 1.3056e-08
5010.0 1.2884e-08
5030.0 1.3319e-08
5050.0 1.3661e-08
5070.0 1.4171e-08
5090.0 1.5028e-08
5110.0 1.5257e-08
5130.0 1.539e-08
5150.0 1.5675e-08
5170.0 1.5805e-08
5190.0 1.622e-08
5210.0 1.6304e-08
5230.0 1.6136e-08
5250.0 1.6268e-08
5270.0 1.6496e-08
5290.0 1.6541e-08
5310.0 1.6417e-08
5330.0 1.6106e-08
5350.0 1.5884e-08
5370.0 1.5716e-08
5390.0 1.5509e-08
5410.0 1.5336e-08
5430.0 1.5332e-08
5450.0 1.5555e-08
5470.0 1.5844e-08
5490.0 1.6286e-08
5510.0 1.678e-08
5530.0 1.6987e-08
5550.0 1.7242e-08
5570.0 1.7275e-08
5590.0 1.691e-08
5610.0 1.6787e-08
5630.0 1.6916e-08
5650.0 1.671e-08
5670.0 1.634e-08
5690.0 1.5848e-08
5710.0 1.5811e-08
5730.0 1.5975e-08
5750.0 1.5293e-08
5770.0 1.451e-08
5790.0 1.3332e-08
5810.0 1.1655e-08
5830.0 1.2569e-08
5850.0 1.3925e-08
5870.0 1.4232e-08
5890.0 1.4308e-08
5910.0 1.442e-08
5930.0 1.4392e-08
5950.0 1.4151e-08
5970.0 1.3982e-08
5990.0 1.3777e-08
6010.0 1.3358e-08
6030.0 1.2899e-08
6050.0 1.2698e-08
6070.0 1.2645e-08
6090.0 1.245e-08
6110.0 1.2033e-08
6130.0 1.1625e-08
6150.0 1.1158e-08
6170.0 1.0689e-08
6190.0 1.0217e-08
6210.0 9.8549e-09
6230.0 9.7096e-09
6250.0 9.5038e-09
6270.0 9.3051e-09
6290.0 9.2299e-09
6310.0 9.1663e-09
6330.0 8.9639e-09
6350.0 8.6728e-09
6370.0 8.5054e-09
6390.0 8.3415e-09
6410.0 8.1071e-09
6430.0 7.8888e-09
6450.0 7.7138e-09
6470.0 7.5473e-09
6490.0 7.4313e-09
6510.0 7.3063e-09
6530.0 7.1194e-09
6550.0 6.9617e-09
6570.0 6.8562e-09
6590.0 6.8427e-09
6610.0 6.7994e-09
6630.0 6.5711e-09
6650.0 6.3869e-09
6670.0 6.3218e-09
6690.0 6.2229e-09
6710.0 6.0742e-09
6730.0 6.0213e-09
6750.0 6.0681e-09
6770.0 6.4319e-09
6790.0 7.198e-09
6810.0 6.8332e-09
6830.0 5.995e-09
6850.0 5.7602e-09
6870.0 5.6719e-09
6890.0 5.6729e-09
6910.0 5.6852e-09
6930.0 5.699e-09
6950.0 5.6798e-09
6970.0 5.5358e-09
6990.0 5.4858e-09
7010.0 5.5678e-09
7030.0 5.5925e-09
7050.0 5.5112e-09
7070.0 5.4594e-09
7090.0 5.4984e-09
7110.0 5.626e-09
7130.0 5.6446e-09
7150.0 5.6646e-09
7170.0 5.6949e-09
7190.0 5.7742e-09
7210.0 5.835e-09
7230.0 5.8946e-09
7250.0 5.9735e-09
7270.0 6.0292e-09
7290.0 6.1228e-09
7310.0 6.2384e-09
7330.0 6.1908e-09
7350.0 6.0614e-09
7370.0 5.9764e-09
7390.0 5.9588e-09
7410.0 5.9882e-09
7430.0 6.0621e-09
7450.0 6.1e-09
7470.0 6.1837e-09
7490.0 6.1475e-09
7510.0 6.0828e-09
7530.0 6.1525e-09
7550.0 6.3498e-09
7570.0 6.3333e-09
7590.0 6.005e-09
7610.0 5.9511e-09
7630.0 6.2911e-09
7650.0 6.415e-09
7670.0 6.4637e-09
7690.0 6.7501e-09
7710.0 6.9691e-09
7730.0 7.0347e-09
7750.0 7.4029e-09
7770.0 7.2108e-09
7790.0 7.0372e-09
7810.0 7.4592e-09
7830.0 7.7423e-09
7850.0 7.9411e-09
7870.0 8.0936e-09
7890.0 8.1584e-09
7910.0 8.0982e-09
7930.0 8.1553e-09
7950.0 8.5223e-09
7970.0 8.5212e-09
7990.0 7.9365e-09
8010.0 7.6618e-09
8030.0 7.8109e-09
8050.0 7.9759e-09
8070.0 7.2198e-09
8090.0 4.7421e-09
8110.0 4.9465e-09
8130.0 7.0448e-09
8150.0 7.5874e-09
8170.0 7.8892e-09
8190.0 8.0636e-09
8210.0 7.9584e-09
8230.0 8.6221e-09
8250.0 8.8077e-09
8270.0 8.335e-09
8290.0 8.0087e-09
8310.0 7.8889e-09
8330.0 8.3116e-09
8350.0 8.7046e-09
8370.0 8.5435e-09
8390.0 8.148e-09
8410.0 8.1396e-09
8430.0 7.6276e-09
8450.0 7.7906e-09
8470.0 8.5135e-09
8490.0 8.5394e-09
8510.0 7.9179e-09
8530.0 7.4263e-09
8550.0 7.1203e-09
8570.0 6.7079e-09
8590.0 6.8998e-09
8610.0 7.3174e-09
8630.0 7.5159e-09
8650.0 7.6456e-09
8670.0 7.4386e-09
8690.0 7.2651e-09
8710.0 6.761e-09
8730.0 6.5169e-09
8750.0 6.779e-09
8770.0 6.8835e-09
8790.0 6.8673e-09
8810.0 6.8294e-09
8830.0 6.9723e-09
8850.0 7.3231e-09
8870.0 6.8387e-09
8890.0 6.4479e-09
8910.0 6.3532e-09
8930.0 5.9775e-09
8950.0 5.7548e-09
8970.0 5.7504e-09
8990.0 5.5052e-09
9010.0 5.1678e-09
9030.0 5.0506e-09
9050.0 5.0087e-09
9070.0 4.9714e-09
9090.0 4.9338e-09
9110.0 4.896e-09
9130.0 4.858e-09
9150.0 4.8198e-09
9170.0 4.7815e-09
9190.0 4.7432e-09
9210.0 4.7047e-09
9230.0 4.6663e-09
9250.0 4.6279e-09
9270.0 4.5895e-09
9290.0 4.5511e-09
9310.0 4.5129e-09
9330.0 4.4749e-09
9350.0 4.437e-09
9370.0 4.3992e-09
9390.0 4.3616e-09
9410.0 4.3242e-09
9430.0 4.2871e-09
9450.0 4.2501e-09
9470.0 4.2134e-09
9490.0 4.1769e-09
9510.0 4.1407e-09
9530.0 4.1048e-09
9550.0 4.0692e-09
9570.0 4.0339e-09
9590.0 3.9988e-09
9610.0 3.9642e-09
9630.0 3.9299e-09
9650.0 3.8959e-09
9670.0 3.8623e-09
9690.0 3.829e-09
9710.0 3.7961e-09
9730.0 3.7635e-09
9750.0 3.7313e-09
9770.0 3.6994e-09
9790.0 3.6679e-09
9810.0 3.6367e-09
9830.0 3.6059e-09
9850.0 3.5755e-09
9870.0 3.5454e-09
9890.0 3.5157e-09
9910.0 3.4864e-09
9930.0 3.4574e-09
9950.0 3.4287e-09
9970.0 3.4005e-09
9990.0 3.3726e-09
10010.0 3.345e-09
10030.0 3.3178e-09
10050.0 3.2909e-09
10070.0 3.2644e-09
10090.0 3.2382e-09
10110.0 3.2123e-09
10130.0 3.1868e-09
10150.0 3.1616e-09
10170.0 3.1368e-09
10190.0 3.1122e-09
10210.0 3.088e-09
10230.0 3.0641e-09
10250.0 3.0405e-09
10270.0 3.0172e-09
10290.0 2.9942e-09
10310.0 2.9715e-09
10330.0 2.9491e-09
10350.0 2.927e-09
10370.0 2.9052e-09
10390.0 2.8833e-09
10410.0 2.8576e-09
10430.0 2.8307e-09
10450.0 2.8149e-09
10470.0 2.7966e-09
10490.0 2.778e-09
10510.0 2.7591e-09
10530.0 2.7395e-09
10550.0 2.7201e-09
10570.0 2.7012e-09
10590.0 2.6822e-09
10610.0 2.6632e-09
10630.0 2.6448e-09
10650.0 2.6266e-09
10670.0 2.6081e-09
10690.0 2.5901e-09
10710.0 2.5726e-09
10730.0 2.555e-09
10750.0 2.5372e-09
10770.0 2.5203e-09
10790.0 2.5034e-09
10810.0 2.4864e-09
10830.0 2.4698e-09
10850.0 2.4537e-09
10870.0 2.4371e-09
10890.0 2.4207e-09
10910.0 2.4047e-09
10930.0 2.3888e-09
10950.0 2.3724e-09
10970.0 2.3562e-09
10990.0 2.3402e-09
11010.0 2.2926e-09
11030.0 2.2758e-09
11050.0 2.2593e-09
11070.0 2.2425e-09
11090.0 2.2247e-09
11110.0 2.2073e-09
11130.0 2.1901e-09
11150.0 2.1721e-09
11170.0 2.154e-09
11190.0 2.1364e-09
11210.0 2.1184e-09
11230.0 2.1e-09
11250.0 2.0821e-09
11270.0 2.0648e-09
11290.0 2.0472e-09
11310.0 2.03e-09
11330.0 2.0143e-09
11350.0 1.9988e-09
11370.0 1.9838e-09
11390.0 1.9699e-09
11410.0 1.9568e-09
11430.0 1.9438e-09
11450.0 1.9315e-09
11470.0 1.92e-09
11490.0 1.9087e-09
11510.0 1.8972e-09
11530.0 1.8864e-09
11550.0 1.8756e-09
11570.0 1.8644e-09
11590.0 1.8532e-09
11610.0 1.8421e-09
11630.0 1.8304e-09
11650.0 1.8182e-09
11670.0 1.8063e-09
11690.0 1.7941e-09
11710.0 1.7813e-09
11730.0 1.7685e-09
11750.0 1.756e-09
11770.0 1.743e-09
11790.0 1.7297e-09
11810.0 1.717e-09
11830.0 1.7043e-09
11850.0 1.6912e-09
11870.0 1.6786e-09
11890.0 1.6668e-09
11910.0 1.655e-09
11930.0 1.6435e-09
11950.0 1.6329e-09
11970.0 1.6228e-09
11990.0 1.6128e-09
12010.0 1.6037e-09
12030.0 1.5954e-09
12050.0 1.5874e-09
12070.0 1.5799e-09
12090.0 1.5735e-09
12110.0 1.5674e-09
12130.0 1.5617e-09
12150.0 1.5566e-09
12170.0 1.552e-09
12190.0 1.5474e-09
12210.0 1.5431e-09
12230.0 1.5389e-09
12250.0 1.5347e-09
12270.0 1.5301e-09
12290.0 1.5254e-09
12310.0 1.5205e-09
12330.0 1.5148e-09
12350.0 1.5085e-09
12370.0 1.5019e-09
12390.0 1.4944e-09
12410.0 1.4859e-09
12430.0 1.477e-09
12450.0 1.4676e-09
12470.0 1.4572e-09
12490.0 1.4462e-09
12510.0 1.4351e-09
12530.0 1.4232e-09
12550.0 1.4107e-09
12570.0 1.3981e-09
12590.0 1.3855e-09
12610.0 1.3721e-09
12630.0 1.3587e-09
12650.0 1.3459e-09
12670.0 1.3329e-09
12690.0 1.3197e-09
12710.0 1.3072e-09
12730.0 1.2951e-09
12750.0 1.2827e-09
12770.0 1.2711e-09
12790.0 1.2602e-09
12810.0 1.2496e-09
12830.0 1.2394e-09
12850.0 1.2302e-09
12870.0 1.2216e-09
12890.0 1.2134e-09
12910.0 1.206e-09
12930.0 1.1995e-09
12950.0 1.1935e-09
12970.0 1.1881e-09
12990.0 1.1838e-09
13010.0 1.1801e-09
13030.0 1.1771e-09
13050.0 1.1747e-09
13070.0 1.1731e-09
13090.0 1.1719e-09
13110.0 1.1712e-09
13130.0 1.1707e-09
13150.0 1.1705e-09
13170.0 1.1702e-09
13190.0 1.1699e-09
13210.0 1.1692e-09
13230.0 1.1682e-09
13250.0 1.1666e-09
13270.0 1.1645e-09
13290.0 1.1617e-09
13310.0 1.1581e-09
13330.0 1.1538e-09
13350.0 1.149e-09
13370.0 1.1432e-09
13390.0 1.1367e-09
13410.0 1.1299e-09
13430.0 1.1224e-09
13450.0 1.1141e-09
13470.0 1.1055e-09
13490.0 1.0967e-09
13510.0 1.0869e-09
13530.0 1.0768e-09
13550.0 1.0668e-09
13570.0 1.0564e-09
13590.0 1.0454e-09
13610.0 1.0346e-09
13630.0 1.0239e-09
13650.0 1.0126e-09
13670.0 1.0013e-09
13690.0 9.9039e-10
13710.0 9.7928e-10
13730.0 9.6766e-10
13750.0 9.568e-10
13770.0 9.4616e-10
13790.0 9.3535e-10
13810.0 9.2481e-10
13830.0 9.1497e-10
13850.0 9.0507e-10
13870.0 8.9529e-10
13890.0 8.8616e-10
13910.0 8.7742e-10
13930.0 8.6866e-10
13950.0 8.6029e-10
13970.0 8.5267e-10
13990.0 8.4511e-10
14010.0 8.3774e-10
14030.0 8.3092e-10
14050.0 8.2444e-10
14070.0 8.1791e-10
14090.0 8.1186e-10
14110.0 8.0627e-10
14130.0 8.0081e-10
14150.0 7.9551e-10
14170.0 7.9071e-10
14190.0 7.8614e-10
14210.0 7.8161e-10
14230.0 7.7734e-10
14250.0 7.7336e-10
14270.0 7.6935e-10
14290.0 7.654e-10
14310.0 7.6174e-10
14330.0 7.5815e-10
14350.0 7.5451e-10
14370.0 7.5101e-10
14390.0 7.4769e-10
14410.0 7.4427e-10
14430.0 7.4089e-10
14450.0 7.3767e-10
14470.0 7.3447e-10
14490.0 7.3114e-10
14510.0 7.2796e-10
14530.0 7.2488e-10
14550.0 7.2169e-10
14570.0 7.1848e-10
14590.0 7.1538e-10
14610.0 7.1221e-10
14630.0 7.0888e-10
14650.0 7.0563e-10
14670.0 7.024e-10
14690.0 6.9902e-10
14710.0 6.9555e-10
14730.0 6.9224e-10
14750.0 6.888e-10
14770.0 6.8522e-10
14790.0 6.8167e-10
14810.0 6.7814e-10
14830.0 6.7432e-10
14850.0 6.7049e-10
14870.0 6.6676e-10
14890.0 6.6293e-10
14910.0 6.59e-10
14930.0 6.5528e-10
14950.0 6.5177e-10
14970.0 6.4831e-10
14990.0 6.4516e-10
15010.0 6.424e-10
15030.0 6.399e-10
15050.0 6.3759e-10
15070.0 6.3565e-10
15090.0 6.3388e-10
15110.0 6.3217e-10
15130.0 6.3054e-10
15150.0 6.2901e-10
15170.0 6.2745e-10
15190.0 6.2587e-10
15210.0 6.2434e-10
15230.0 6.2283e-10
15250.0 6.2125e-10
15270.0 6.1969e-10
15290.0 6.182e-10
15310.0 6.1666e-10
15330.0 6.1509e-10
15350.0 6.1358e-10
15370.0 6.1208e-10
15390.0 6.1048e-10
15410.0 6.0894e-10
15430.0 6.0744e-10
15450.0 6.0589e-10
15470.0 6.0431e-10
15490.0 6.0281e-10
15510.0 6.013e-10
15530.0 5.9973e-10
15550.0 5.982e-10
15570.0 5.967e-10
15590.0 5.9514e-10
15610.0 5.9356e-10
15630.0 5.9206e-10
15650.0 5.9054e-10
15670.0 5.8898e-10
15690.0 5.8744e-10
15710.0 5.8596e-10
15730.0 5.844e-10
15750.0 5.8284e-10
15770.0 5.8134e-10
15790.0 5.7982e-10
15810.0 5.7823e-10
15830.0 5.767e-10
15850.0 5.7521e-10
15870.0 5.7366e-10
15890.0 5.7211e-10
15910.0 5.7062e-10
15930.0 5.691e-10
15950.0 5.6752e-10
15970.0 5.66e-10
15990.0 5.6449e-10
16010.0 5.6294e-10
16030.0 5.6137e-10
16050.0 5.5989e-10
16070.0 5.5837e-10
16090.0 5.5681e-10
16110.0 5.5529e-10
16130.0 5.5381e-10
16150.0 5.5223e-10
16170.0 5.5068e-10
16190.0 5.4918e-10
16210.0 5.4766e-10
16230.0 5.4609e-10
16250.0 5.4458e-10
16270.0 5.4309e-10
16290.0 5.4154e-10
16310.0 5.4e-10
16330.0 5.385e-10
16350.0 5.3698e-10
16370.0 5.3538e-10
16390.0 5.3388e-10
16410.0 5.3239e-10
16430.0 5.3083e-10
16450.0 5.293e-10
16470.0 5.2782e-10
16490.0 5.2628e-10
16510.0 5.2472e-10
16530.0 5.2322e-10
16550.0 5.2171e-10
16570.0 5.2015e-10
16590.0 5.186e-10
16610.0 5.1712e-10
16630.0 5.1559e-10
16650.0 5.1404e-10
16670.0 5.1255e-10
16690.0 5.1105e-10
16710.0 5.0947e-10
16730.0 5.0794e-10
16750.0 5.0645e-10
16770.0 5.0491e-10
16790.0 5.0335e-10
16810.0 5.0186e-10
16830.0 5.0036e-10
16850.0 4.9881e-10
16870.0 4.9728e-10
16890.0 4.958e-10
16910.0 4.9425e-10
16930.0 4.9268e-10
16950.0 4.9119e-10
16970.0 4.8968e-10
16990.0 4.8813e-10
17010.0 4.8661e-10
17030.0 4.8513e-10
17050.0 4.8358e-10
17070.0 4.8204e-10
17090.0 4.8054e-10
17110.0 4.7903e-10
17130.0 4.7745e-10
17150.0 4.7593e-10
17170.0 4.7445e-10
17190.0 4.7291e-10
17210.0 4.7137e-10
17230.0 4.6989e-10
17250.0 4.6837e-10
17270.0 4.668e-10
17290.0 4.6529e-10
17310.0 4.6379e-10
17330.0 4.6225e-10
17350.0 4.6069e-10
17370.0 4.5922e-10
17390.0 4.577e-10
17410.0 4.5615e-10
17430.0 4.5464e-10
17450.0 4.5316e-10
17470.0 4.5158e-10
17490.0 4.5004e-10
17510.0 4.4855e-10
17530.0 4.4703e-10
17550.0 4.4547e-10
17570.0 4.4397e-10
17590.0 4.4248e-10
17610.0 4.4093e-10
17630.0 4.394e-10
17650.0 4.3791e-10
17670.0 4.3639e-10
17690.0 4.348e-10
17710.0 4.3331e-10
17730.0 4.3181e-10
17750.0 4.3026e-10
17770.0 4.2873e-10
17790.0 4.2726e-10
17810.0 4.2572e-10
17830.0 4.2416e-10
17850.0 4.2266e-10
17870.0 4.2115e-10
17890.0 4.1959e-10
17910.0 4.1805e-10
17930.0 4.1658e-10
17950.0 4.1505e-10
17970.0 4.135e-10
17990.0 4.1201e-10
18010.0 4.1051e-10
18030.0 4.0893e-10
18050.0 4.074e-10
18070.0 4.0591e-10
18090.0 4.0438e-10
18110.0 4.0282e-10
18130.0 4.0133e-10
18150.0 3.9983e-10
18170.0 3.9827e-10
18190.0 3.9675e-10
18210.0 3.9527e-10
18230.0 3.9371e-10
18250.0 3.9215e-10
18270.0 3.9066e-10
18290.0 3.8915e-10
18310.0 3.8759e-10
18330.0 3.8608e-10
18350.0 3.846e-10
18370.0 3.8305e-10
18390.0 3.815e-10
18410.0 3.8001e-10
18430.0 3.7849e-10
18450.0 3.7691e-10
18470.0 3.754e-10
18490.0 3.7391e-10
18510.0 3.7237e-10
18530.0 3.7083e-10
18550.0 3.6935e-10
18570.0 3.6782e-10
18590.0 3.6625e-10
18610.0 3.6474e-10
18630.0 3.6324e-10
18650.0 3.6168e-10
18670.0 3.6013e-10
18690.0 3.5866e-10
18710.0 3.5713e-10
18730.0 3.5558e-10
18750.0 3.5407e-10
18770.0 3.5259e-10
18790.0 3.51e-10
18810.0 3.4946e-10
18830.0 3.4797e-10
18850.0 3.4644e-10
18870.0 3.4488e-10
18890.0 3.4339e-10
18910.0 3.4189e-10
18930.0 3.4033e-10
18950.0 3.388e-10
18970.0 3.3731e-10
18990.0 3.3578e-10
19010.0 3.3418e-10
19030.0 3.327e-10
19050.0 3.3119e-10
19070.0 3.2964e-10
19090.0 3.2811e-10
19110.0 3.2664e-10
19130.0 3.2508e-10
19150.0 3.2353e-10
19170.0 3.2202e-10
19190.0 3.2051e-10
19210.0 3.1894e-10
19230.0 3.1741e-10
19250.0 3.1593e-10
19270.0 3.1439e-10
19290.0 3.1284e-10
19310.0 3.1135e-10
19330.0 3.0984e-10
19350.0 3.0825e-10
19370.0 3.0673e-10
19390.0 3.0524e-10
19410.0 3.0369e-10
19430.0 3.0213e-10
19450.0 3.0065e-10
19470.0 2.9914e-10
19490.0 2.9757e-10
19510.0 2.9605e-10
19530.0 2.9456e-10
19550.0 2.93e-10
19570.0 2.9143e-10
19590.0 2.8995e-10
19610.0 2.8843e-10
19630.0 2.8687e-10
19650.0 2.8535e-10
19670.0 2.8387e-10
19690.0 2.8231e-10
19710.0 2.8076e-10
19730.0 2.7927e-10
19750.0 2.7774e-10
19770.0 2.7616e-10
19790.0 2.7465e-10
19810.0 2.7315e-10
19830.0 2.7161e-10
19850.0 2.7007e-10
19870.0 2.686e-10
19890.0 2.671e-10
19910.0 2.6558e-10
19930.0 2.6418e-10
19950.0 2.6285e-10
19970.0 2.6159e-10
19990.0 2.6046e-10
20010.0 2.5953e-10
20030.0 2.5872e-10
20050.0 2.5804e-10
20070.0 2.5752e-10
20090.0 2.5709e-10
20110.0 2.5672e-10
20130.0 2.564e-10
20150.0 2.5612e-10
20170.0 2.5584e-10
20190.0 2.5555e-10
20210.0 2.5526e-10
20230.0 2.5497e-10
20250.0 2.5464e-10
20270.0 2.5431e-10
20290.0 2.5397e-10
20310.0 2.5359e-10
20330.0 2.5318e-10
20350.0 2.5278e-10
20370.0 2.5236e-10
20390.0 2.519e-10
20410.0 2.5143e-10
20430.0 2.5096e-10
20450.0 2.5045e-10
20470.0 2.4993e-10
20490.0 2.4942e-10
20510.0 2.4891e-10
20530.0 2.4839e-10
20550.0 2.4788e-10
20570.0 2.474e-10
20590.0 2.469e-10
20610.0 2.4642e-10
20630.0 2.4597e-10
20650.0 2.4552e-10
20670.0 2.4505e-10
20690.0 2.4461e-10
20710.0 2.4417e-10
20730.0 2.4371e-10
20750.0 2.4324e-10
20770.0 2.4276e-10
20790.0 2.4225e-10
20810.0 2.4169e-10
20830.0 2.4111e-10
20850.0 2.4049e-10
20870.0 2.3981e-10
20890.0 2.3907e-10
20910.0 2.3833e-10
20930.0 2.3754e-10
20950.0 2.3669e-10
20970.0 2.3583e-10
20990.0 2.3496e-10
21010.0 2.3403e-10
21030.0 2.3309e-10
21050.0 2.3218e-10
21070.0 2.3125e-10
21090.0 2.3029e-10
21110.0 2.2938e-10
21130.0 2.2849e-10
21150.0 2.2758e-10
21170.0 2.2669e-10
21190.0 2.2583e-10
21210.0 2.2495e-10
21230.0 2.2406e-10
21250.0 2.232e-10
21270.0 2.2233e-10
21290.0 2.2143e-10
21310.0 2.2052e-10
21330.0 2.1963e-10
21350.0 2.1869e-10
21370.0 2.1772e-10
21390.0 2.1674e-10
21410.0 2.1575e-10
21430.0 2.1468e-10
21450.0 2.1361e-10
21470.0 2.1255e-10
21490.0 2.1144e-10
21510.0 2.1028e-10
21530.0 2.0916e-10
21550.0 2.0802e-10
21570.0 2.0681e-10
21590.0 2.0562e-10
21610.0 2.0445e-10
21630.0 2.0324e-10
21650.0 2.02e-10
21670.0 2.0083e-10
21690.0 1.9965e-10
21710.0 1.9843e-10
21730.0 1.9724e-10
21750.0 1.961e-10
21770.0 1.9489e-10
21790.0 1.9368e-10
21810.0 1.9253e-10
21830.0 1.9136e-10
21850.0 1.9015e-10
21870.0 1.8898e-10
21890.0 1.8785e-10
21910.0 1.8667e-10
21930.0 1.8549e-10
21950.0 1.8436e-10
21970.0 1.8323e-10
21990.0 1.8206e-10
22010.0 1.8096e-10
22030.0 1.7989e-10
22050.0 1.7882e-10
22070.0 1.7778e-10
22090.0 1.7682e-10
22110.0 1.7588e-10
22130.0 1.7495e-10
22150.0 1.7409e-10
22170.0 1.7328e-10
22190.0 1.7248e-10
22210.0 1.7173e-10
22230.0 1.7105e-10
22250.0 1.7038e-10
22270.0 1.6974e-10
22290.0 1.6914e-10
22310.0 1.6857e-10
22330.0 1.6799e-10
22350.0 1.6744e-10
22370.0 1.6691e-10
22390.0 1.6637e-10
22410.0 1.6582e-10
22430.0 1.6529e-10
22450.0 1.6477e-10
22470.0 1.6422e-10
22490.0 1.6367e-10
22510.0 1.6314e-10
22530.0 1.6257e-10
22550.0 1.6199e-10
22570.0 1.6144e-10
22590.0 1.6088e-10
22610.0 1.603e-10
