#lamb flux
1010.0 1.9871e-06
1030.0 2.1442e-06
1050.0 2.3252e-06
1070.0 2.5291e-06
1090.0 2.7607e-06
1110.0 2.9985e-06
1130.0 3.2382e-06
1150.0 3.4896e-06
1170.0 3.7492e-06
1190.0 3.996e-06
1210.0 4.2464e-06
1230.0 4.5057e-06
1250.0 4.7602e-06
1270.0 5.0081e-06
1290.0 5.2704e-06
1310.0 5.5332e-06
1330.0 5.786e-06
1350.0 6.0423e-06
1370.0 6.3074e-06
1390.0 6.5668e-06
1410.0 6.8195e-06
1430.0 7.0841e-06
1450.0 7.3494e-06
1470.0 7.6069e-06
1490.0 7.8678e-06
1510.0 8.1436e-06
1530.0 8.4061e-06
1550.0 8.6657e-06
1570.0 8.9345e-06
1590.0 9.2038e-06
1610.0 9.4619e-06
1630.0 9.7278e-06
1650.0 1e-05
1670.0 1.0264e-05
1690.0 1.0524e-05
1710.0 1.0793e-05
1730.0 1.1063e-05
1750.0 1.1316e-05
1770.0 1.1575e-05
1790.0 1.1837e-05
1810.0 1.209e-05
1830.0 1.2335e-05
1850.0 1.2594e-05
1870.0 1.2842e-05
1890.0 1.308e-05
1910.0 1.3319e-05
1930.0 1.356e-05
1950.0 1.3787e-05
1970.0 1.4006e-05
1990.0 1.423e-05
2010.0 1.4446e-05
2030.0 1.4649e-05
2050.0 1.4854e-05
2070.0 1.5062e-05
2090.0 1.5249e-05
2110.0 1.5432e-05
2130.0 1.5617e-05
2150.0 1.5793e-05
2170.0 1.5953e-05
2190.0 1.6118e-05
2210.0 1.6279e-05
2230.0 1.6427e-05
2250.0 1.6569e-05
2270.0 1.6718e-05
2290.0 1.6855e-05
2310.0 1.6978e-05
2330.0 1.7105e-05
2350.0 1.7231e-05
2370.0 1.7343e-05
2390.0 1.7455e-05
2410.0 1.7574e-05
2430.0 1.7685e-05
2450.0 1.7792e-05
2470.0 1.791e-05
2490.0 1.8048e-05
2510.0 1.8212e-05
2530.0 1.8472e-05
2550.0 1.894e-05
2570.0 1.9733e-05
2590.0 2.099e-05
2610.0 2.3066e-05
2630.0 2.6052e-05
2650.0 2.9783e-05
2670.0 3.4298e-05
2690.0 3.943e-05
2710.0 4.4473e-05
2730.0 4.9085e-05
2750.0 5.3345e-05
2770.0 5.6866e-05
2790.0 5.9611e-05
2810.0 6.1888e-05
2830.0 6.3931e-05
2850.0 6.5653e-05
2870.0 6.7294e-05
2890.0 6.901e-05
2910.0 7.0757e-05
2930.0 7.2463e-05
2950.0 7.4291e-05
2970.0 7.6217e-05
2990.0 7.8117e-05
3010.0 0.00044338
3030.0 0.00045458
3050.0 0.00046559
3070.0 0.0004752
3090.0 0.00048323
3110.0 0.00048732
3130.0 0.00048465
3150.0 0.00047251
3170.0 0.00044543
3190.0 0.00040311
3210.0 0.00034679
3230.0 0.00028409
3250.0 0.00034156
3270.0 0.00027553
3290.0 0.00041805
3310.0 0.00026728
3330.0 0.00026886
3350.0 0.0002923
3370.0 0.00032116
3390.0 0.0003535
3410.0 0.00038617
3430.0 0.00042074
3450.0 0.00045618
3470.0 0.00048961
3490.0 0.00051556
3510.0 0.00058246
3530.0 0.00069299
3550.0 0.00068846
3570.0 0.00061899
3590.0 0.00075512
3610.0 0.0005954
3630.0 0.00080791
3650.0 0.00090746
3670.0 0.0010788
3690.0 0.0010244
3710.0 0.00078422
3730.0 0.00091345
3750.0 0.00092471
3770.0 0.0010025
3790.0 0.0010322
3810.0 0.0011426
3830.0 0.00169
3850.0 0.0021193
3870.0 0.0025561
3890.0 0.002586
3910.0 0.0024128
3930.0 0.0024275
3950.0 0.0025617
3970.0 0.002512
3990.0 0.0015246
4010.0 0.00092728
4030.0 0.0016186
4050.0 0.002214
4070.0 0.002185
4090.0 0.0013559
4110.0 0.00097173
4130.0 0.0016394
4150.0 0.0017931
4170.0 0.0015384
4190.0 0.0013153
4210.0 0.0019064
4230.0 0.0016202
4250.0 0.0016134
4270.0 0.0016026
4290.0 0.0014605
4310.0 0.0018217
4330.0 0.0020602
4350.0 0.0019758
4370.0 0.0017621
4390.0 0.0019482
4410.0 0.0018926
4430.0 0.0014013
4450.0 0.0011506
4470.0 0.0014037
4490.0 0.0012269
4510.0 0.0017699
4530.0 0.001821
4550.0 0.0019401
4570.0 0.0025332
4590.0 0.0027712
4610.0 0.0029079
4630.0 0.0040893
4650.0 0.0047925
4670.0 0.0047646
4690.0 0.0041727
4710.0 0.0042141
4730.0 0.0040196
4750.0 0.0030713
4770.0 0.002442
4790.0 0.0018132
4810.0 0.0021197
4830.0 0.0024708
4850.0 0.0023642
4870.0 0.0017197
4890.0 0.0028266
4910.0 0.0031734
4930.0 0.0034587
4950.0 0.0038834
4970.0 0.0035512
4990.0 0.0040546
5010.0 0.0043431
5030.0 0.0042156
5050.0 0.0035657
5070.0 0.0025495
5090.0 0.0021166
5110.0 0.0021154
5130.0 0.0021473
5150.0 0.0020877
5170.0 0.0019598
5190.0 0.0021552
5210.0 0.002212
5230.0 0.0024433
5250.0 0.0027085
5270.0 0.0024566
5290.0 0.0027494
5310.0 0.0036437
5330.0 0.0040585
5350.0 0.0036564
5370.0 0.0035448
5390.0 0.0039306
5410.0 0.0041836
5430.0 0.0042061
5450.0 0.0043948
5470.0 0.0046856
5490.0 0.0053031
5510.0 0.0063518
5530.0 0.0066043
5550.0 0.0067186
5570.0 0.0067762
5590.0 0.006555
5610.0 0.0061753
5630.0 0.0061473
5650.0 0.0063779
5670.0 0.0061811
5690.0 0.0054834
5710.0 0.0054209
5730.0 0.0051595
5750.0 0.0048801
5770.0 0.0042872
5790.0 0.0043759
5810.0 0.0046011
5830.0 0.0050369
5850.0 0.0048612
5870.0 0.0047972
5890.0 0.0051652
5910.0 0.0047773
5930.0 0.0042253
5950.0 0.0040882
5970.0 0.0043341
5990.0 0.0038545
6010.0 0.0033477
6030.0 0.0030423
6050.0 0.0027617
6070.0 0.0024199
6090.0 0.0024908
6110.0 0.002907
6130.0 0.0030428
6150.0 0.0030962
6170.0 0.0031532
6190.0 0.0032511
6210.0 0.0036235
6230.0 0.0042917
6250.0 0.0039822
6270.0 0.0035137
6290.0 0.0030896
6310.0 0.0026405
6330.0 0.0023686
6350.0 0.0022182
6370.0 0.0023262
6390.0 0.0026301
6410.0 0.0031963
6430.0 0.0038837
6450.0 0.0042985
6470.0 0.0046169
6490.0 0.0053587
6510.0 0.0059477
6530.0 0.005721
6550.0 0.0054556
6570.0 0.0055171
6590.0 0.0054988
6610.0 0.0055758
6630.0 0.0052306
6650.0 0.0046518
6670.0 0.0044269
6690.0 0.0043588
6710.0 0.0046619
6730.0 0.0040976
6750.0 0.0034534
6770.0 0.0032937
6790.0 0.0035098
6810.0 0.0039722
6830.0 0.0040046
6850.0 0.0036441
6870.0 0.0036823
6890.0 0.0036448
6910.0 0.0034292
6930.0 0.0035871
6950.0 0.0034474
6970.0 0.0033308
6990.0 0.003386
7010.0 0.0035437
7030.0 0.0034813
7050.0 0.00324
7070.0 0.003233
7090.0 0.0029112
7110.0 0.0024963
7130.0 0.0023506
7150.0 0.0024425
7170.0 0.0027937
7190.0 0.0028586
7210.0 0.0027492
7230.0 0.0029717
7250.0 0.0030964
7270.0 0.0031467
7290.0 0.00327
7310.0 0.0033738
7330.0 0.0032177
7350.0 0.0029841
7370.0 0.0027646
7390.0 0.002721
7410.0 0.0030341
7430.0 0.0034865
7450.0 0.0037869
7470.0 0.0040432
7490.0 0.0046493
7510.0 0.0046066
7530.0 0.0039226
7550.0 0.0034986
7570.0 0.0029607
7590.0 0.0026701
7610.0 0.0025906
7630.0 0.0024971
7650.0 0.0026906
7670.0 0.0030352
7690.0 0.0033224
7710.0 0.0037954
7730.0 0.0039477
7750.0 0.0040905
7770.0 0.004356
7790.0 0.0046042
7810.0 0.0045626
7830.0 0.0041449
7850.0 0.0041341
7870.0 0.0040164
7890.0 0.0039363
7910.0 0.0036719
7930.0 0.0035427
7950.0 0.0029551
7970.0 0.0028915
7990.0 0.0028612
8010.0 0.0032624
8030.0 0.003261
8050.0 0.0034554
8070.0 0.0033441
8090.0 0.0033562
8110.0 0.0033031
8130.0 0.0032101
8150.0 0.0029881
8170.0 0.0029503
8190.0 0.0029654
8210.0 0.0029962
8230.0 0.0026659
8250.0 0.0024558
8270.0 0.0021677
8290.0 0.0018332
8310.0 0.0015723
8330.0 0.0012088
8350.0 0.00095492
8370.0 0.00090007
8390.0 0.00089501
8410.0 0.0009689
8430.0 0.0012466
8450.0 0.0013691
8470.0 0.0014795
8490.0 0.0017092
8510.0 0.0018571
8530.0 0.0020905
8550.0 0.0024736
8570.0 0.0027388
8590.0 0.0029001
8610.0 0.0032657
8630.0 0.0037518
8650.0 0.0038795
8670.0 0.0039655
8690.0 0.0040653
8710.0 0.0039733
8730.0 0.0038226
8750.0 0.0035211
8770.0 0.0035049
8790.0 0.0034343
8810.0 0.0031634
8830.0 0.0031158
8850.0 0.0027992
8870.0 0.0026405
8890.0 0.0023799
8910.0 0.0026653
8930.0 0.0024355
8950.0 0.0024614
8970.0 0.0025214
8990.0 0.0024663
9010.0 0.0025203
9030.0 0.0023966
9050.0 0.0023867
9070.0 0.0023889
9090.0 0.0023908
9110.0 0.0023944
9130.0 0.0023959
9150.0 0.0023963
9170.0 0.0023909
9190.0 0.0023775
9210.0 0.0024132
9230.0 0.0024055
9250.0 0.0024019
9270.0 0.0023994
9290.0 0.0023975
9310.0 0.002396
9330.0 0.0023947
9350.0 0.0023935
9370.0 0.0023923
9390.0 0.0023909
9410.0 0.0023895
9430.0 0.0023881
9450.0 0.0023864
9470.0 0.0023847
9490.0 0.002383
9510.0 0.0023812
9530.0 0.0023793
9550.0 0.0023775
9570.0 0.0023756
9590.0 0.0023737
9610.0 0.0023718
9630.0 0.00237
9650.0 0.0023681
9670.0 0.0023662
9690.0 0.0023644
9710.0 0.0023627
9730.0 0.0023609
9750.0 0.0023592
9770.0 0.0023578
9790.0 0.0023563
9810.0 0.0023548
9830.0 0.0023535
9850.0 0.0023523
9870.0 0.002351
9890.0 0.0023499
9910.0 0.0023491
9930.0 0.0023482
9950.0 0.0023446
9970.0 0.0023448
9990.0 0.0023451
10010.0 0.0023451
10030.0 0.0023451
10050.0 0.0023442
10070.0 0.0023383
10090.0 0.0023404
10110.0 0.0023424
10130.0 0.002344
10150.0 0.0023453
10170.0 0.0023463
10190.0 0.002347
10210.0 0.0023479
10230.0 0.0023489
10250.0 0.0023498
10270.0 0.0023508
10290.0 0.0023521
10310.0 0.0023533
10330.0 0.0023544
10350.0 0.0023559
10370.0 0.0023574
10390.0 0.0023589
10410.0 0.0023605
10430.0 0.0023624
10450.0 0.0023642
10470.0 0.0023659
10490.0 0.0023679
10510.0 0.0023699
10530.0 0.0023718
10550.0 0.0023739
10570.0 0.0023761
10590.0 0.0023782
10610.0 0.0023803
10630.0 0.0023826
10650.0 0.0023849
10670.0 0.0023871
10690.0 0.0023894
10710.0 0.0023917
10730.0 0.002394
10750.0 0.0023963
10770.0 0.0023987
10790.0 0.002401
10810.0 0.0024033
10830.0 0.0024055
10850.0 0.0024075
10870.0 0.0024089
10890.0 0.0024092
10910.0 0.0024078
10930.0 0.0024033
10950.0 0.0023935
10970.0 0.0023775
10990.0 0.0023546
11010.0 0.0024084
11030.0 0.0023623
11050.0 0.0023087
11070.0 0.002247
11090.0 0.0021756
11110.0 0.0021047
11130.0 0.002034
11150.0 0.0019617
11170.0 0.0018919
11190.0 0.0018287
11210.0 0.0017683
11230.0 0.0017115
11250.0 0.0016619
11270.0 0.0016183
11290.0 0.0015782
11310.0 0.0015432
11330.0 0.0015143
11350.0 0.0014878
11370.0 0.0014634
11390.0 0.0014413
11410.0 0.0014201
11430.0 0.0013977
11450.0 0.0013748
11470.0 0.0013512
11490.0 0.0013256
11510.0 0.0012972
11530.0 0.0012683
11550.0 0.0012382
11570.0 0.0012056
11590.0 0.0011724
11610.0 0.0011398
11630.0 0.0011059
11650.0 0.0010715
11670.0 0.0010393
11690.0 0.0010081
11710.0 0.00097689
11730.0 0.00094735
11750.0 0.00092023
11770.0 0.0008934
11790.0 0.00086757
11810.0 0.00084377
11830.0 0.00082107
11850.0 0.00079819
11870.0 0.00077681
11890.0 0.00075673
11910.0 0.00073654
11930.0 0.0007165
11950.0 0.0006975
11970.0 0.00067855
11990.0 0.000659
12010.0 0.00064015
12030.0 0.00062197
12050.0 0.00060362
12070.0 0.00058543
12090.0 0.00056903
12110.0 0.00055332
12130.0 0.00053837
12150.0 0.00052524
12170.0 0.00051413
12190.0 0.00050439
12210.0 0.00049711
12230.0 0.00049252
12250.0 0.00049045
12270.0 0.00049118
12290.0 0.00049472
12310.0 0.00050072
12330.0 0.00050959
12350.0 0.00052087
12370.0 0.00053372
12390.0 0.00054833
12410.0 0.00056501
12430.0 0.00058146
12450.0 0.00059788
12470.0 0.00061458
12490.0 0.00063051
12510.0 0.00064468
12530.0 0.00065795
12550.0 0.00066989
12570.0 0.00067968
12590.0 0.00068761
12610.0 0.00069401
12630.0 0.00069851
12650.0 0.00070108
12670.0 0.00070221
12690.0 0.00070185
12710.0 0.00070018
12730.0 0.00069742
12750.0 0.00069344
12770.0 0.00068859
12790.0 0.00068307
12810.0 0.00067671
12830.0 0.00066945
12850.0 0.00066183
12870.0 0.00065361
12890.0 0.00064435
12910.0 0.00063446
12930.0 0.00062413
12950.0 0.00061258
12970.0 0.0005999
12990.0 0.00058703
13010.0 0.00057341
13030.0 0.00055869
13050.0 0.00054371
13070.0 0.00052902
13090.0 0.00051366
13110.0 0.00049835
13130.0 0.00048402
13150.0 0.00047036
13170.0 0.00045702
13190.0 0.00044538
13210.0 0.00043544
13230.0 0.00042667
13250.0 0.0004195
13270.0 0.00041419
13290.0 0.00041032
13310.0 0.00040782
13330.0 0.00040673
13350.0 0.0004067
13370.0 0.00040749
13390.0 0.00040888
13410.0 0.00041044
13430.0 0.00041202
13450.0 0.00041339
13470.0 0.00041428
13490.0 0.00041459
13510.0 0.00041424
13530.0 0.00041317
13550.0 0.0004115
13570.0 0.00040925
13590.0 0.00040647
13610.0 0.00040348
13630.0 0.00040041
13650.0 0.0003972
13670.0 0.00039411
13690.0 0.0003913
13710.0 0.00038871
13730.0 0.0003863
13750.0 0.00038428
13770.0 0.0003825
13790.0 0.00038083
13810.0 0.00037925
13830.0 0.00037772
13850.0 0.00037605
13870.0 0.00037417
13890.0 0.00037209
13910.0 0.00036975
13930.0 0.00036702
13950.0 0.000364
13970.0 0.00036089
13990.0 0.00035753
14010.0 0.00035404
14030.0 0.00035067
14050.0 0.00034742
14070.0 0.00034422
14090.0 0.00034137
14110.0 0.00033889
14130.0 0.00033672
14150.0 0.00033489
14170.0 0.00033348
14190.0 0.00033241
14210.0 0.00033166
14230.0 0.00033126
14250.0 0.00033116
14270.0 0.00033142
14290.0 0.00033206
14310.0 0.00033299
14330.0 0.00033427
14350.0 0.00033597
14370.0 0.00033797
14390.0 0.00034017
14410.0 0.00034277
14430.0 0.00034561
14450.0 0.0003485
14470.0 0.00035154
14490.0 0.00035488
14510.0 0.00035816
14530.0 0.00036143
14550.0 0.00036497
14570.0 0.00036874
14590.0 0.00037258
14610.0 0.00037686
14630.0 0.0003818
14650.0 0.00038713
14670.0 0.00039296
14690.0 0.00039971
14710.0 0.00040736
14730.0 0.00041522
14750.0 0.00042395
14770.0 0.00043357
14790.0 0.00044345
14810.0 0.00045342
14830.0 0.0004643
14850.0 0.000475
14870.0 0.00048507
14890.0 0.00049488
14910.0 0.00050424
14930.0 0.00051229
14950.0 0.00051902
14970.0 0.00052471
14990.0 0.00052882
15010.0 0.00053135
15030.0 0.00053264
15050.0 0.00053281
15070.0 0.00053203
15090.0 0.00053067
15110.0 0.0005289
15130.0 0.00052689
15150.0 0.00052481
15170.0 0.00052263
15190.0 0.00052041
15210.0 0.00051822
15230.0 0.00051605
15250.0 0.00051382
15270.0 0.00051162
15290.0 0.00050949
15310.0 0.00050732
15330.0 0.00050514
15350.0 0.00050301
15370.0 0.0005009
15390.0 0.00049872
15410.0 0.00049659
15430.0 0.0004945
15450.0 0.00049239
15470.0 0.00049026
15490.0 0.0004882
15510.0 0.00048614
15530.0 0.00048405
15550.0 0.00048198
15570.0 0.00047997
15590.0 0.0004779
15610.0 0.00047583
15630.0 0.00047383
15650.0 0.00047183
15670.0 0.00046979
15690.0 0.0004678
15710.0 0.00046585
15730.0 0.00046385
15750.0 0.00046186
15770.0 0.00045992
15790.0 0.00045798
15810.0 0.00045598
15830.0 0.00045405
15850.0 0.00045215
15870.0 0.00045022
15890.0 0.00044829
15910.0 0.00044643
15930.0 0.00044454
15950.0 0.00044261
15970.0 0.00044074
15990.0 0.0004389
16010.0 0.00043702
16030.0 0.00043513
16050.0 0.00043332
16070.0 0.00043149
16090.0 0.00042964
16110.0 0.00042783
16130.0 0.00042605
16150.0 0.0004242
16170.0 0.00042238
16190.0 0.00042061
16210.0 0.00041883
16230.0 0.00041702
16250.0 0.00041526
16270.0 0.00041353
16290.0 0.00041174
16310.0 0.00040998
16330.0 0.00040826
16350.0 0.00040652
16370.0 0.00040473
16390.0 0.00040303
16410.0 0.00040133
16430.0 0.00039959
16450.0 0.00039787
16470.0 0.00039621
16490.0 0.00039449
16510.0 0.00039277
16530.0 0.00039109
16550.0 0.00038943
16570.0 0.00038771
16590.0 0.00038602
16610.0 0.00038439
16630.0 0.00038272
16650.0 0.00038103
16670.0 0.0003794
16690.0 0.00037777
16710.0 0.00037607
16730.0 0.00037443
16750.0 0.00037281
16770.0 0.00037116
16790.0 0.0003695
16810.0 0.0003679
16830.0 0.00036629
16850.0 0.00036464
16870.0 0.00036302
16890.0 0.00036144
16910.0 0.0003598
16930.0 0.00035815
16950.0 0.00035658
16970.0 0.00035498
16990.0 0.00035335
17010.0 0.00035176
17030.0 0.0003502
17050.0 0.00034859
17070.0 0.00034698
17090.0 0.00034541
17110.0 0.00034384
17130.0 0.00034221
17150.0 0.00034063
17170.0 0.00033908
17190.0 0.00033749
17210.0 0.0003359
17230.0 0.00033437
17250.0 0.0003328
17270.0 0.00033119
17290.0 0.00032963
17310.0 0.00032809
17330.0 0.00032651
17350.0 0.00032492
17370.0 0.0003234
17390.0 0.00032185
17410.0 0.00032027
17430.0 0.00031873
17450.0 0.00031721
17470.0 0.00031561
17490.0 0.00031405
17510.0 0.00031253
17530.0 0.00031099
17550.0 0.00030941
17570.0 0.00030789
17590.0 0.00030638
17610.0 0.00030481
17630.0 0.00030327
17650.0 0.00030176
17670.0 0.00030023
17690.0 0.00029864
17710.0 0.00029713
17730.0 0.00029562
17750.0 0.00029408
17770.0 0.00029254
17790.0 0.00029106
17810.0 0.00028952
17830.0 0.00028797
17850.0 0.00028647
17870.0 0.00028497
17890.0 0.00028342
17910.0 0.00028189
17930.0 0.00028042
17950.0 0.0002789
17970.0 0.00027737
17990.0 0.00027589
18010.0 0.00027441
18030.0 0.00027286
18050.0 0.00027135
18070.0 0.00026988
18090.0 0.00026837
18110.0 0.00026685
18130.0 0.00026538
18150.0 0.00026391
18170.0 0.00026239
18190.0 0.00026091
18210.0 0.00025945
18230.0 0.00025794
18250.0 0.00025643
18270.0 0.00025498
18290.0 0.00025351
18310.0 0.00025201
18330.0 0.00025054
18350.0 0.00024911
18370.0 0.00024762
18390.0 0.00024613
18410.0 0.0002447
18430.0 0.00024324
18450.0 0.00024174
18470.0 0.00024029
18490.0 0.00023887
18510.0 0.0002374
18530.0 0.00023594
18550.0 0.00023453
18570.0 0.00023309
18590.0 0.00023161
18610.0 0.00023018
18630.0 0.00022877
18650.0 0.00022731
18670.0 0.00022586
18690.0 0.00022447
18710.0 0.00022305
18730.0 0.00022161
18750.0 0.00022021
18770.0 0.00021882
18790.0 0.00021736
18810.0 0.00021594
18830.0 0.00021457
18850.0 0.00021316
18870.0 0.00021174
18890.0 0.00021036
18910.0 0.00020899
18930.0 0.00020758
18950.0 0.00020618
18970.0 0.00020483
18990.0 0.00020344
19010.0 0.00020201
19030.0 0.00020067
19050.0 0.00019932
19070.0 0.00019793
19090.0 0.00019656
19110.0 0.00019525
19130.0 0.00019387
19150.0 0.00019249
19170.0 0.00019116
19190.0 0.00018982
19210.0 0.00018845
19230.0 0.0001871
19250.0 0.0001858
19270.0 0.00018446
19290.0 0.00018311
19310.0 0.00018181
19330.0 0.00018051
19350.0 0.00017914
19370.0 0.00017783
19390.0 0.00017654
19410.0 0.00017522
19430.0 0.00017389
19450.0 0.00017262
19470.0 0.00017134
19490.0 0.00017002
19510.0 0.00016874
19530.0 0.00016748
19550.0 0.00016617
19570.0 0.00016486
19590.0 0.00016361
19610.0 0.00016235
19630.0 0.00016105
19650.0 0.0001598
19670.0 0.00015857
19690.0 0.00015729
19710.0 0.00015602
19730.0 0.00015479
19750.0 0.00015355
19770.0 0.00015226
19790.0 0.00015104
19810.0 0.00014982
19830.0 0.00014857
19850.0 0.00014732
19870.0 0.00014609
19890.0 0.00014479
19910.0 0.00014338
19930.0 0.0001419
19950.0 0.00014026
19970.0 0.00013831
19990.0 0.00013605
20010.0 0.00013359
20030.0 0.00013074
20050.0 0.00012757
20070.0 0.00012431
20090.0 0.00012101
20110.0 0.00011751
20130.0 0.00011422
20150.0 0.0001112
20170.0 0.00010829
20190.0 0.00010559
20210.0 0.00010323
20230.0 0.00010112
20250.0 9.9175e-05
20270.0 9.7533e-05
20290.0 9.6172e-05
20310.0 9.5011e-05
20330.0 9.4067e-05
20350.0 9.3413e-05
20370.0 9.2967e-05
20390.0 9.2734e-05
20410.0 9.2731e-05
20430.0 9.2935e-05
20450.0 9.3374e-05
20470.0 9.4045e-05
20490.0 9.4909e-05
20510.0 9.5988e-05
20530.0 9.7325e-05
20550.0 9.8832e-05
20570.0 0.00010046
20590.0 0.0001023
20610.0 0.00010429
20630.0 0.00010631
20650.0 0.00010841
20670.0 0.00011065
20690.0 0.00011277
20710.0 0.00011482
20730.0 0.00011686
20750.0 0.0001188
20770.0 0.00012053
20790.0 0.00012218
20810.0 0.00012374
20830.0 0.00012513
20850.0 0.00012639
20870.0 0.00012762
20890.0 0.00012879
20910.0 0.00012985
20930.0 0.00013091
20950.0 0.00013199
20970.0 0.00013303
20990.0 0.00013405
21010.0 0.0001351
21030.0 0.0001361
21050.0 0.00013701
21070.0 0.00013786
21090.0 0.00013864
21110.0 0.00013924
21130.0 0.0001397
21150.0 0.00014002
21170.0 0.00014017
21190.0 0.00014015
21210.0 0.00013997
21230.0 0.00013962
21250.0 0.00013914
21270.0 0.00013853
21290.0 0.00013779
21310.0 0.00013696
21330.0 0.00013609
21350.0 0.00013513
21370.0 0.0001341
21390.0 0.00013308
21410.0 0.00013206
21430.0 0.00013098
21450.0 0.00012995
21470.0 0.00012898
21490.0 0.00012802
21510.0 0.00012711
21530.0 0.00012629
21550.0 0.00012554
21570.0 0.00012485
21590.0 0.00012427
21610.0 0.0001238
21630.0 0.00012342
21650.0 0.00012317
21670.0 0.00012305
21690.0 0.00012306
21710.0 0.00012322
21730.0 0.00012351
21750.0 0.00012393
21770.0 0.00012452
21790.0 0.00012527
21810.0 0.00012613
21830.0 0.00012714
21850.0 0.00012833
21870.0 0.00012961
21890.0 0.00013097
21910.0 0.0001325
21930.0 0.00013412
21950.0 0.00013577
21970.0 0.00013751
21990.0 0.00013939
22010.0 0.00014121
22030.0 0.00014302
22050.0 0.00014488
22070.0 0.00014672
22090.0 0.00014842
22110.0 0.00015009
22130.0 0.00015171
22150.0 0.00015316
22170.0 0.00015445
22190.0 0.00015564
22210.0 0.00015662
22230.0 0.00015735
22250.0 0.00015789
22270.0 0.0001582
22290.0 0.00015824
22310.0 0.00015804
22330.0 0.00015755
22350.0 0.00015679
22370.0 0.00015578
22390.0 0.00015449
22410.0 0.00015289
22430.0 0.00015111
22450.0 0.00014913
22470.0 0.00014686
22490.0 0.00014441
22510.0 0.00014189
22530.0 0.00013913
22550.0 0.00013618
22570.0 0.00013327
22590.0 0.00013029
22610.0 0.00012717
22630.0 0.00012407
22650.0 0.00012111
22670.0 0.00011806
22690.0 0.00011504
22710.0 0.00011218
22730.0 0.00010941
22750.0 0.00010659
22770.0 0.00010399
22790.0 0.00010159
22810.0 9.9259e-05
22830.0 9.7059e-05
22850.0 9.5111e-05
22870.0 9.3306e-05
22890.0 9.1622e-05
22910.0 9.0179e-05
22930.0 8.8961e-05
22950.0 8.7914e-05
22970.0 8.7075e-05
22990.0 8.6509e-05
23010.0 8.6148e-05
23030.0 8.601e-05
