#lamb flux
1010.0 2.4313e-07
1030.0 2.6891e-07
1050.0 2.9855e-07
1070.0 3.3193e-07
1090.0 3.6983e-07
1110.0 4.0871e-07
1130.0 4.4784e-07
1150.0 4.8883e-07
1170.0 5.3111e-07
1190.0 5.712e-07
1210.0 6.1183e-07
1230.0 6.5382e-07
1250.0 6.9496e-07
1270.0 7.3491e-07
1290.0 7.7713e-07
1310.0 8.1931e-07
1330.0 8.5977e-07
1350.0 9.0068e-07
1370.0 9.4292e-07
1390.0 9.841e-07
1410.0 1.0241e-06
1430.0 1.0658e-06
1450.0 1.1076e-06
1470.0 1.148e-06
1490.0 1.1888e-06
1510.0 1.2319e-06
1530.0 1.2728e-06
1550.0 1.3131e-06
1570.0 1.3548e-06
1590.0 1.3966e-06
1610.0 1.4365e-06
1630.0 1.4776e-06
1650.0 1.5199e-06
1670.0 1.5608e-06
1690.0 1.6012e-06
1710.0 1.6432e-06
1730.0 1.6855e-06
1750.0 1.7252e-06
1770.0 1.7662e-06
1790.0 1.8081e-06
1810.0 1.8487e-06
1830.0 1.8886e-06
1850.0 1.931e-06
1870.0 1.9724e-06
1890.0 2.0125e-06
1910.0 2.0535e-06
1930.0 2.0955e-06
1950.0 2.1358e-06
1970.0 2.1756e-06
1990.0 2.217e-06
2010.0 2.2578e-06
2030.0 2.2973e-06
2050.0 2.338e-06
2070.0 2.3799e-06
2090.0 2.4195e-06
2110.0 2.4591e-06
2130.0 2.4999e-06
2150.0 2.54e-06
2170.0 2.5785e-06
2190.0 2.6185e-06
2210.0 2.6589e-06
2230.0 2.6976e-06
2250.0 2.7362e-06
2270.0 2.7767e-06
2290.0 2.8159e-06
2310.0 2.8536e-06
2330.0 2.8928e-06
2350.0 2.9331e-06
2370.0 2.9732e-06
2390.0 3.0167e-06
2410.0 3.0682e-06
2430.0 3.1274e-06
2450.0 3.1981e-06
2470.0 3.2888e-06
2490.0 3.4031e-06
2510.0 3.533e-06
2530.0 3.6894e-06
2550.0 3.8851e-06
2570.0 4.1287e-06
2590.0 4.4454e-06
2610.0 4.9197e-06
2630.0 5.5968e-06
2650.0 6.4821e-06
2670.0 7.6268e-06
2690.0 9.0335e-06
2710.0 1.0535e-05
2730.0 1.2019e-05
2750.0 1.348e-05
2770.0 1.4751e-05
2790.0 1.5761e-05
2810.0 1.6562e-05
2830.0 1.7188e-05
2850.0 1.7615e-05
2870.0 1.7928e-05
2890.0 1.8177e-05
2910.0 1.8375e-05
2930.0 1.8537e-05
2950.0 1.8691e-05
2970.0 1.8842e-05
2990.0 1.8984e-05
3010.0 0.00053659
3030.0 0.0005406
3050.0 0.00054448
3070.0 0.0005478
3090.0 0.00055066
3110.0 0.00055243
3130.0 0.00055236
3150.0 0.0005499
3170.0 0.00054402
3190.0 0.00053476
3210.0 0.00052304
3230.0 0.00050961
3250.0 0.00049636
3270.0 0.00048667
3290.0 0.0004813
3310.0 0.00048217
3330.0 0.00048915
3350.0 0.0005013
3370.0 0.00051865
3390.0 0.00054052
3410.0 0.00056431
3430.0 0.00059103
3450.0 0.00062178
3470.0 0.00065538
3490.0 0.00069097
3510.0 0.0007312
3530.0 0.00077428
3550.0 0.0008179
3570.0 0.00086341
3590.0 0.00091289
3610.0 0.00096388
3630.0 0.0010147
3650.0 0.0010675
3670.0 0.0011156
3690.0 0.0011516
3710.0 0.0011722
3730.0 0.0011729
3750.0 0.0011566
3770.0 0.0011502
3790.0 0.0011433
3810.0 0.0011152
3830.0 0.0011498
3850.0 0.0012856
3870.0 0.0013601
3890.0 0.0013539
3910.0 0.0013597
3930.0 0.0013955
3950.0 0.0014175
3970.0 0.0012915
3990.0 0.0011113
4010.0 0.0033306
4030.0 0.0040355
4050.0 0.0046264
4070.0 0.0040142
4090.0 0.0036357
4110.0 0.0032081
4130.0 0.0029527
4150.0 0.0031408
4170.0 0.0030938
4190.0 0.0032978
4210.0 0.0032677
4230.0 0.0034563
4250.0 0.0040889
4270.0 0.004137
4290.0 0.0038122
4310.0 0.0039611
4330.0 0.0042134
4350.0 0.0047243
4370.0 0.0053763
4390.0 0.0050451
4410.0 0.0037275
4430.0 0.0031555
4450.0 0.0028996
4470.0 0.0022255
4490.0 0.0024016
4510.0 0.0036277
4530.0 0.0041838
4550.0 0.0042201
4570.0 0.0047487
4590.0 0.0054092
4610.0 0.0072957
4630.0 0.0094757
4650.0 0.010276
4670.0 0.0095168
4690.0 0.0090807
4710.0 0.0095989
4730.0 0.0090587
4750.0 0.0067725
4770.0 0.0049679
4790.0 0.004639
4810.0 0.0044217
4830.0 0.0040481
4850.0 0.004442
4870.0 0.0058684
4890.0 0.0069205
4910.0 0.0060719
4930.0 0.0053727
4950.0 0.0059027
4970.0 0.0075699
4990.0 0.010259
5010.0 0.011802
5030.0 0.010406
5050.0 0.0070406
5070.0 0.00464
5090.0 0.0037415
5110.0 0.0038478
5130.0 0.0044409
5150.0 0.0048114
5170.0 0.0047392
5190.0 0.0044285
5210.0 0.0046287
5230.0 0.0048658
5250.0 0.005244
5270.0 0.0056579
5290.0 0.0062701
5310.0 0.0072982
5330.0 0.0080764
5350.0 0.0080249
5370.0 0.0084293
5390.0 0.0096728
5410.0 0.0096641
5430.0 0.0085465
5450.0 0.0078522
5470.0 0.0083376
5490.0 0.010186
5510.0 0.012736
5530.0 0.014608
5550.0 0.014119
5570.0 0.012835
5590.0 0.01116
5610.0 0.010292
5630.0 0.0099801
5650.0 0.0095051
5670.0 0.0090068
5690.0 0.008052
5710.0 0.0078509
5730.0 0.0072318
5750.0 0.0050988
5770.0 0.0039779
5790.0 0.0045078
5810.0 0.0050901
5830.0 0.0062463
5850.0 0.0074355
5870.0 0.0082498
5890.0 0.0083895
5910.0 0.0082307
5930.0 0.0078346
5950.0 0.0079834
5970.0 0.0091001
5990.0 0.0085565
6010.0 0.0071729
6030.0 0.00606
6050.0 0.0052775
6070.0 0.0052487
6090.0 0.0056913
6110.0 0.0063638
6130.0 0.0064613
6150.0 0.0055594
6170.0 0.0048905
6190.0 0.0055036
6210.0 0.0072756
6230.0 0.0095477
6250.0 0.010342
6270.0 0.0090371
6290.0 0.0076034
6310.0 0.0059358
6330.0 0.0045479
6350.0 0.0040566
6370.0 0.004266
6390.0 0.0049317
6410.0 0.006081
6430.0 0.007101
6450.0 0.0081253
6470.0 0.0093037
6490.0 0.011238
6510.0 0.012566
6530.0 0.012328
6550.0 0.011148
6570.0 0.0094634
6590.0 0.0085334
6610.0 0.007358
6630.0 0.006666
6650.0 0.0063013
6670.0 0.0061216
6690.0 0.0055312
6710.0 0.005028
6730.0 0.0036216
6750.0 0.0035904
6770.0 0.0039025
6790.0 0.0044856
6810.0 0.0041044
6830.0 0.0042264
6850.0 0.0039531
6870.0 0.0036111
6890.0 0.0034672
6910.0 0.0036948
6930.0 0.0034607
6950.0 0.0035605
6970.0 0.003745
6990.0 0.0042508
7010.0 0.0042871
7030.0 0.0043552
7050.0 0.0041533
7070.0 0.0039574
7090.0 0.003969
7110.0 0.0040838
7130.0 0.0043948
7150.0 0.0046676
7170.0 0.0051504
7190.0 0.0056617
7210.0 0.0055634
7230.0 0.0057193
7250.0 0.0061462
7270.0 0.0066979
7290.0 0.0079497
7310.0 0.0086262
7330.0 0.0083379
7350.0 0.0075412
7370.0 0.0065615
7390.0 0.0063655
7410.0 0.0067645
7430.0 0.0075179
7450.0 0.0081884
7470.0 0.0081132
7490.0 0.0073977
7510.0 0.0083798
7530.0 0.008288
7550.0 0.0074494
7570.0 0.0058194
7590.0 0.0040006
7610.0 0.0034338
7630.0 0.0039014
7650.0 0.0046129
7670.0 0.0057411
7690.0 0.0063176
7710.0 0.0065838
7730.0 0.0069187
7750.0 0.0077671
7770.0 0.0078892
7790.0 0.0072466
7810.0 0.0066121
7830.0 0.0068186
7850.0 0.0066283
7870.0 0.0060771
7890.0 0.0051059
7910.0 0.0041504
7930.0 0.003963
7950.0 0.0036105
7970.0 0.0033421
7990.0 0.0033231
8010.0 0.00024612
8030.0 0.00024292
8050.0 0.00023964
8070.0 0.00024278
8090.0 0.00026086
8110.0 0.00025642
8130.0 0.00021151
8150.0 0.00020599
8170.0 0.00017743
8190.0 0.00016815
8210.0 0.00021836
8230.0 0.00024312
8250.0 0.00021912
8270.0 0.00019072
8290.0 0.00018591
8310.0 0.00014309
8330.0 9.6441e-05
8350.0 6.8443e-05
8370.0 4.3122e-05
8390.0 7.8827e-05
8410.0 9.1855e-05
8430.0 0.00011323
8450.0 0.00013296
8470.0 0.00016526
8490.0 0.00016409
8510.0 0.00016141
8530.0 0.00016846
8550.0 0.00022728
8570.0 0.00026907
8590.0 0.00029032
8610.0 0.00036674
8630.0 0.00044179
8650.0 0.00046216
8670.0 0.00049114
8690.0 0.00049389
8710.0 0.00044729
8730.0 0.00041605
8750.0 0.00036724
8770.0 0.00034846
8790.0 0.00034234
8810.0 0.00032804
8830.0 0.00026232
8850.0 0.00019204
8870.0 0.00014704
8890.0 0.00014376
8910.0 0.00016475
8930.0 0.00018739
8950.0 0.00019098
8970.0 0.00019188
8990.0 0.00017113
9010.0 0.0017934
9030.0 0.001625
9050.0 0.0016329
9070.0 0.0016458
9090.0 0.0016571
9110.0 0.001671
9130.0 0.0016818
9150.0 0.0016902
9170.0 0.0016991
9190.0 0.0017086
9210.0 0.0017187
9230.0 0.0017293
9250.0 0.00174
9270.0 0.0017512
9290.0 0.0017627
9310.0 0.0017743
9330.0 0.0017861
9350.0 0.0017983
9370.0 0.0018107
9390.0 0.0018232
9410.0 0.0018361
9430.0 0.0018493
9450.0 0.0018625
9470.0 0.001876
9490.0 0.0018899
9510.0 0.0019039
9530.0 0.001918
9550.0 0.0019326
9570.0 0.0019475
9590.0 0.0019624
9610.0 0.0019775
9630.0 0.0019931
9650.0 0.0020088
9670.0 0.0020245
9690.0 0.0020406
9710.0 0.002057
9730.0 0.0020734
9750.0 0.0020901
9770.0 0.0021072
9790.0 0.0021244
9810.0 0.0021416
9830.0 0.0021592
9850.0 0.002177
9870.0 0.0021947
9890.0 0.0022128
9910.0 0.0022311
9930.0 0.0022495
9950.0 0.0022679
9970.0 0.0022868
9990.0 0.0023058
10010.0 0.0020008
10030.0 0.0020172
10050.0 0.002034
10070.0 0.0020513
10090.0 0.0020677
10110.0 0.0020844
10130.0 0.0021012
10150.0 0.002118
10170.0 0.0021349
10190.0 0.0021522
10210.0 0.0021692
10230.0 0.0021862
10250.0 0.0022035
10270.0 0.0022207
10290.0 0.0022378
10310.0 0.002255
10330.0 0.0022725
10350.0 0.0022896
10370.0 0.0023067
10390.0 0.002324
10410.0 0.0023412
10430.0 0.002358
10450.0 0.0023751
10470.0 0.0023921
10490.0 0.0024089
10510.0 0.0024256
10530.0 0.0024425
10550.0 0.0024592
10570.0 0.0024755
10590.0 0.0024919
10610.0 0.0025083
10630.0 0.0025243
10650.0 0.0025401
10670.0 0.0025561
10690.0 0.0025718
10710.0 0.0025872
10730.0 0.0026026
10750.0 0.002618
10770.0 0.0026328
10790.0 0.0026475
10810.0 0.0026621
10830.0 0.0026763
10850.0 0.0026898
10870.0 0.0027029
10890.0 0.0027144
10910.0 0.0027232
10930.0 0.0027282
10950.0 0.0027271
10970.0 0.0027178
10990.0 0.0026997
11010.0 0.0026694
11030.0 0.0026269
11050.0 0.0025752
11070.0 0.0025133
11090.0 0.0024389
11110.0 0.002362
11130.0 0.0022818
11150.0 0.0021954
11170.0 0.0021063
11190.0 0.00202
11210.0 0.0019308
11230.0 0.0018393
11250.0 0.0017519
11270.0 0.001668
11290.0 0.0015839
11310.0 0.0015042
11330.0 0.0014341
11350.0 0.0013678
11370.0 0.0013066
11390.0 0.0012536
11410.0 0.0012072
11430.0 0.0011642
11450.0 0.0011271
11470.0 0.001095
11490.0 0.0010651
11510.0 0.0010363
11530.0 0.0010097
11550.0 0.00098313
11570.0 0.00095484
11590.0 0.00092554
11610.0 0.00089572
11630.0 0.00086326
11650.0 0.00082851
11670.0 0.00079426
11690.0 0.00075953
11710.0 0.0007237
11730.0 0.00068898
11750.0 0.00065685
11770.0 0.00062534
11790.0 0.00059581
11810.0 0.00056981
11830.0 0.00054656
11850.0 0.00052515
11870.0 0.00050723
11890.0 0.00049234
11910.0 0.00047926
11930.0 0.00046801
11950.0 0.00045865
11970.0 0.00045028
11990.0 0.00044237
12010.0 0.00043505
12030.0 0.000428
12050.0 0.00042071
12070.0 0.00041313
12090.0 0.00040582
12110.0 0.0003984
12130.0 0.00039096
12150.0 0.00038411
12170.0 0.00037812
12190.0 0.00037295
12210.0 0.00036934
12230.0 0.00036759
12250.0 0.00036787
12270.0 0.00037065
12290.0 0.00037589
12310.0 0.00038341
12330.0 0.00039394
12350.0 0.00040707
12370.0 0.00042202
12390.0 0.00043927
12410.0 0.00045947
12430.0 0.00048
12450.0 0.00050126
12470.0 0.00052387
12490.0 0.00054658
12510.0 0.00056788
12530.0 0.00058908
12550.0 0.00060952
12570.0 0.00062757
12590.0 0.00064341
12610.0 0.00065753
12630.0 0.00066879
12650.0 0.00067656
12670.0 0.00068166
12690.0 0.00068371
12710.0 0.00068258
12730.0 0.00067862
12750.0 0.00067156
12770.0 0.00066188
12790.0 0.00065013
12810.0 0.0006361
12830.0 0.00061987
12850.0 0.0006029
12870.0 0.00058495
12890.0 0.00056553
12910.0 0.00054579
12930.0 0.00052634
12950.0 0.00050603
12970.0 0.00048537
12990.0 0.00046582
13010.0 0.00044651
13030.0 0.00042699
13050.0 0.00040823
13070.0 0.00039067
13090.0 0.00037304
13110.0 0.00035599
13130.0 0.00034026
13150.0 0.00032537
13170.0 0.00031079
13190.0 0.00029782
13210.0 0.0002864
13230.0 0.00027596
13250.0 0.00026697
13270.0 0.00025988
13290.0 0.00025437
13310.0 0.00025057
13330.0 0.00024884
13350.0 0.00024904
13370.0 0.00025128
13390.0 0.00025566
13410.0 0.00026159
13430.0 0.0002693
13450.0 0.00027882
13470.0 0.0002894
13490.0 0.00030059
13510.0 0.00031322
13530.0 0.00032602
13550.0 0.00033827
13570.0 0.00035035
13590.0 0.00036213
13610.0 0.0003726
13630.0 0.00038174
13650.0 0.00039009
13670.0 0.00039702
13690.0 0.00040238
13710.0 0.00040652
13730.0 0.00040949
13750.0 0.00041096
13770.0 0.0004113
13790.0 0.00041055
13810.0 0.00040874
13830.0 0.00040606
13850.0 0.00040243
13870.0 0.00039786
13890.0 0.00039263
13910.0 0.00038673
13930.0 0.0003799
13950.0 0.00037245
13970.0 0.00036483
13990.0 0.00035653
14010.0 0.00034771
14030.0 0.0003389
14050.0 0.00033003
14070.0 0.00032067
14090.0 0.00031169
14110.0 0.00030326
14130.0 0.00029508
14150.0 0.00028739
14170.0 0.00028082
14190.0 0.00027514
14210.0 0.00027033
14230.0 0.00026676
14250.0 0.00026445
14270.0 0.00026334
14290.0 0.00026357
14310.0 0.00026504
14330.0 0.00026768
14350.0 0.00027156
14370.0 0.0002764
14390.0 0.00028189
14410.0 0.00028836
14430.0 0.00029547
14450.0 0.00030272
14470.0 0.00031025
14490.0 0.00031825
14510.0 0.00032591
14530.0 0.00033318
14550.0 0.00034045
14570.0 0.00034743
14590.0 0.00035378
14610.0 0.00035992
14630.0 0.000366
14650.0 0.00037166
14670.0 0.00037713
14690.0 0.00038283
14710.0 0.00038882
14730.0 0.00039481
14750.0 0.00040146
14770.0 0.00040899
14790.0 0.00041715
14810.0 0.000426
14830.0 0.00043648
14850.0 0.00044788
14870.0 0.00045976
14890.0 0.00047259
14910.0 0.00048621
14930.0 0.00049931
14950.0 0.00051154
14970.0 0.00052313
14990.0 0.00053285
15010.0 0.00054028
15030.0 0.00054578
15050.0 0.00054942
15070.0 0.0005512
15090.0 0.00055182
15110.0 0.00055164
15130.0 0.00055094
15150.0 0.00055001
15170.0 0.00054891
15190.0 0.00054773
15210.0 0.00054657
15230.0 0.0005454
15250.0 0.0005442
15270.0 0.00054301
15290.0 0.00054188
15310.0 0.00054072
15330.0 0.00053955
15350.0 0.00053843
15370.0 0.00053731
15390.0 0.00053614
15410.0 0.00053501
15430.0 0.00053391
15450.0 0.00053279
15470.0 0.00053164
15490.0 0.00053056
15510.0 0.00052948
15530.0 0.00052836
15550.0 0.00052727
15570.0 0.00052621
15590.0 0.00052511
15610.0 0.00052399
15630.0 0.00052294
15650.0 0.00052188
15670.0 0.00052079
15690.0 0.00051972
15710.0 0.0005187
15730.0 0.00051762
15750.0 0.00051655
15770.0 0.00051551
15790.0 0.00051447
15810.0 0.00051338
15830.0 0.00051234
15850.0 0.00051132
15870.0 0.00051027
15890.0 0.00050922
15910.0 0.00050821
15930.0 0.00050718
15950.0 0.00050611
15970.0 0.00050508
15990.0 0.00050408
16010.0 0.00050303
16030.0 0.00050197
16050.0 0.00050098
16070.0 0.00049996
16090.0 0.00049891
16110.0 0.00049789
16130.0 0.0004969
16150.0 0.00049583
16170.0 0.00049479
16190.0 0.00049379
16210.0 0.00049277
16230.0 0.00049172
16250.0 0.0004907
16270.0 0.00048971
16290.0 0.00048866
16310.0 0.00048763
16330.0 0.00048663
16350.0 0.0004856
16370.0 0.00048452
16390.0 0.00048351
16410.0 0.0004825
16430.0 0.00048145
16450.0 0.00048041
16470.0 0.00047942
16490.0 0.00047837
16510.0 0.00047731
16530.0 0.00047629
16550.0 0.00047526
16570.0 0.00047419
16590.0 0.00047313
16610.0 0.00047213
16630.0 0.00047108
16650.0 0.00047001
16670.0 0.00046898
16690.0 0.00046795
16710.0 0.00046685
16730.0 0.0004658
16750.0 0.00046476
16770.0 0.00046369
16790.0 0.0004626
16810.0 0.00046156
16830.0 0.00046052
16850.0 0.00045942
16870.0 0.00045835
16890.0 0.00045731
16910.0 0.00045621
16930.0 0.0004551
16950.0 0.00045404
16970.0 0.00045297
16990.0 0.00045185
17010.0 0.00045077
17030.0 0.00044971
17050.0 0.0004486
17070.0 0.00044748
17090.0 0.0004464
17110.0 0.00044531
17130.0 0.00044416
17150.0 0.00044305
17170.0 0.00044197
17190.0 0.00044084
17210.0 0.00043971
17230.0 0.00043863
17250.0 0.00043751
17270.0 0.00043634
17290.0 0.00043522
17310.0 0.00043411
17330.0 0.00043296
17350.0 0.00043179
17370.0 0.00043069
17390.0 0.00042955
17410.0 0.00042838
17430.0 0.00042724
17450.0 0.00042613
17470.0 0.00042493
17490.0 0.00042375
17510.0 0.00042262
17530.0 0.00042146
17550.0 0.00042026
17570.0 0.00041911
17590.0 0.00041797
17610.0 0.00041677
17630.0 0.00041558
17650.0 0.00041443
17670.0 0.00041325
17690.0 0.00041201
17710.0 0.00041085
17730.0 0.00040967
17750.0 0.00040846
17770.0 0.00040726
17790.0 0.0004061
17810.0 0.00040489
17830.0 0.00040366
17850.0 0.00040247
17870.0 0.00040128
17890.0 0.00040003
17910.0 0.00039881
17930.0 0.00039763
17950.0 0.00039641
17970.0 0.00039517
17990.0 0.00039397
18010.0 0.00039277
18030.0 0.00039149
18050.0 0.00039026
18070.0 0.00038906
18090.0 0.00038782
18110.0 0.00038655
18130.0 0.00038535
18150.0 0.00038413
18170.0 0.00038286
18190.0 0.00038162
18210.0 0.00038041
18230.0 0.00037914
18250.0 0.00037786
18270.0 0.00037664
18290.0 0.0003754
18310.0 0.00037412
18330.0 0.00037287
18350.0 0.00037165
18370.0 0.00037037
18390.0 0.0003691
18410.0 0.00036786
18430.0 0.00036661
18450.0 0.0003653
18470.0 0.00036404
18490.0 0.00036281
18510.0 0.00036153
18530.0 0.00036025
18550.0 0.00035902
18570.0 0.00035774
18590.0 0.00035644
18610.0 0.00035517
18630.0 0.00035392
18650.0 0.00035263
18670.0 0.00035133
18690.0 0.00035009
18710.0 0.00034882
18730.0 0.00034752
18750.0 0.00034626
18770.0 0.00034501
18790.0 0.00034368
18810.0 0.00034239
18830.0 0.00034114
18850.0 0.00033986
18870.0 0.00033855
18890.0 0.00033729
18910.0 0.00033603
18930.0 0.00033472
18950.0 0.00033343
18970.0 0.00033218
18990.0 0.00033089
19010.0 0.00032955
19030.0 0.0003283
19050.0 0.00032703
19070.0 0.00032573
19090.0 0.00032444
19110.0 0.0003232
19130.0 0.00032189
19150.0 0.00032058
19170.0 0.00031931
19190.0 0.00031804
19210.0 0.00031672
19230.0 0.00031543
19250.0 0.00031418
19270.0 0.00031289
19290.0 0.00031159
19310.0 0.00031033
19330.0 0.00030906
19350.0 0.00030773
19370.0 0.00030645
19390.0 0.00030519
19410.0 0.00030389
19430.0 0.00030259
19450.0 0.00030134
19470.0 0.00030007
19490.0 0.00029876
19510.0 0.00029748
19530.0 0.00029623
19550.0 0.00029492
19570.0 0.00029361
19590.0 0.00029236
19610.0 0.00029109
19630.0 0.00028979
19650.0 0.00028852
19670.0 0.00028728
19690.0 0.00028598
19710.0 0.00028468
19730.0 0.00028343
19750.0 0.00028216
19770.0 0.00028084
19790.0 0.00027958
19810.0 0.00027834
19830.0 0.00027704
19850.0 0.00027574
19870.0 0.00027446
19890.0 0.00027309
19910.0 0.00027159
19930.0 0.00026997
19950.0 0.00026813
19970.0 0.00026586
19990.0 0.00026313
20010.0 0.0002341
20030.0 0.00023072
20050.0 0.00022675
20070.0 0.00022246
20090.0 0.00021783
20110.0 0.0002126
20130.0 0.00020731
20150.0 0.00020207
20170.0 0.00019663
20190.0 0.00019111
20210.0 0.0001859
20230.0 0.00018082
20250.0 0.00017573
20270.0 0.000171
20290.0 0.00016669
20310.0 0.00016259
20330.0 0.00015876
20350.0 0.00015557
20370.0 0.00015275
20390.0 0.00015027
20410.0 0.00014828
20430.0 0.00014673
20450.0 0.00014551
20470.0 0.00014469
20490.0 0.00014425
20510.0 0.00014413
20530.0 0.00014431
20550.0 0.00014475
20570.0 0.0001454
20590.0 0.00014628
20610.0 0.00014734
20630.0 0.00014851
20650.0 0.00014982
20670.0 0.00015132
20690.0 0.00015284
20710.0 0.00015442
20730.0 0.00015612
20750.0 0.0001579
20770.0 0.00015965
20790.0 0.00016148
20810.0 0.00016342
20830.0 0.00016535
20850.0 0.00016729
20870.0 0.00016937
20890.0 0.00017149
20910.0 0.00017353
20930.0 0.00017565
20950.0 0.00017785
20970.0 0.00017999
20990.0 0.0001821
21010.0 0.00018432
21030.0 0.0001865
21050.0 0.00018857
21070.0 0.00019064
21090.0 0.00019271
21110.0 0.00019461
21130.0 0.00019638
21150.0 0.00019811
21170.0 0.00019967
21190.0 0.00020101
21210.0 0.00020222
21230.0 0.00020322
21250.0 0.00020394
21270.0 0.00020439
21290.0 0.00020456
21310.0 0.0002044
21330.0 0.00020392
21350.0 0.00020307
21370.0 0.00020183
21390.0 0.00020025
21410.0 0.00019831
21430.0 0.00019586
21450.0 0.00019311
21470.0 0.00019011
21490.0 0.00018672
21510.0 0.00018301
21530.0 0.00017923
21550.0 0.00017527
21570.0 0.00017105
21590.0 0.0001669
21610.0 0.00016289
21630.0 0.00015888
21650.0 0.00015496
21670.0 0.00015156
21690.0 0.00014842
21710.0 0.0001456
21730.0 0.00014329
21750.0 0.0001415
21770.0 0.00014014
21790.0 0.00013936
21810.0 0.00013915
21830.0 0.00013945
21850.0 0.00014033
21870.0 0.00014169
21890.0 0.00014344
21910.0 0.00014569
21930.0 0.00014834
21950.0 0.0001512
21970.0 0.00015437
21990.0 0.00015793
22010.0 0.00016148
22030.0 0.00016509
22050.0 0.00016889
22070.0 0.0001727
22090.0 0.00017631
22110.0 0.00017995
22130.0 0.00018359
22150.0 0.00018698
22170.0 0.00019019
22190.0 0.00019336
22210.0 0.00019631
22230.0 0.00019891
22250.0 0.00020135
22270.0 0.0002036
22290.0 0.00020553
22310.0 0.00020718
22330.0 0.00020864
22350.0 0.00020976
22370.0 0.00021055
22390.0 0.00021105
22410.0 0.00021121
22430.0 0.00021101
22450.0 0.00021046
22470.0 0.00020952
22490.0 0.0002082
22510.0 0.00020656
22530.0 0.00020446
22550.0 0.0002019
22570.0 0.00019906
22590.0 0.00019586
22610.0 0.00019217
22630.0 0.00018819
22650.0 0.00018407
22670.0 0.00017951
22690.0 0.00017464
22710.0 0.00016974
22730.0 0.00016468
22750.0 0.0001592
22770.0 0.00015384
22790.0 0.00014861
22810.0 0.00014324
22830.0 0.00013788
22850.0 0.00013286
22870.0 0.00012795
22890.0 0.00012305
22910.0 0.00011855
22930.0 0.00011442
22950.0 0.00011048
22970.0 0.00010684
22990.0 0.00010383
