#lamb flux
1010.0 9.6605e-08
1030.0 1.0685e-07
1050.0 1.1862e-07
1070.0 1.3188e-07
1090.0 1.4695e-07
1110.0 1.6239e-07
1130.0 1.7794e-07
1150.0 1.9423e-07
1170.0 2.1103e-07
1190.0 2.2696e-07
1210.0 2.431e-07
1230.0 2.5978e-07
1250.0 2.7613e-07
1270.0 2.92e-07
1290.0 3.0878e-07
1310.0 3.2554e-07
1330.0 3.4161e-07
1350.0 3.5787e-07
1370.0 3.7465e-07
1390.0 3.9101e-07
1410.0 4.0689e-07
1430.0 4.2349e-07
1450.0 4.4009e-07
1470.0 4.5613e-07
1490.0 4.7235e-07
1510.0 4.8948e-07
1530.0 5.0571e-07
1550.0 5.2173e-07
1570.0 5.383e-07
1590.0 5.5489e-07
1610.0 5.7076e-07
1630.0 5.8711e-07
1650.0 6.039e-07
1670.0 6.2016e-07
1690.0 6.3621e-07
1710.0 6.529e-07
1730.0 6.6969e-07
1750.0 6.8549e-07
1770.0 7.0178e-07
1790.0 7.1841e-07
1810.0 7.3454e-07
1830.0 7.504e-07
1850.0 7.6726e-07
1870.0 7.8371e-07
1890.0 7.9964e-07
1910.0 8.1592e-07
1930.0 8.3262e-07
1950.0 8.486e-07
1970.0 8.6443e-07
1990.0 8.8088e-07
2010.0 8.971e-07
2030.0 9.1278e-07
2050.0 9.2898e-07
2070.0 9.4562e-07
2090.0 9.6135e-07
2110.0 9.7707e-07
2130.0 9.9329e-07
2150.0 1.0092e-06
2170.0 1.0245e-06
2190.0 1.0404e-06
2210.0 1.0564e-06
2230.0 1.0718e-06
2250.0 1.0872e-06
2270.0 1.1033e-06
2290.0 1.1188e-06
2310.0 1.1338e-06
2330.0 1.1494e-06
2350.0 1.1654e-06
2370.0 1.1814e-06
2390.0 1.1986e-06
2410.0 1.2191e-06
2430.0 1.2426e-06
2450.0 1.2707e-06
2470.0 1.3068e-06
2490.0 1.3522e-06
2510.0 1.4038e-06
2530.0 1.4659e-06
2550.0 1.5437e-06
2570.0 1.6405e-06
2590.0 1.7663e-06
2610.0 1.9547e-06
2630.0 2.2238e-06
2650.0 2.5756e-06
2670.0 3.0304e-06
2690.0 3.5893e-06
2710.0 4.1859e-06
2730.0 4.7754e-06
2750.0 5.3561e-06
2770.0 5.8611e-06
2790.0 6.2622e-06
2810.0 6.5805e-06
2830.0 6.8291e-06
2850.0 6.9989e-06
2870.0 7.1235e-06
2890.0 7.2221e-06
2910.0 7.3008e-06
2930.0 7.3652e-06
2950.0 7.4266e-06
2970.0 7.4866e-06
2990.0 7.5429e-06
3010.0 0.0002132
3030.0 0.0002148
3050.0 0.00021634
3070.0 0.00021766
3090.0 0.00021879
3110.0 0.0002195
3130.0 0.00021947
3150.0 0.00021849
3170.0 0.00021615
3190.0 0.00021248
3210.0 0.00020782
3230.0 0.00020248
3250.0 0.00019722
3270.0 0.00019337
3290.0 0.00019123
3310.0 0.00019158
3330.0 0.00019435
3350.0 0.00019918
3370.0 0.00020608
3390.0 0.00021476
3410.0 0.00022422
3430.0 0.00023483
3450.0 0.00024705
3470.0 0.0002604
3490.0 0.00027454
3510.0 0.00029053
3530.0 0.00030765
3550.0 0.00032498
3570.0 0.00034306
3590.0 0.00036272
3610.0 0.00038298
3630.0 0.00040318
3650.0 0.00042413
3670.0 0.00044326
3690.0 0.00045757
3710.0 0.00046576
3730.0 0.00046603
3750.0 0.00045955
3770.0 0.000457
3790.0 0.00045428
3810.0 0.00044312
3830.0 0.00045684
3850.0 0.00051079
3870.0 0.00054042
3890.0 0.00053795
3910.0 0.00054024
3930.0 0.00055446
3950.0 0.00056322
3970.0 0.00051314
3990.0 0.00044154
4010.0 0.0013233
4030.0 0.0016034
4050.0 0.0018382
4070.0 0.001595
4090.0 0.0014446
4110.0 0.0012747
4130.0 0.0011732
4150.0 0.0012479
4170.0 0.0012293
4190.0 0.0013103
4210.0 0.0012983
4230.0 0.0013733
4250.0 0.0016246
4270.0 0.0016437
4290.0 0.0015147
4310.0 0.0015739
4330.0 0.0016741
4350.0 0.0018771
4370.0 0.0021362
4390.0 0.0020046
4410.0 0.001481
4430.0 0.0012538
4450.0 0.0011521
4470.0 0.00088427
4490.0 0.00095424
4510.0 0.0014414
4530.0 0.0016624
4550.0 0.0016768
4570.0 0.0018868
4590.0 0.0021493
4610.0 0.0028988
4630.0 0.003765
4650.0 0.0040831
4670.0 0.0037813
4690.0 0.003608
4710.0 0.003814
4730.0 0.0035993
4750.0 0.0026909
4770.0 0.0019739
4790.0 0.0018432
4810.0 0.0017569
4830.0 0.0016084
4850.0 0.001765
4870.0 0.0023317
4890.0 0.0027497
4910.0 0.0024125
4930.0 0.0021348
4950.0 0.0023453
4970.0 0.0030078
4990.0 0.0040762
5010.0 0.0046892
5030.0 0.0041348
5050.0 0.0027974
5070.0 0.0018436
5090.0 0.0014866
5110.0 0.0015288
5130.0 0.0017645
5150.0 0.0019117
5170.0 0.001883
5190.0 0.0017596
5210.0 0.0018391
5230.0 0.0019334
5250.0 0.0020836
5270.0 0.0022481
5290.0 0.0024914
5310.0 0.0028999
5330.0 0.0032091
5350.0 0.0031886
5370.0 0.0033494
5390.0 0.0038435
5410.0 0.00384
5430.0 0.0033959
5450.0 0.0031201
5470.0 0.003313
5490.0 0.0040476
5510.0 0.0050609
5530.0 0.0058046
5550.0 0.0056102
5570.0 0.0051001
5590.0 0.0044346
5610.0 0.0040897
5630.0 0.0039658
5650.0 0.003777
5670.0 0.003579
5690.0 0.0031997
5710.0 0.0031197
5730.0 0.0028738
5750.0 0.0020262
5770.0 0.0015807
5790.0 0.0017913
5810.0 0.0020227
5830.0 0.0024822
5850.0 0.0029548
5870.0 0.0032784
5890.0 0.0033339
5910.0 0.0032708
5930.0 0.0031134
5950.0 0.0031725
5970.0 0.0036164
5990.0 0.0034003
6010.0 0.0028505
6030.0 0.0024082
6050.0 0.0020973
6070.0 0.0020858
6090.0 0.0022617
6110.0 0.002529
6130.0 0.0025677
6150.0 0.0022093
6170.0 0.0019435
6190.0 0.0021871
6210.0 0.0028913
6230.0 0.0037943
6250.0 0.0041097
6270.0 0.0035913
6290.0 0.0030216
6310.0 0.0023589
6330.0 0.0018073
6350.0 0.0016121
6370.0 0.0016953
6390.0 0.0019599
6410.0 0.0024166
6430.0 0.0028219
6450.0 0.003229
6470.0 0.0036973
6490.0 0.0044661
6510.0 0.0049936
6530.0 0.0048991
6550.0 0.0044301
6570.0 0.0037607
6590.0 0.0033912
6610.0 0.002924
6630.0 0.0026491
6650.0 0.0025041
6670.0 0.0024327
6690.0 0.0021981
6710.0 0.0019981
6730.0 0.0014392
6750.0 0.0014268
6770.0 0.0015509
6790.0 0.0017826
6810.0 0.0016311
6830.0 0.0016796
6850.0 0.0015709
6870.0 0.0014351
6890.0 0.0013779
6910.0 0.0014683
6930.0 0.0013753
6950.0 0.0014149
6970.0 0.0014882
6990.0 0.0016893
7010.0 0.0017037
7030.0 0.0017307
7050.0 0.0016505
7070.0 0.0015727
7090.0 0.0015773
7110.0 0.0016229
7130.0 0.0017465
7150.0 0.0018549
7170.0 0.0020468
7190.0 0.00225
7210.0 0.0022109
7230.0 0.0022728
7250.0 0.0024425
7270.0 0.0026617
7290.0 0.0031592
7310.0 0.0034281
7330.0 0.0033135
7350.0 0.0029968
7370.0 0.0026075
7390.0 0.0025296
7410.0 0.0026882
7430.0 0.0029876
7450.0 0.0032541
7470.0 0.0032242
7490.0 0.0029398
7510.0 0.0033301
7530.0 0.0032936
7550.0 0.0029604
7570.0 0.0023126
7590.0 0.0015898
7610.0 0.0013646
7630.0 0.0015504
7650.0 0.0018331
7670.0 0.0022815
7690.0 0.0025106
7710.0 0.0026163
7730.0 0.0027494
7750.0 0.0030865
7770.0 0.0031351
7790.0 0.0028797
7810.0 0.0026276
7830.0 0.0027096
7850.0 0.002634
7870.0 0.0024149
7890.0 0.002029
7910.0 0.0016493
7930.0 0.0015748
7950.0 0.0014347
7970.0 0.0013281
7990.0 0.0013205
8010.0 9.7801e-05
8030.0 9.6529e-05
8050.0 9.5227e-05
8070.0 9.6474e-05
8090.0 0.00010366
8110.0 0.00010189
8130.0 8.4049e-05
8150.0 8.1854e-05
8170.0 7.0505e-05
8190.0 6.6819e-05
8210.0 8.6771e-05
8230.0 9.6608e-05
8250.0 8.7072e-05
8270.0 7.5784e-05
8290.0 7.3876e-05
8310.0 5.6858e-05
8330.0 3.8322e-05
8350.0 2.7197e-05
8370.0 1.7135e-05
8390.0 3.1322e-05
8410.0 3.6499e-05
8430.0 4.4991e-05
8450.0 5.2832e-05
8470.0 6.5666e-05
8490.0 6.5203e-05
8510.0 6.4137e-05
8530.0 6.6936e-05
8550.0 9.031e-05
8570.0 0.00010691
8590.0 0.00011536
8610.0 0.00014572
8630.0 0.00017555
8650.0 0.00018364
8670.0 0.00019515
8690.0 0.00019625
8710.0 0.00017773
8730.0 0.00016532
8750.0 0.00014592
8770.0 0.00013846
8790.0 0.00013603
8810.0 0.00013034
8830.0 0.00010423
8850.0 7.6304e-05
8870.0 5.8425e-05
8890.0 5.712e-05
8910.0 6.546e-05
8930.0 7.4456e-05
8950.0 7.5882e-05
8970.0 7.6241e-05
8990.0 6.7997e-05
9010.0 0.00071258
9030.0 0.00064568
9050.0 0.0006488
9070.0 0.00065392
9090.0 0.00065841
9110.0 0.00066396
9130.0 0.00066824
9150.0 0.00067157
9170.0 0.00067511
9190.0 0.0006789
9210.0 0.00068289
9230.0 0.0006871
9250.0 0.00069137
9270.0 0.00069581
9290.0 0.00070038
9310.0 0.00070498
9330.0 0.00070967
9350.0 0.00071453
9370.0 0.00071945
9390.0 0.00072442
9410.0 0.00072953
9430.0 0.0007348
9450.0 0.00074005
9470.0 0.00074541
9490.0 0.00075092
9510.0 0.0007565
9530.0 0.0007621
9550.0 0.0007679
9570.0 0.0007738
9590.0 0.00077971
9610.0 0.00078573
9630.0 0.00079191
9650.0 0.00079814
9670.0 0.00080439
9690.0 0.0008108
9710.0 0.00081731
9730.0 0.00082383
9750.0 0.00083045
9770.0 0.00083727
9790.0 0.00084408
9810.0 0.00085092
9830.0 0.00085791
9850.0 0.00086498
9870.0 0.00087203
9890.0 0.0008792
9910.0 0.00088649
9930.0 0.00089379
9950.0 0.00090113
9970.0 0.0009086
9990.0 0.00091615
10010.0 0.00079498
10030.0 0.0008015
10050.0 0.00080817
10070.0 0.00081505
10090.0 0.00082154
10110.0 0.0008282
10130.0 0.00083488
10150.0 0.00084153
10170.0 0.00084827
10190.0 0.00085512
10210.0 0.0008619
10230.0 0.00086865
10250.0 0.00087552
10270.0 0.00088237
10290.0 0.00088915
10310.0 0.000896
10330.0 0.00090293
10350.0 0.00090974
10370.0 0.00091652
10390.0 0.00092339
10410.0 0.00093022
10430.0 0.00093692
10450.0 0.00094368
10470.0 0.00095047
10490.0 0.00095714
10510.0 0.00096376
10530.0 0.00097049
10550.0 0.00097711
10570.0 0.00098359
10590.0 0.00099011
10610.0 0.00099662
10630.0 0.001003
10650.0 0.0010093
10670.0 0.0010156
10690.0 0.0010219
10710.0 0.001028
10730.0 0.0010341
10750.0 0.0010402
10770.0 0.0010461
10790.0 0.0010519
10810.0 0.0010578
10830.0 0.0010634
10850.0 0.0010688
10870.0 0.0010739
10890.0 0.0010785
10910.0 0.001082
10930.0 0.001084
10950.0 0.0010835
10970.0 0.0010799
10990.0 0.0010727
11010.0 0.0010606
11030.0 0.0010438
11050.0 0.0010232
11070.0 0.0009986
11090.0 0.00096906
11110.0 0.0009385
11130.0 0.00090662
11150.0 0.0008723
11170.0 0.00083691
11190.0 0.0008026
11210.0 0.00076715
11230.0 0.00073081
11250.0 0.00069608
11270.0 0.00066274
11290.0 0.00062932
11310.0 0.00059768
11330.0 0.0005698
11350.0 0.00054347
11370.0 0.00051914
11390.0 0.00049809
11410.0 0.00047967
11430.0 0.00046256
11450.0 0.00044782
11470.0 0.00043507
11490.0 0.0004232
11510.0 0.00041177
11530.0 0.00040117
11550.0 0.00039063
11570.0 0.00037939
11590.0 0.00036775
11610.0 0.0003559
11630.0 0.000343
11650.0 0.00032919
11670.0 0.00031559
11690.0 0.00030178
11710.0 0.00028755
11730.0 0.00027375
11750.0 0.00026099
11770.0 0.00024847
11790.0 0.00023673
11810.0 0.0002264
11830.0 0.00021717
11850.0 0.00020866
11870.0 0.00020154
11890.0 0.00019562
11910.0 0.00019042
11930.0 0.00018596
11950.0 0.00018223
11970.0 0.00017891
11990.0 0.00017577
12010.0 0.00017286
12030.0 0.00017006
12050.0 0.00016716
12070.0 0.00016415
12090.0 0.00016124
12110.0 0.0001583
12130.0 0.00015534
12150.0 0.00015262
12170.0 0.00015024
12190.0 0.00014818
12210.0 0.00014675
12230.0 0.00014606
12250.0 0.00014617
12270.0 0.00014727
12290.0 0.00014935
12310.0 0.00015234
12330.0 0.00015652
12350.0 0.00016174
12370.0 0.00016768
12390.0 0.00017453
12410.0 0.00018256
12430.0 0.00019072
12450.0 0.00019917
12470.0 0.00020815
12490.0 0.00021717
12510.0 0.00022564
12530.0 0.00023406
12550.0 0.00024218
12570.0 0.00024935
12590.0 0.00025565
12610.0 0.00026126
12630.0 0.00026573
12650.0 0.00026882
12670.0 0.00027085
12690.0 0.00027166
12710.0 0.00027121
12730.0 0.00026964
12750.0 0.00026683
12770.0 0.00026298
12790.0 0.00025832
12810.0 0.00025274
12830.0 0.00024629
12850.0 0.00023955
12870.0 0.00023242
12890.0 0.0002247
12910.0 0.00021686
12930.0 0.00020913
12950.0 0.00020106
12970.0 0.00019285
12990.0 0.00018508
13010.0 0.00017741
13030.0 0.00016966
13050.0 0.0001622
13070.0 0.00015523
13090.0 0.00014822
13110.0 0.00014144
13130.0 0.0001352
13150.0 0.00012928
13170.0 0.00012349
13190.0 0.00011833
13210.0 0.0001138
13230.0 0.00010965
13250.0 0.00010608
13270.0 0.00010326
13290.0 0.00010107
13310.0 9.956e-05
13330.0 9.8873e-05
13350.0 9.8952e-05
13370.0 9.984e-05
13390.0 0.00010158
13410.0 0.00010394
13430.0 0.000107
13450.0 0.00011079
13470.0 0.00011499
13490.0 0.00011943
13510.0 0.00012445
13530.0 0.00012954
13550.0 0.00013441
13570.0 0.00013921
13590.0 0.00014388
13610.0 0.00014805
13630.0 0.00015168
13650.0 0.000155
13670.0 0.00015775
13690.0 0.00015988
13710.0 0.00016153
13730.0 0.0001627
13750.0 0.00016329
13770.0 0.00016342
13790.0 0.00016313
13810.0 0.00016241
13830.0 0.00016134
13850.0 0.0001599
13870.0 0.00015808
13890.0 0.000156
13910.0 0.00015366
13930.0 0.00015095
13950.0 0.00014799
13970.0 0.00014496
13990.0 0.00014166
14010.0 0.00013815
14030.0 0.00013466
14050.0 0.00013113
14070.0 0.00012741
14090.0 0.00012384
14110.0 0.00012049
14130.0 0.00011725
14150.0 0.00011419
14170.0 0.00011158
14190.0 0.00010932
14210.0 0.00010741
14230.0 0.00010599
14250.0 0.00010508
14270.0 0.00010463
14290.0 0.00010473
14310.0 0.00010531
14330.0 0.00010636
14350.0 0.0001079
14370.0 0.00010982
14390.0 0.000112
14410.0 0.00011458
14430.0 0.0001174
14450.0 0.00012028
14470.0 0.00012327
14490.0 0.00012645
14510.0 0.00012949
14530.0 0.00013238
14550.0 0.00013527
14570.0 0.00013804
14590.0 0.00014057
14610.0 0.00014301
14630.0 0.00014542
14650.0 0.00014767
14670.0 0.00014984
14690.0 0.00015211
14710.0 0.00015449
14730.0 0.00015687
14750.0 0.00015951
14770.0 0.0001625
14790.0 0.00016575
14810.0 0.00016926
14830.0 0.00017343
14850.0 0.00017796
14870.0 0.00018268
14890.0 0.00018777
14910.0 0.00019319
14930.0 0.00019839
14950.0 0.00020325
14970.0 0.00020786
14990.0 0.00021172
15010.0 0.00021467
15030.0 0.00021686
15050.0 0.0002183
15070.0 0.00021901
15090.0 0.00021926
15110.0 0.00021918
15130.0 0.00021891
15150.0 0.00021854
15170.0 0.0002181
15190.0 0.00021763
15210.0 0.00021717
15230.0 0.00021671
15250.0 0.00021623
15270.0 0.00021575
15290.0 0.00021531
15310.0 0.00021485
15330.0 0.00021438
15350.0 0.00021393
15370.0 0.00021349
15390.0 0.00021303
15410.0 0.00021258
15430.0 0.00021214
15450.0 0.00021169
15470.0 0.00021124
15490.0 0.00021081
15510.0 0.00021038
15530.0 0.00020993
15550.0 0.0002095
15570.0 0.00020908
15590.0 0.00020864
15610.0 0.0002082
15630.0 0.00020778
15650.0 0.00020736
15670.0 0.00020692
15690.0 0.0002065
15710.0 0.00020609
15730.0 0.00020567
15750.0 0.00020524
15770.0 0.00020483
15790.0 0.00020442
15810.0 0.00020398
15830.0 0.00020357
15850.0 0.00020317
15870.0 0.00020275
15890.0 0.00020233
15910.0 0.00020193
15930.0 0.00020152
15950.0 0.00020109
15970.0 0.00020069
15990.0 0.00020029
16010.0 0.00019987
16030.0 0.00019945
16050.0 0.00019905
16070.0 0.00019865
16090.0 0.00019823
16110.0 0.00019783
16130.0 0.00019743
16150.0 0.00019701
16170.0 0.0001966
16190.0 0.0001962
16210.0 0.00019579
16230.0 0.00019537
16250.0 0.00019497
16270.0 0.00019458
16290.0 0.00019416
16310.0 0.00019375
16330.0 0.00019335
16350.0 0.00019294
16370.0 0.00019251
16390.0 0.00019211
16410.0 0.00019171
16430.0 0.0001913
16450.0 0.00019088
16470.0 0.00019049
16490.0 0.00019007
16510.0 0.00018965
16530.0 0.00018924
16550.0 0.00018884
16570.0 0.00018841
16590.0 0.00018799
16610.0 0.00018759
16630.0 0.00018717
16650.0 0.00018675
16670.0 0.00018634
16690.0 0.00018593
16710.0 0.0001855
16730.0 0.00018508
16750.0 0.00018467
16770.0 0.00018424
16790.0 0.00018381
16810.0 0.00018339
16830.0 0.00018298
16850.0 0.00018254
16870.0 0.00018212
16890.0 0.0001817
16910.0 0.00018127
16930.0 0.00018082
16950.0 0.0001804
16970.0 0.00017998
16990.0 0.00017954
17010.0 0.0001791
17030.0 0.00017869
17050.0 0.00017824
17070.0 0.0001778
17090.0 0.00017737
17110.0 0.00017694
17130.0 0.00017648
17150.0 0.00017604
17170.0 0.00017561
17190.0 0.00017516
17210.0 0.00017471
17230.0 0.00017428
17250.0 0.00017384
17270.0 0.00017337
17290.0 0.00017293
17310.0 0.00017249
17330.0 0.00017203
17350.0 0.00017156
17370.0 0.00017113
17390.0 0.00017067
17410.0 0.00017021
17430.0 0.00016976
17450.0 0.00016931
17470.0 0.00016884
17490.0 0.00016837
17510.0 0.00016792
17530.0 0.00016746
17550.0 0.00016698
17570.0 0.00016653
17590.0 0.00016607
17610.0 0.00016559
17630.0 0.00016512
17650.0 0.00016467
17670.0 0.0001642
17690.0 0.0001637
17710.0 0.00016324
17730.0 0.00016278
17750.0 0.00016229
17770.0 0.00016182
17790.0 0.00016136
17810.0 0.00016087
17830.0 0.00016039
17850.0 0.00015991
17870.0 0.00015944
17890.0 0.00015895
17910.0 0.00015846
17930.0 0.00015799
17950.0 0.0001575
17970.0 0.00015701
17990.0 0.00015654
18010.0 0.00015606
18030.0 0.00015555
18050.0 0.00015506
18070.0 0.00015459
18090.0 0.00015409
18110.0 0.00015359
18130.0 0.00015311
18150.0 0.00015263
18170.0 0.00015212
18190.0 0.00015163
18210.0 0.00015115
18230.0 0.00015064
18250.0 0.00015013
18270.0 0.00014965
18290.0 0.00014916
18310.0 0.00014865
18330.0 0.00014815
18350.0 0.00014767
18370.0 0.00014716
18390.0 0.00014665
18410.0 0.00014616
18430.0 0.00014566
18450.0 0.00014514
18470.0 0.00014465
18490.0 0.00014416
18510.0 0.00014365
18530.0 0.00014314
18550.0 0.00014265
18570.0 0.00014214
18590.0 0.00014162
18610.0 0.00014112
18630.0 0.00014062
18650.0 0.00014011
18670.0 0.00013959
18690.0 0.0001391
18710.0 0.0001386
18730.0 0.00013808
18750.0 0.00013758
18770.0 0.00013708
18790.0 0.00013656
18810.0 0.00013604
18830.0 0.00013555
18850.0 0.00013504
18870.0 0.00013452
18890.0 0.00013402
18910.0 0.00013352
18930.0 0.000133
18950.0 0.00013248
18970.0 0.00013199
18990.0 0.00013147
19010.0 0.00013094
19030.0 0.00013044
19050.0 0.00012994
19070.0 0.00012942
19090.0 0.00012891
19110.0 0.00012842
19130.0 0.0001279
19150.0 0.00012738
19170.0 0.00012687
19190.0 0.00012637
19210.0 0.00012584
19230.0 0.00012533
19250.0 0.00012484
19270.0 0.00012432
19290.0 0.0001238
19310.0 0.0001233
19330.0 0.0001228
19350.0 0.00012227
19370.0 0.00012176
19390.0 0.00012126
19410.0 0.00012075
19430.0 0.00012023
19450.0 0.00011973
19470.0 0.00011923
19490.0 0.00011871
19510.0 0.0001182
19530.0 0.0001177
19550.0 0.00011718
19570.0 0.00011666
19590.0 0.00011617
19610.0 0.00011566
19630.0 0.00011514
19650.0 0.00011464
19670.0 0.00011414
19690.0 0.00011363
19710.0 0.00011311
19730.0 0.00011262
19750.0 0.00011211
19770.0 0.00011159
19790.0 0.00011109
19810.0 0.00011059
19830.0 0.00011008
19850.0 0.00010956
19870.0 0.00010905
19890.0 0.00010851
19910.0 0.00010791
19930.0 0.00010727
19950.0 0.00010654
19970.0 0.00010564
19990.0 0.00010455
20010.0 9.3017e-05
20030.0 9.1671e-05
20050.0 9.0096e-05
20070.0 8.8389e-05
20090.0 8.6552e-05
20110.0 8.4475e-05
20130.0 8.2372e-05
20150.0 8.0288e-05
20170.0 7.8127e-05
20190.0 7.5935e-05
20210.0 7.3865e-05
20230.0 7.1846e-05
20250.0 6.9823e-05
20270.0 6.7945e-05
20290.0 6.623e-05
20310.0 6.4601e-05
20330.0 6.3079e-05
20350.0 6.1815e-05
20370.0 6.0693e-05
20390.0 5.9709e-05
20410.0 5.8915e-05
20430.0 5.8302e-05
20450.0 5.7817e-05
20470.0 5.7492e-05
20490.0 5.7317e-05
20510.0 5.7267e-05
20530.0 5.7337e-05
20550.0 5.7514e-05
20570.0 5.7772e-05
20590.0 5.8121e-05
20610.0 5.8543e-05
20630.0 5.9008e-05
20650.0 5.9528e-05
20670.0 6.0123e-05
20690.0 6.0729e-05
20710.0 6.1356e-05
20730.0 6.2032e-05
20750.0 6.2738e-05
20770.0 6.3432e-05
20790.0 6.4161e-05
20810.0 6.4933e-05
20830.0 6.57e-05
20850.0 6.6471e-05
20870.0 6.7296e-05
20890.0 6.8138e-05
20910.0 6.8949e-05
20930.0 6.9792e-05
20950.0 7.0664e-05
20970.0 7.1515e-05
20990.0 7.2355e-05
21010.0 7.3237e-05
21030.0 7.4101e-05
21050.0 7.4924e-05
21070.0 7.5746e-05
21090.0 7.6571e-05
21110.0 7.7323e-05
21130.0 7.803e-05
21150.0 7.8715e-05
21170.0 7.9334e-05
21190.0 7.9868e-05
21210.0 8.0348e-05
21230.0 8.0747e-05
21250.0 8.1031e-05
21270.0 8.1211e-05
21290.0 8.1279e-05
21310.0 8.1214e-05
21330.0 8.1023e-05
21350.0 8.0686e-05
21370.0 8.0192e-05
21390.0 7.9564e-05
21410.0 7.8795e-05
21430.0 7.7821e-05
21450.0 7.6728e-05
21470.0 7.5538e-05
21490.0 7.4191e-05
21510.0 7.2714e-05
21530.0 7.1214e-05
21550.0 6.9642e-05
21570.0 6.7965e-05
21590.0 6.6316e-05
21610.0 6.4723e-05
21630.0 6.3128e-05
21650.0 6.157e-05
21670.0 6.0219e-05
21690.0 5.8973e-05
21710.0 5.7851e-05
21730.0 5.6933e-05
21750.0 5.6224e-05
21770.0 5.5684e-05
21790.0 5.5373e-05
21810.0 5.5287e-05
21830.0 5.541e-05
21850.0 5.5756e-05
21870.0 5.6296e-05
21890.0 5.6994e-05
21910.0 5.7889e-05
21930.0 5.8938e-05
21950.0 6.0076e-05
21970.0 6.1335e-05
21990.0 6.2749e-05
22010.0 6.4162e-05
22030.0 6.5597e-05
22050.0 6.7105e-05
22070.0 6.862e-05
22090.0 7.0055e-05
22110.0 7.1502e-05
22130.0 7.2946e-05
22150.0 7.4295e-05
22170.0 7.5567e-05
22190.0 7.6827e-05
22210.0 7.8e-05
22230.0 7.9032e-05
22250.0 8.0003e-05
22270.0 8.0898e-05
22290.0 8.1663e-05
22310.0 8.232e-05
22330.0 8.2898e-05
22350.0 8.3345e-05
22370.0 8.366e-05
22390.0 8.3857e-05
22410.0 8.3919e-05
22430.0 8.3839e-05
22450.0 8.3623e-05
22470.0 8.325e-05
22490.0 8.2726e-05
22510.0 8.2072e-05
22530.0 8.1237e-05
22550.0 8.022e-05
22570.0 7.9092e-05
22590.0 7.782e-05
22610.0 7.6356e-05
22630.0 7.4772e-05
22650.0 7.3135e-05
22670.0 7.1324e-05
22690.0 6.9392e-05
22710.0 6.7442e-05
22730.0 6.5432e-05
22750.0 6.3254e-05
22770.0 6.1125e-05
22790.0 5.9046e-05
22810.0 5.6912e-05
22830.0 5.4783e-05
22850.0 5.279e-05
22870.0 5.0837e-05
