#lamb flux
1010.0 1.7435e-07
1030.0 1.8923e-07
1050.0 2.0636e-07
1070.0 2.2566e-07
1090.0 2.4758e-07
1110.0 2.7008e-07
1130.0 2.9274e-07
1150.0 3.165e-07
1170.0 3.4103e-07
1190.0 3.6431e-07
1210.0 3.8793e-07
1230.0 4.1236e-07
1250.0 4.3634e-07
1270.0 4.5965e-07
1290.0 4.8431e-07
1310.0 5.0899e-07
1330.0 5.327e-07
1350.0 5.5671e-07
1370.0 5.8154e-07
1390.0 6.0579e-07
1410.0 6.2937e-07
1430.0 6.5406e-07
1450.0 6.7878e-07
1470.0 7.0273e-07
1490.0 7.2697e-07
1510.0 7.5259e-07
1530.0 7.7693e-07
1550.0 8.0098e-07
1570.0 8.2586e-07
1590.0 8.5078e-07
1610.0 8.7463e-07
1630.0 8.992e-07
1650.0 9.244e-07
1670.0 9.4877e-07
1690.0 9.728e-07
1710.0 9.977e-07
1730.0 1.0227e-06
1750.0 1.0461e-06
1770.0 1.0701e-06
1790.0 1.0945e-06
1810.0 1.118e-06
1830.0 1.1409e-06
1850.0 1.1651e-06
1870.0 1.1884e-06
1890.0 1.2108e-06
1910.0 1.2334e-06
1930.0 1.2563e-06
1950.0 1.2778e-06
1970.0 1.2987e-06
1990.0 1.3203e-06
2010.0 1.3411e-06
2030.0 1.3607e-06
2050.0 1.3806e-06
2070.0 1.4008e-06
2090.0 1.4191e-06
2110.0 1.4371e-06
2130.0 1.4552e-06
2150.0 1.4725e-06
2170.0 1.4884e-06
2190.0 1.5046e-06
2210.0 1.5204e-06
2230.0 1.5349e-06
2250.0 1.5488e-06
2270.0 1.5632e-06
2290.0 1.5764e-06
2310.0 1.5881e-06
2330.0 1.6e-06
2350.0 1.6116e-06
2370.0 1.6218e-06
2390.0 1.6317e-06
2410.0 1.6421e-06
2430.0 1.6517e-06
2450.0 1.6606e-06
2470.0 1.6707e-06
2490.0 1.6827e-06
2510.0 1.6973e-06
2530.0 1.7212e-06
2550.0 1.7653e-06
2570.0 1.8406e-06
2590.0 1.96e-06
2610.0 2.1571e-06
2630.0 2.4394e-06
2650.0 2.7901e-06
2670.0 3.2121e-06
2690.0 3.6882e-06
2710.0 4.1513e-06
2730.0 4.5692e-06
2750.0 4.9494e-06
2770.0 5.2561e-06
2790.0 5.4869e-06
2810.0 5.671e-06
2830.0 5.8298e-06
2850.0 5.957e-06
2870.0 6.0744e-06
2890.0 6.196e-06
2910.0 6.3181e-06
2930.0 6.4345e-06
2950.0 6.5594e-06
2970.0 6.6903e-06
2990.0 6.8171e-06
3010.0 4.678e-05
3030.0 4.768e-05
3050.0 4.8557e-05
3070.0 4.9301e-05
3090.0 4.9918e-05
3110.0 5.0221e-05
3130.0 4.9982e-05
3150.0 4.9005e-05
3170.0 4.6901e-05
3190.0 4.3654e-05
3210.0 3.9394e-05
3230.0 3.4685e-05
3250.0 3.8286e-05
3270.0 3.3581e-05
3290.0 4.3303e-05
3310.0 3.309e-05
3330.0 3.3471e-05
3350.0 3.5483e-05
3370.0 3.8009e-05
3390.0 4.0887e-05
3410.0 4.3814e-05
3430.0 4.6918e-05
3450.0 5.0143e-05
3470.0 5.3239e-05
3490.0 5.5817e-05
3510.0 6.1257e-05
3530.0 6.9702e-05
3550.0 7.0239e-05
3570.0 6.638e-05
3590.0 7.6766e-05
3610.0 6.6988e-05
3630.0 8.2776e-05
3650.0 9.0785e-05
3670.0 0.00010339
3690.0 9.9999e-05
3710.0 8.3431e-05
3730.0 9.1964e-05
3750.0 9.26e-05
3770.0 9.9994e-05
3790.0 0.0001053
3810.0 0.00011888
3830.0 0.00016709
3850.0 0.00020912
3870.0 0.00024889
3890.0 0.00025741
3910.0 0.00024697
3930.0 0.00024939
3950.0 0.00026092
3970.0 0.000243
3990.0 0.00014783
4010.0 9.9956e-05
4030.0 0.00016477
4050.0 0.00022397
4070.0 0.00021206
4090.0 0.00012633
4110.0 9.9882e-05
4130.0 0.0001642
4150.0 0.00018424
4170.0 0.00015388
4190.0 0.00012908
4210.0 0.00018522
4230.0 0.00017034
4250.0 0.00016426
4270.0 0.00016354
4290.0 0.00014736
4310.0 0.00017871
4330.0 0.00020609
4350.0 0.00021234
4370.0 0.00019607
4390.0 0.00020626
4410.0 0.00019397
4430.0 0.00014561
4450.0 0.00011445
4470.0 0.00013618
4490.0 0.00012882
4510.0 0.00018554
4530.0 0.00019088
4550.0 0.0001944
4570.0 0.00024258
4590.0 0.00028187
4610.0 0.00033378
4630.0 0.00044351
4650.0 0.00048853
4670.0 0.0004949
4690.0 0.00047436
4710.0 0.00047086
4730.0 0.00041681
4750.0 0.0003078
4770.0 0.00024994
4790.0 0.00019688
4810.0 0.00021176
4830.0 0.00024336
4850.0 0.00024605
4870.0 0.00022108
4890.0 0.00030228
4910.0 0.00031074
4930.0 0.00033667
4950.0 0.00039529
4970.0 0.00040844
4990.0 0.00046457
5010.0 0.00048145
5030.0 0.00044393
5050.0 0.00035525
5070.0 0.00025614
5090.0 0.00021576
5110.0 0.00021873
5130.0 0.0002288
5150.0 0.00021714
5170.0 0.00020896
5190.0 0.00022063
5210.0 0.00022707
5230.0 0.00025014
5250.0 0.00026879
5270.0 0.00025887
5290.0 0.00029973
5310.0 0.00037552
5330.0 0.00041121
5350.0 0.00038753
5370.0 0.00039085
5390.0 0.0004235
5410.0 0.00042536
5430.0 0.00041366
5450.0 0.00043088
5470.0 0.00047758
5490.0 0.000569
5510.0 0.00068263
5530.0 0.00071255
5550.0 0.00071241
5570.0 0.00070312
5590.0 0.00067449
5610.0 0.00063974
5630.0 0.00064427
5650.0 0.00066963
5670.0 0.00064844
5690.0 0.00058863
5710.0 0.0005811
5730.0 0.00053857
5750.0 0.00048135
5770.0 0.0004294
5790.0 0.00045622
5810.0 0.00048887
5830.0 0.00053989
5850.0 0.00053309
5870.0 0.00052282
5890.0 0.00053825
5910.0 0.00049803
5930.0 0.00046051
5950.0 0.00046231
5970.0 0.00048357
5990.0 0.00042764
6010.0 0.00036201
6030.0 0.00031475
6050.0 0.00028485
6070.0 0.00026856
6090.0 0.000287
6110.0 0.00031817
6130.0 0.00031962
6150.0 0.00032238
6170.0 0.00033818
6190.0 0.00036494
6210.0 0.00041938
6230.0 0.00048851
6250.0 0.00045546
6270.0 0.00039898
6290.0 0.00034433
6310.0 0.00028549
6330.0 0.00025103
6350.0 0.0002409
6370.0 0.00025725
6390.0 0.00028705
6410.0 0.0003442
6430.0 0.00042282
6450.0 0.00049035
6470.0 0.00054335
6490.0 0.0006188
6510.0 0.00067451
6530.0 0.00065162
6550.0 0.00062335
6570.0 0.00062916
6590.0 0.00062873
6610.0 0.00062322
6630.0 0.00058634
6650.0 0.00052933
6670.0 0.00051146
6690.0 0.00050142
6710.0 0.00050781
6730.0 0.00044411
6750.0 0.00038125
6770.0 0.00037474
6790.0 0.00039965
6810.0 0.00044684
6830.0 0.00045284
6850.0 0.00041623
6870.0 0.00041467
6890.0 0.00040912
6910.0 0.00038536
6930.0 0.00039073
6950.0 0.00038242
6970.0 0.00037721
6990.0 0.00038824
7010.0 0.0004123
7030.0 0.00040593
7050.0 0.00037309
7070.0 0.00035802
7090.0 0.00031637
7110.0 0.00027407
7130.0 0.00026994
7150.0 0.00028656
7170.0 0.00031272
7190.0 0.0003143
7210.0 0.00030521
7230.0 0.0003347
7250.0 0.00036094
7270.0 0.00037435
7290.0 0.00038276
7310.0 0.00038283
7330.0 0.00036059
7350.0 0.00033434
7370.0 0.00031139
7390.0 0.00030519
7410.0 0.00033484
7430.0 0.00038726
7450.0 0.00042523
7470.0 0.00046489
7490.0 0.00053836
7510.0 0.00053031
7530.0 0.00044298
7550.0 0.0003841
7570.0 0.00032166
7590.0 0.00028089
7610.0 0.00027269
7630.0 0.00027046
7650.0 0.00029269
7670.0 0.00033253
7690.0 0.00036458
7710.0 0.00041508
7730.0 0.00043058
7750.0 0.00044526
7770.0 0.00047654
7790.0 0.00049537
7810.0 0.0004875
7830.0 0.0004476
7850.0 0.00044363
7870.0 0.00043151
7890.0 0.00041219
7910.0 0.00038156
7930.0 0.00036091
7950.0 0.00030189
7970.0 0.00029123
7990.0 0.00029231
8010.0 0.00033909
8030.0 0.0003394
8050.0 0.00035765
8070.0 0.00034782
8090.0 0.00034846
8110.0 0.00034199
8130.0 0.00032876
8150.0 0.00030502
8170.0 0.00030166
8190.0 0.00030403
8210.0 0.00030698
8230.0 0.00027695
8250.0 0.00025639
8270.0 0.00022589
8290.0 0.00018949
8310.0 0.00015872
8330.0 0.00011937
8350.0 9.2836e-05
8370.0 8.682e-05
8390.0 8.8682e-05
8410.0 9.8512e-05
8430.0 0.0001259
8450.0 0.0001386
8470.0 0.00014954
8490.0 0.00017032
8510.0 0.00018441
8530.0 0.00020632
8550.0 0.00024394
8570.0 0.00027214
8590.0 0.00029048
8610.0 0.00032931
8630.0 0.00037924
8650.0 0.00039394
8670.0 0.00040191
8690.0 0.00040809
8710.0 0.00039741
8730.0 0.00038133
8750.0 0.00035241
8770.0 0.00034921
8790.0 0.00034047
8810.0 0.0003138
8830.0 0.00030504
8850.0 0.00027098
8870.0 0.00025341
8890.0 0.00022973
8910.0 0.00025625
8930.0 0.00023624
8950.0 0.0002393
8970.0 0.0002448
8990.0 0.0002404
9010.0 0.00024474
9030.0 0.00023352
9050.0 0.00023267
9070.0 0.00023291
9090.0 0.00023313
9110.0 0.0002335
9130.0 0.0002337
9150.0 0.0002338
9170.0 0.00023342
9190.0 0.00023236
9210.0 0.00023557
9230.0 0.00023498
9250.0 0.00023478
9270.0 0.00023466
9290.0 0.00023462
9310.0 0.00023461
9330.0 0.00023462
9350.0 0.00023466
9370.0 0.00023469
9390.0 0.00023471
9410.0 0.00023474
9430.0 0.00023478
9450.0 0.0002348
9470.0 0.00023481
9490.0 0.00023484
9510.0 0.00023486
9530.0 0.00023486
9550.0 0.00023489
9570.0 0.00023492
9590.0 0.00023495
9610.0 0.00023497
9630.0 0.00023502
9650.0 0.00023506
9670.0 0.00023509
9690.0 0.00023515
9710.0 0.00023521
9730.0 0.00023527
9750.0 0.00023534
9770.0 0.00023544
9790.0 0.00023553
9810.0 0.00023562
9830.0 0.00023574
9850.0 0.00023586
9870.0 0.00023598
9890.0 0.00023611
9910.0 0.00023627
9930.0 0.00023642
9950.0 0.00023635
9970.0 0.00023661
9990.0 0.00023687
10010.0 0.00023709
10030.0 0.00023732
10050.0 0.00023747
10070.0 0.0002371
10090.0 0.00023754
10110.0 0.00023797
10130.0 0.00023835
10150.0 0.00023871
10170.0 0.00023903
10190.0 0.00023932
10210.0 0.00023962
10230.0 0.00023993
10250.0 0.00024023
10270.0 0.00024053
10290.0 0.00024085
10310.0 0.00024116
10330.0 0.00024147
10350.0 0.0002418
10370.0 0.00024213
10390.0 0.00024245
10410.0 0.00024278
10430.0 0.00024313
10450.0 0.00024346
10470.0 0.00024379
10490.0 0.00024414
10510.0 0.00024448
10530.0 0.0002448
10550.0 0.00024513
10570.0 0.00024548
10590.0 0.0002458
10610.0 0.00024613
10630.0 0.00024646
10650.0 0.00024678
10670.0 0.00024709
10690.0 0.0002474
10710.0 0.00024772
10730.0 0.00024801
10750.0 0.0002483
10770.0 0.0002486
10790.0 0.00024888
10810.0 0.00024915
10830.0 0.0002494
10850.0 0.00024963
10870.0 0.00024978
10890.0 0.00024981
10910.0 0.00024966
10930.0 0.00024918
10950.0 0.00024813
10970.0 0.00024642
10990.0 0.00024399
11010.0 0.00024931
11030.0 0.00024437
11050.0 0.00023865
11070.0 0.00023208
11090.0 0.00022449
11110.0 0.00021696
11130.0 0.00020945
11150.0 0.0002018
11170.0 0.0001944
11190.0 0.00018772
11210.0 0.00018135
11230.0 0.00017537
11250.0 0.00017018
11270.0 0.00016564
11290.0 0.0001615
11310.0 0.00015792
11330.0 0.00015497
11350.0 0.0001523
11370.0 0.00014983
11390.0 0.00014761
11410.0 0.00014547
11430.0 0.00014317
11450.0 0.0001408
11470.0 0.00013834
11490.0 0.00013564
11510.0 0.00013263
11530.0 0.00012954
11550.0 0.00012631
11570.0 0.00012282
11590.0 0.00011926
11610.0 0.00011578
11630.0 0.00011218
11650.0 0.00010854
11670.0 0.00010516
11690.0 0.00010189
11710.0 9.8664e-05
11730.0 9.5632e-05
11750.0 9.2868e-05
11770.0 9.0154e-05
11790.0 8.7559e-05
11810.0 8.5176e-05
11830.0 8.2908e-05
11850.0 8.0626e-05
11870.0 7.8485e-05
11890.0 7.6464e-05
11910.0 7.4419e-05
11930.0 7.2374e-05
11950.0 7.0417e-05
11970.0 6.8448e-05
11990.0 6.6404e-05
12010.0 6.4417e-05
12030.0 6.2488e-05
12050.0 6.0534e-05
12070.0 5.8592e-05
12090.0 5.6837e-05
12110.0 5.5155e-05
12130.0 5.3562e-05
12150.0 5.2166e-05
12170.0 5.0988e-05
12190.0 4.997e-05
12210.0 4.9221e-05
12230.0 4.8761e-05
12250.0 4.8572e-05
12270.0 4.8687e-05
12290.0 4.9095e-05
12310.0 4.9757e-05
12330.0 5.0718e-05
12350.0 5.1923e-05
12370.0 5.3277e-05
12390.0 5.4803e-05
12410.0 5.6534e-05
12430.0 5.8219e-05
12450.0 5.9885e-05
12470.0 6.1563e-05
12490.0 6.3146e-05
12510.0 6.453e-05
12530.0 6.5807e-05
12550.0 6.6933e-05
12570.0 6.7824e-05
12590.0 6.8513e-05
12610.0 6.9032e-05
12630.0 6.9346e-05
12650.0 6.9457e-05
12670.0 6.9411e-05
12690.0 6.9206e-05
12710.0 6.8865e-05
12730.0 6.841e-05
12750.0 6.7825e-05
12770.0 6.7152e-05
12790.0 6.6418e-05
12810.0 6.5598e-05
12830.0 6.469e-05
12850.0 6.3755e-05
12870.0 6.2765e-05
12890.0 6.1675e-05
12910.0 6.0528e-05
12930.0 5.9345e-05
12950.0 5.8045e-05
12970.0 5.6637e-05
12990.0 5.5218e-05
13010.0 5.3733e-05
13030.0 5.2144e-05
13050.0 5.0539e-05
13070.0 4.8976e-05
13090.0 4.7357e-05
13110.0 4.5758e-05
13130.0 4.427e-05
13150.0 4.2864e-05
13170.0 4.1507e-05
13190.0 4.0333e-05
13210.0 3.934e-05
13230.0 3.8477e-05
13250.0 3.7781e-05
13270.0 3.7276e-05
13290.0 3.6919e-05
13310.0 3.6704e-05
13330.0 3.6628e-05
13350.0 3.6655e-05
13370.0 3.6767e-05
13390.0 3.6938e-05
13410.0 3.7123e-05
13430.0 3.7312e-05
13450.0 3.7486e-05
13470.0 3.7615e-05
13490.0 3.7691e-05
13510.0 3.7713e-05
13530.0 3.7671e-05
13550.0 3.7574e-05
13570.0 3.7429e-05
13590.0 3.7242e-05
13610.0 3.7036e-05
13630.0 3.6823e-05
13650.0 3.6603e-05
13670.0 3.6395e-05
13690.0 3.6209e-05
13710.0 3.6043e-05
13730.0 3.5895e-05
13750.0 3.5773e-05
13770.0 3.5668e-05
13790.0 3.557e-05
13810.0 3.5472e-05
13830.0 3.537e-05
13850.0 3.525e-05
13870.0 3.5103e-05
13890.0 3.493e-05
13910.0 3.4726e-05
13930.0 3.4481e-05
13950.0 3.4203e-05
13970.0 3.3912e-05
13990.0 3.3596e-05
14010.0 3.3265e-05
14030.0 3.2944e-05
14050.0 3.2634e-05
14070.0 3.2328e-05
14090.0 3.2056e-05
14110.0 3.182e-05
14130.0 3.1612e-05
14150.0 3.1436e-05
14170.0 3.13e-05
14190.0 3.1195e-05
14210.0 3.1119e-05
14230.0 3.1075e-05
14250.0 3.106e-05
14270.0 3.1078e-05
14290.0 3.1131e-05
14310.0 3.1214e-05
14330.0 3.133e-05
14350.0 3.1489e-05
14370.0 3.1679e-05
14390.0 3.1892e-05
14410.0 3.2145e-05
14430.0 3.2427e-05
14450.0 3.2718e-05
14470.0 3.3028e-05
14490.0 3.3372e-05
14510.0 3.3718e-05
14530.0 3.4067e-05
14550.0 3.4451e-05
14570.0 3.4866e-05
14590.0 3.5294e-05
14610.0 3.5773e-05
14630.0 3.6329e-05
14650.0 3.6929e-05
14670.0 3.7585e-05
14690.0 3.8341e-05
14710.0 3.9191e-05
14730.0 4.0061e-05
14750.0 4.1018e-05
14770.0 4.2064e-05
14790.0 4.3129e-05
14810.0 4.4196e-05
14830.0 4.5346e-05
14850.0 4.6467e-05
14870.0 4.751e-05
14890.0 4.8516e-05
14910.0 4.9465e-05
14930.0 5.0273e-05
14950.0 5.0945e-05
14970.0 5.1508e-05
14990.0 5.1915e-05
15010.0 5.217e-05
15030.0 5.2306e-05
15050.0 5.2336e-05
15070.0 5.228e-05
15090.0 5.2171e-05
15110.0 5.2023e-05
15130.0 5.1855e-05
15150.0 5.1681e-05
15170.0 5.1498e-05
15190.0 5.131e-05
15210.0 5.1127e-05
15230.0 5.0945e-05
15250.0 5.0758e-05
15270.0 5.0573e-05
15290.0 5.0396e-05
15310.0 5.0215e-05
15330.0 5.0033e-05
15350.0 4.9856e-05
15370.0 4.9681e-05
15390.0 4.9498e-05
15410.0 4.9321e-05
15430.0 4.9148e-05
15450.0 4.8972e-05
15470.0 4.8795e-05
15490.0 4.8624e-05
15510.0 4.8454e-05
15530.0 4.8279e-05
15550.0 4.8108e-05
15570.0 4.7941e-05
15590.0 4.7769e-05
15610.0 4.7596e-05
15630.0 4.7431e-05
15650.0 4.7264e-05
15670.0 4.7094e-05
15690.0 4.6928e-05
15710.0 4.6767e-05
15730.0 4.66e-05
15750.0 4.6433e-05
15770.0 4.6272e-05
15790.0 4.611e-05
15810.0 4.5942e-05
15830.0 4.578e-05
15850.0 4.5622e-05
15870.0 4.546e-05
15890.0 4.5297e-05
15910.0 4.5141e-05
15930.0 4.4982e-05
15950.0 4.4819e-05
15970.0 4.4661e-05
15990.0 4.4505e-05
16010.0 4.4345e-05
16030.0 4.4184e-05
16050.0 4.4031e-05
16070.0 4.3876e-05
16090.0 4.3717e-05
16110.0 4.3562e-05
16130.0 4.341e-05
16150.0 4.325e-05
16170.0 4.3093e-05
16190.0 4.2942e-05
16210.0 4.2787e-05
16230.0 4.263e-05
16250.0 4.2477e-05
16270.0 4.2327e-05
16290.0 4.2171e-05
16310.0 4.2017e-05
16330.0 4.1867e-05
16350.0 4.1714e-05
16370.0 4.1555e-05
16390.0 4.1405e-05
16410.0 4.1255e-05
16430.0 4.11e-05
16450.0 4.0947e-05
16470.0 4.08e-05
16490.0 4.0646e-05
16510.0 4.0491e-05
16530.0 4.0341e-05
16550.0 4.0191e-05
16570.0 4.0036e-05
16590.0 3.9882e-05
16610.0 3.9734e-05
16630.0 3.9582e-05
16650.0 3.9428e-05
16670.0 3.9279e-05
16690.0 3.913e-05
16710.0 3.8973e-05
16730.0 3.8821e-05
16750.0 3.8672e-05
16770.0 3.8519e-05
16790.0 3.8363e-05
16810.0 3.8214e-05
16830.0 3.8064e-05
16850.0 3.7909e-05
16870.0 3.7757e-05
16890.0 3.7608e-05
16910.0 3.7453e-05
16930.0 3.7296e-05
16950.0 3.7146e-05
16970.0 3.6995e-05
16990.0 3.6839e-05
17010.0 3.6686e-05
17030.0 3.6537e-05
17050.0 3.6381e-05
17070.0 3.6226e-05
17090.0 3.6075e-05
17110.0 3.5922e-05
17130.0 3.5762e-05
17150.0 3.5609e-05
17170.0 3.5458e-05
17190.0 3.5302e-05
17210.0 3.5146e-05
17230.0 3.4995e-05
17250.0 3.484e-05
17270.0 3.4681e-05
17290.0 3.4526e-05
17310.0 3.4373e-05
17330.0 3.4215e-05
17350.0 3.4056e-05
17370.0 3.3905e-05
17390.0 3.3749e-05
17410.0 3.3591e-05
17430.0 3.3436e-05
17450.0 3.3283e-05
17470.0 3.3121e-05
17490.0 3.2962e-05
17510.0 3.2809e-05
17530.0 3.2651e-05
17550.0 3.2491e-05
17570.0 3.2335e-05
17590.0 3.2181e-05
17610.0 3.202e-05
17630.0 3.1862e-05
17650.0 3.1707e-05
17670.0 3.1548e-05
17690.0 3.1384e-05
17710.0 3.1229e-05
17730.0 3.1072e-05
17750.0 3.0911e-05
17770.0 3.0752e-05
17790.0 3.0598e-05
17810.0 3.0438e-05
17830.0 3.0275e-05
17850.0 3.0118e-05
17870.0 2.9961e-05
17890.0 2.9798e-05
17910.0 2.9637e-05
17930.0 2.9482e-05
17950.0 2.9322e-05
17970.0 2.9161e-05
17990.0 2.9004e-05
18010.0 2.8847e-05
18030.0 2.8682e-05
18050.0 2.8523e-05
18070.0 2.8366e-05
18090.0 2.8205e-05
18110.0 2.8042e-05
18130.0 2.7886e-05
18150.0 2.7729e-05
18170.0 2.7566e-05
18190.0 2.7407e-05
18210.0 2.7251e-05
18230.0 2.7089e-05
18250.0 2.6925e-05
18270.0 2.677e-05
18290.0 2.6611e-05
18310.0 2.6449e-05
18330.0 2.6291e-05
18350.0 2.6136e-05
18370.0 2.5974e-05
18390.0 2.5813e-05
18410.0 2.5657e-05
18430.0 2.5499e-05
18450.0 2.5336e-05
18470.0 2.5178e-05
18490.0 2.5023e-05
18510.0 2.4863e-05
18530.0 2.4704e-05
18550.0 2.455e-05
18570.0 2.4392e-05
18590.0 2.423e-05
18610.0 2.4074e-05
18630.0 2.3919e-05
18650.0 2.3759e-05
18670.0 2.36e-05
18690.0 2.3447e-05
18710.0 2.3291e-05
18730.0 2.3132e-05
18750.0 2.2978e-05
18770.0 2.2825e-05
18790.0 2.2664e-05
18810.0 2.2507e-05
18830.0 2.2355e-05
18850.0 2.22e-05
18870.0 2.2042e-05
18890.0 2.189e-05
18910.0 2.1738e-05
18930.0 2.1581e-05
18950.0 2.1427e-05
18970.0 2.1276e-05
18990.0 2.1123e-05
19010.0 2.0964e-05
19030.0 2.0814e-05
19050.0 2.0664e-05
19070.0 2.0509e-05
19090.0 2.0357e-05
19110.0 2.021e-05
19130.0 2.0056e-05
19150.0 1.9903e-05
19170.0 1.9754e-05
19190.0 1.9605e-05
19210.0 1.9451e-05
19230.0 1.93e-05
19250.0 1.9155e-05
19270.0 1.9005e-05
19290.0 1.8854e-05
19310.0 1.8709e-05
19330.0 1.8562e-05
19350.0 1.8409e-05
19370.0 1.8262e-05
19390.0 1.8118e-05
19410.0 1.7969e-05
19430.0 1.782e-05
19450.0 1.7678e-05
19470.0 1.7533e-05
19490.0 1.7385e-05
19510.0 1.724e-05
19530.0 1.7099e-05
19550.0 1.6952e-05
19570.0 1.6804e-05
19590.0 1.6664e-05
19610.0 1.6521e-05
19630.0 1.6376e-05
19650.0 1.6234e-05
19670.0 1.6096e-05
19690.0 1.5951e-05
19710.0 1.5808e-05
19730.0 1.5669e-05
19750.0 1.5529e-05
19770.0 1.5384e-05
19790.0 1.5245e-05
19810.0 1.5108e-05
19830.0 1.4967e-05
19850.0 1.4825e-05
19870.0 1.4687e-05
19890.0 1.454e-05
19910.0 1.4382e-05
19930.0 1.4217e-05
19950.0 1.4036e-05
19970.0 1.3822e-05
19990.0 1.3576e-05
20010.0 1.331e-05
20030.0 1.3005e-05
20050.0 1.2667e-05
20070.0 1.2323e-05
20090.0 1.1976e-05
20110.0 1.1611e-05
20130.0 1.1271e-05
20150.0 1.096e-05
20170.0 1.0665e-05
20190.0 1.0393e-05
20210.0 1.0159e-05
20230.0 9.9517e-06
20250.0 9.7641e-06
20270.0 9.608e-06
20290.0 9.4809e-06
20310.0 9.375e-06
20330.0 9.2914e-06
20350.0 9.2358e-06
20370.0 9.2003e-06
20390.0 9.1858e-06
20410.0 9.1928e-06
20430.0 9.219e-06
20450.0 9.2678e-06
20470.0 9.3385e-06
20490.0 9.4269e-06
20510.0 9.5358e-06
20530.0 9.6697e-06
20550.0 9.8197e-06
20570.0 9.9807e-06
20590.0 1.0164e-05
20610.0 1.0361e-05
20630.0 1.056e-05
20650.0 1.0768e-05
20670.0 1.099e-05
20690.0 1.1201e-05
20710.0 1.1405e-05
20730.0 1.1608e-05
20750.0 1.1803e-05
20770.0 1.1977e-05
20790.0 1.2144e-05
20810.0 1.2304e-05
20830.0 1.2448e-05
20850.0 1.2582e-05
20870.0 1.2716e-05
20890.0 1.2845e-05
20910.0 1.2966e-05
20930.0 1.309e-05
20950.0 1.3219e-05
20970.0 1.3346e-05
20990.0 1.3471e-05
21010.0 1.3604e-05
21030.0 1.3732e-05
21050.0 1.385e-05
21070.0 1.3963e-05
21090.0 1.4069e-05
21110.0 1.4155e-05
21130.0 1.4224e-05
21150.0 1.4278e-05
21170.0 1.4312e-05
21190.0 1.4326e-05
21210.0 1.4321e-05
21230.0 1.4296e-05
21250.0 1.4254e-05
21270.0 1.4196e-05
21290.0 1.4121e-05
21310.0 1.4032e-05
21330.0 1.3936e-05
21350.0 1.3827e-05
21370.0 1.3708e-05
21390.0 1.3588e-05
21410.0 1.3463e-05
21430.0 1.3329e-05
21450.0 1.3198e-05
21470.0 1.3072e-05
21490.0 1.2945e-05
21510.0 1.282e-05
21530.0 1.2705e-05
21550.0 1.2597e-05
21570.0 1.2493e-05
21590.0 1.2401e-05
21610.0 1.2322e-05
21630.0 1.2254e-05
21650.0 1.2198e-05
21670.0 1.2159e-05
21690.0 1.2135e-05
21710.0 1.2127e-05
21730.0 1.2136e-05
21750.0 1.216e-05
21770.0 1.2204e-05
21790.0 1.2265e-05
21810.0 1.2341e-05
21830.0 1.2434e-05
21850.0 1.2547e-05
21870.0 1.2672e-05
21890.0 1.2806e-05
21910.0 1.2958e-05
21930.0 1.3122e-05
21950.0 1.3289e-05
21970.0 1.3467e-05
21990.0 1.3661e-05
22010.0 1.3849e-05
22030.0 1.4037e-05
22050.0 1.4232e-05
22070.0 1.4424e-05
22090.0 1.4604e-05
22110.0 1.4782e-05
22130.0 1.4955e-05
22150.0 1.5112e-05
22170.0 1.5254e-05
22190.0 1.5386e-05
22210.0 1.5498e-05
22230.0 1.5585e-05
22250.0 1.5652e-05
22270.0 1.5697e-05
22290.0 1.5714e-05
22310.0 1.5707e-05
22330.0 1.5671e-05
22350.0 1.5606e-05
22370.0 1.5516e-05
22390.0 1.5397e-05
22410.0 1.5245e-05
22430.0 1.5073e-05
22450.0 1.488e-05
22470.0 1.4655e-05
22490.0 1.4412e-05
22510.0 1.4159e-05
22530.0 1.3879e-05
22550.0 1.3579e-05
22570.0 1.3281e-05
22590.0 1.2975e-05
22610.0 1.2652e-05
22630.0 1.2329e-05
