#lamb flux
1010.0 3.33e-07
1030.0 3.6551e-07
1050.0 4.029e-07
1070.0 4.4499e-07
1090.0 4.928e-07
1110.0 5.4183e-07
1130.0 5.9119e-07
1150.0 6.4288e-07
1170.0 6.9621e-07
1190.0 7.4678e-07
1210.0 7.9802e-07
1230.0 8.5098e-07
1250.0 9.0287e-07
1270.0 9.5326e-07
1290.0 1.0065e-06
1310.0 1.0597e-06
1330.0 1.1107e-06
1350.0 1.1623e-06
1370.0 1.2156e-06
1390.0 1.2675e-06
1410.0 1.3179e-06
1430.0 1.3706e-06
1450.0 1.4233e-06
1470.0 1.4742e-06
1490.0 1.5256e-06
1510.0 1.58e-06
1530.0 1.6315e-06
1550.0 1.6823e-06
1570.0 1.7348e-06
1590.0 1.7874e-06
1610.0 1.8377e-06
1630.0 1.8895e-06
1650.0 1.9427e-06
1670.0 1.9942e-06
1690.0 2.045e-06
1710.0 2.0977e-06
1730.0 2.1508e-06
1750.0 2.2007e-06
1770.0 2.2521e-06
1790.0 2.3045e-06
1810.0 2.3552e-06
1830.0 2.405e-06
1850.0 2.458e-06
1870.0 2.5095e-06
1890.0 2.5592e-06
1910.0 2.6099e-06
1930.0 2.6619e-06
1950.0 2.7113e-06
1970.0 2.7602e-06
1990.0 2.8108e-06
2010.0 2.8605e-06
2030.0 2.9082e-06
2050.0 2.9573e-06
2070.0 3.0076e-06
2090.0 3.0547e-06
2110.0 3.1014e-06
2130.0 3.1494e-06
2150.0 3.1962e-06
2170.0 3.2405e-06
2190.0 3.2863e-06
2210.0 3.332e-06
2230.0 3.3754e-06
2250.0 3.4181e-06
2270.0 3.4625e-06
2290.0 3.5049e-06
2310.0 3.545e-06
2330.0 3.5863e-06
2350.0 3.6285e-06
2370.0 3.6701e-06
2390.0 3.7155e-06
2410.0 3.7708e-06
2430.0 3.8359e-06
2450.0 3.9157e-06
2470.0 4.0209e-06
2490.0 4.1565e-06
2510.0 4.312e-06
2530.0 4.5014e-06
2550.0 4.741e-06
2570.0 5.0405e-06
2590.0 5.4304e-06
2610.0 6.0143e-06
2630.0 6.8434e-06
2650.0 7.9189e-06
2670.0 9.2992e-06
2690.0 1.0982e-05
2710.0 1.2761e-05
2730.0 1.4499e-05
2750.0 1.6192e-05
2770.0 1.764e-05
2790.0 1.8764e-05
2810.0 1.9629e-05
2830.0 2.028e-05
2850.0 2.0692e-05
2870.0 2.0968e-05
2890.0 2.1167e-05
2910.0 2.1307e-05
2930.0 2.1406e-05
2950.0 2.1498e-05
2970.0 2.1587e-05
2990.0 2.1667e-05
3010.0 0.00065208
3030.0 0.00065439
3050.0 0.00065661
3070.0 0.00065826
3090.0 0.00065942
3110.0 0.00065936
3130.0 0.0006572
3150.0 0.00065231
3170.0 0.00064341
3190.0 0.00063061
3210.0 0.00061498
3230.0 0.00059736
3250.0 0.00057957
3270.0 0.0005664
3290.0 0.00055771
3310.0 0.0005572
3330.0 0.00056346
3350.0 0.00057582
3370.0 0.00059424
3390.0 0.00061792
3410.0 0.00064395
3430.0 0.00067334
3450.0 0.00070733
3470.0 0.00074459
3490.0 0.00078427
3510.0 0.00082928
3530.0 0.00087784
3550.0 0.0009281
3570.0 0.00098166
3590.0 0.0010404
3610.0 0.0011029
3630.0 0.0011648
3650.0 0.0012295
3670.0 0.0012881
3690.0 0.0013317
3710.0 0.0013552
3730.0 0.00135
3750.0 0.0013189
3770.0 0.0013306
3790.0 0.0013193
3810.0 0.0011837
3830.0 0.0012008
3850.0 0.0015019
3870.0 0.0015598
3890.0 0.0014009
3910.0 0.0013569
3930.0 0.0014796
3950.0 0.0016055
3970.0 0.0015852
3990.0 0.0012093
4010.0 0.0031868
4030.0 0.0036566
4050.0 0.0041707
4070.0 0.0038975
4090.0 0.003572
4110.0 0.0030866
4130.0 0.0031315
4150.0 0.0036952
4170.0 0.0033082
4190.0 0.0032912
4210.0 0.0034247
4230.0 0.0038484
4250.0 0.0046009
4270.0 0.0048041
4290.0 0.0043253
4310.0 0.0042834
4330.0 0.0044111
4350.0 0.0052108
4370.0 0.0061114
4390.0 0.0053409
4410.0 0.0035256
4430.0 0.0028165
4450.0 0.0026155
4470.0 0.0018382
4490.0 0.0023183
4510.0 0.0041616
4530.0 0.0049357
4550.0 0.0047752
4570.0 0.0048593
4590.0 0.0053779
4610.0 0.0086043
4630.0 0.011649
4650.0 0.011864
4670.0 0.010719
4690.0 0.010486
4710.0 0.011008
4730.0 0.0098149
4750.0 0.0069481
4770.0 0.0049233
4790.0 0.0049165
4810.0 0.0049111
4830.0 0.0046548
4850.0 0.0050709
4870.0 0.006707
4890.0 0.007839
4910.0 0.006536
4930.0 0.0060421
4950.0 0.0067869
4970.0 0.0088309
4990.0 0.011957
5010.0 0.013828
5030.0 0.011683
5050.0 0.0075963
5070.0 0.0051683
5090.0 0.004033
5110.0 0.0039757
5130.0 0.0046891
5150.0 0.0048599
5170.0 0.0046933
5190.0 0.0042879
5210.0 0.0046203
5230.0 0.0052122
5250.0 0.0058218
5270.0 0.0058627
5290.0 0.0064069
5310.0 0.0079491
5330.0 0.0087149
5350.0 0.0086298
5370.0 0.0093271
5390.0 0.011141
5410.0 0.01039
5430.0 0.0086778
5450.0 0.0082946
5470.0 0.0091495
5490.0 0.011273
5510.0 0.013896
5530.0 0.01603
5550.0 0.015045
5570.0 0.013608
5590.0 0.011547
5610.0 0.011092
5630.0 0.011522
5650.0 0.010769
5670.0 0.010051
5690.0 0.0085773
5710.0 0.0085736
5730.0 0.0080887
5750.0 0.0051103
5770.0 0.0038304
5790.0 0.004497
5810.0 0.0049165
5830.0 0.0066909
5850.0 0.0083344
5870.0 0.0091389
5890.0 0.0090461
5910.0 0.0088533
5930.0 0.0084506
5950.0 0.008651
5970.0 0.010274
5990.0 0.0090833
6010.0 0.0073442
6030.0 0.0061208
6050.0 0.0053891
6070.0 0.0058037
6090.0 0.0063867
6110.0 0.0068443
6130.0 0.0066785
6150.0 0.0055292
6170.0 0.0045861
6190.0 0.0053007
6210.0 0.0075876
6230.0 0.010559
6250.0 0.011446
6270.0 0.0094112
6290.0 0.0079871
6310.0 0.0061698
6330.0 0.0046218
6350.0 0.0043038
6370.0 0.0045217
6390.0 0.005298
6410.0 0.0066964
6430.0 0.0079341
6450.0 0.0093843
6470.0 0.010311
6490.0 0.012386
6510.0 0.013865
6530.0 0.013903
6550.0 0.012678
6570.0 0.010415
6590.0 0.0096075
6610.0 0.0081214
6630.0 0.0078822
6650.0 0.0075757
6670.0 0.0069457
6690.0 0.0057986
6710.0 0.0054607
6730.0 0.0031277
6750.0 0.0035381
6770.0 0.0046375
6790.0 0.0057585
6810.0 0.0045887
6830.0 0.0047036
6850.0 0.004143
6870.0 0.0038188
6890.0 0.0034486
6910.0 0.0039316
6930.0 0.0036948
6950.0 0.0040994
6970.0 0.0042978
6990.0 0.0048245
7010.0 0.0047408
7030.0 0.0051521
7050.0 0.0046751
7070.0 0.0041585
7090.0 0.0043229
7110.0 0.004537
7130.0 0.0050638
7150.0 0.0055608
7170.0 0.0061959
7190.0 0.0067288
7210.0 0.0062929
7230.0 0.0064236
7250.0 0.006878
7270.0 0.0074135
7290.0 0.0089933
7310.0 0.0096679
7330.0 0.0092251
7350.0 0.008309
7370.0 0.0066942
7390.0 0.0066671
7410.0 0.0075855
7430.0 0.0085456
7450.0 0.0092585
7470.0 0.0087873
7490.0 0.0074438
7510.0 0.010072
7530.0 0.00957
7550.0 0.0088592
7570.0 0.0064474
7590.0 0.0036433
7610.0 0.0029057
7630.0 0.0036963
7650.0 0.0046261
7670.0 0.0064876
7690.0 0.0071731
7710.0 0.0069667
7730.0 0.0071399
7750.0 0.0086615
7770.0 0.0088587
7790.0 0.0081099
7810.0 0.006956
7830.0 0.0073595
7850.0 0.0076126
7870.0 0.0072207
7890.0 0.0058336
7910.0 0.0043201
7930.0 0.0043023
7950.0 0.0039068
7970.0 0.0034546
7990.0 0.0032893
8010.0 0.00088913
8030.0 0.00080623
8050.0 0.00087237
8070.0 0.0010022
8090.0 0.0012477
8110.0 0.0011784
8130.0 0.00067601
8150.0 0.00071728
8170.0 0.00037756
8190.0 0.00020753
8210.0 0.00064894
8230.0 0.00079391
8250.0 0.00028835
8270.0 0.00021905
8290.0 0.00047875
8310.0 0.0004349
8330.0 0.00026894
8350.0 0.0002137
8370.0 3.9536e-05
8390.0 0.00023005
8410.0 0.00026132
8430.0 0.0003232
8450.0 0.00036693
8470.0 0.00062918
8490.0 0.00051503
8510.0 0.00039393
8530.0 0.00019742
8550.0 0.00072051
8570.0 0.0011096
8590.0 0.00076891
8610.0 0.001164
8630.0 0.0012761
8650.0 0.0007011
8670.0 0.001033
8690.0 0.0015863
8710.0 0.001352
8730.0 0.0014454
8750.0 0.0011295
8770.0 0.0010011
8790.0 0.0011072
8810.0 0.0012028
8830.0 0.00066108
8850.0 0.00026682
8870.0 0.00018164
8890.0 0.00048961
8910.0 0.00078971
8930.0 0.0010577
8950.0 0.0011629
8970.0 0.0011153
8990.0 0.00081374
9010.0 0.0015214
9030.0 0.0012315
9050.0 0.0012589
9070.0 0.0012903
9090.0 0.0013163
9110.0 0.0013484
9130.0 0.0013718
9150.0 0.0013886
9170.0 0.0014065
9190.0 0.0014257
9210.0 0.0014458
9230.0 0.0014671
9250.0 0.0014885
9270.0 0.0015107
9290.0 0.0015334
9310.0 0.001556
9330.0 0.001579
9350.0 0.0016027
9370.0 0.0016266
9390.0 0.0016505
9410.0 0.001675
9430.0 0.0017003
9450.0 0.0017252
9470.0 0.0017505
9490.0 0.0017766
9510.0 0.0018028
9530.0 0.001829
9550.0 0.0018562
9570.0 0.0018837
9590.0 0.0019112
9610.0 0.001939
9630.0 0.0019677
9650.0 0.0019965
9670.0 0.0020252
9690.0 0.0020547
9710.0 0.0020847
9730.0 0.0021146
9750.0 0.0021449
9770.0 0.0021762
9790.0 0.0022073
9810.0 0.0022386
9830.0 0.0022705
9850.0 0.0023028
9870.0 0.0023349
9890.0 0.0023676
9910.0 0.0024009
9930.0 0.0024341
9950.0 0.0024674
9970.0 0.0025015
9990.0 0.002536
10010.0 0.0022244
10030.0 0.0022543
10050.0 0.0022847
10070.0 0.002315
10090.0 0.0023451
10110.0 0.0023759
10130.0 0.0024068
10150.0 0.0024374
10170.0 0.0024683
10190.0 0.0024998
10210.0 0.0025308
10230.0 0.0025617
10250.0 0.0025931
10270.0 0.0026245
10290.0 0.0026554
10310.0 0.0026868
10330.0 0.0027185
10350.0 0.0027496
10370.0 0.0027806
10390.0 0.002812
10410.0 0.0028432
10430.0 0.0028737
10450.0 0.0029046
10470.0 0.0029356
10490.0 0.0029659
10510.0 0.0029961
10530.0 0.0030267
10550.0 0.0030568
10570.0 0.0030863
10590.0 0.0031158
10610.0 0.0031454
10630.0 0.0031741
10650.0 0.0032025
10670.0 0.0032313
10690.0 0.0032594
10710.0 0.0032869
10730.0 0.0033144
10750.0 0.0033419
10770.0 0.0033682
10790.0 0.0033942
10810.0 0.0034203
10830.0 0.0034454
10850.0 0.0034693
10870.0 0.0034927
10890.0 0.0035138
10910.0 0.003531
10930.0 0.0035427
10950.0 0.003546
10970.0 0.0035379
10990.0 0.0035173
11010.0 0.0033151
11030.0 0.0032634
11050.0 0.0031994
11070.0 0.0031222
11090.0 0.0030291
11110.0 0.0029326
11130.0 0.0028321
11150.0 0.002724
11170.0 0.0026129
11190.0 0.0025054
11210.0 0.0023948
11230.0 0.0022818
11250.0 0.002174
11270.0 0.0020708
11290.0 0.0019676
11310.0 0.00187
11330.0 0.0017839
11350.0 0.0017025
11370.0 0.0016272
11390.0 0.0015616
11410.0 0.0015039
11430.0 0.0014499
11450.0 0.0014029
11470.0 0.0013617
11490.0 0.001323
11510.0 0.0012856
11530.0 0.0012505
11550.0 0.0012158
11570.0 0.0011789
11590.0 0.0011409
11610.0 0.0011024
11630.0 0.0010609
11650.0 0.0010168
11670.0 0.00097356
11690.0 0.00092984
11710.0 0.00088492
11730.0 0.00084143
11750.0 0.00080113
11770.0 0.00076161
11790.0 0.00072446
11810.0 0.00069157
11830.0 0.00066195
11850.0 0.00063448
11870.0 0.00061121
11890.0 0.00059157
11910.0 0.00057408
11930.0 0.0005588
11950.0 0.00054583
11970.0 0.0005341
11990.0 0.00052296
12010.0 0.00051261
12030.0 0.00050266
12050.0 0.00049249
12070.0 0.00048202
12090.0 0.00047196
12110.0 0.00046178
12130.0 0.00045159
12150.0 0.00044208
12170.0 0.00043357
12190.0 0.00042593
12210.0 0.00042003
12230.0 0.00041626
12250.0 0.00041473
12270.0 0.00041595
12290.0 0.00041994
12310.0 0.00042649
12330.0 0.00043633
12350.0 0.00044906
12370.0 0.00046383
12390.0 0.0004811
12410.0 0.0005016
12430.0 0.0005225
12450.0 0.00054419
12470.0 0.00056734
12490.0 0.00059059
12510.0 0.00061234
12530.0 0.00063397
12550.0 0.0006548
12570.0 0.00067306
12590.0 0.00068897
12610.0 0.00070305
12630.0 0.00071409
12650.0 0.00072141
12670.0 0.00072591
12690.0 0.00072718
12710.0 0.00072507
12730.0 0.00071997
12750.0 0.0007116
12770.0 0.00070045
12790.0 0.00068713
12810.0 0.00067142
12830.0 0.00065343
12850.0 0.00063468
12870.0 0.00061496
12890.0 0.00059375
12910.0 0.00057227
12930.0 0.00055116
12950.0 0.00052924
12970.0 0.00050702
12990.0 0.00048603
13010.0 0.00046535
13030.0 0.00044451
13050.0 0.0004245
13070.0 0.00040576
13090.0 0.00038697
13110.0 0.00036878
13130.0 0.00035197
13150.0 0.00033601
13170.0 0.00032035
13190.0 0.00030633
13210.0 0.0002939
13230.0 0.00028244
13250.0 0.00027244
13270.0 0.00026439
13290.0 0.00025794
13310.0 0.0002532
13330.0 0.0002506
13350.0 0.00024998
13370.0 0.00025145
13390.0 0.00025514
13410.0 0.00026048
13430.0 0.0002677
13450.0 0.00027684
13470.0 0.00028715
13490.0 0.0002982
13510.0 0.00031083
13530.0 0.00032376
13550.0 0.00033623
13570.0 0.00034865
13590.0 0.00036086
13610.0 0.00037182
13630.0 0.00038147
13650.0 0.00039037
13670.0 0.00039786
13690.0 0.00040372
13710.0 0.00040835
13730.0 0.00041177
13750.0 0.00041361
13770.0 0.00041424
13790.0 0.00041372
13810.0 0.00041207
13830.0 0.00040949
13850.0 0.00040589
13870.0 0.00040131
13890.0 0.00039602
13910.0 0.00039003
13930.0 0.00038308
13950.0 0.00037549
13970.0 0.00036773
13990.0 0.00035928
14010.0 0.00035031
14030.0 0.00034137
14050.0 0.00033237
14070.0 0.00032288
14090.0 0.00031378
14110.0 0.00030524
14130.0 0.00029695
14150.0 0.00028913
14170.0 0.00028244
14190.0 0.00027663
14210.0 0.00027166
14230.0 0.00026794
14250.0 0.00026548
14270.0 0.00026419
14290.0 0.00026426
14310.0 0.00026558
14330.0 0.00026808
14350.0 0.00027185
14370.0 0.00027661
14390.0 0.00028208
14410.0 0.00028856
14430.0 0.00029574
14450.0 0.00030313
14470.0 0.00031085
14490.0 0.00031912
14510.0 0.00032708
14530.0 0.00033469
14550.0 0.00034235
14570.0 0.00034974
14590.0 0.00035651
14610.0 0.00036307
14630.0 0.00036958
14650.0 0.00037566
14670.0 0.00038152
14690.0 0.00038761
14710.0 0.000394
14730.0 0.00040037
14750.0 0.00040741
14770.0 0.00041537
14790.0 0.000424
14810.0 0.00043336
14830.0 0.00044443
14850.0 0.00045649
14870.0 0.0004691
14890.0 0.00048272
14910.0 0.00049721
14930.0 0.00051119
14950.0 0.0005243
14970.0 0.00053675
14990.0 0.00054727
15010.0 0.0005554
15030.0 0.00056152
15050.0 0.0005657
15070.0 0.00056792
15090.0 0.00056893
15110.0 0.00056911
15130.0 0.00056875
15150.0 0.00056814
15170.0 0.00056735
15190.0 0.00056649
15210.0 0.00056564
15230.0 0.0005648
15250.0 0.00056392
15270.0 0.00056305
15290.0 0.00056226
15310.0 0.00056143
15330.0 0.00056059
15350.0 0.0005598
15370.0 0.00055902
15390.0 0.00055818
15410.0 0.00055739
15430.0 0.00055663
15450.0 0.00055584
15470.0 0.00055504
15490.0 0.0005543
15510.0 0.00055356
15530.0 0.00055279
15550.0 0.00055204
15570.0 0.00055132
15590.0 0.00055056
15610.0 0.00054979
15630.0 0.00054908
15650.0 0.00054836
15670.0 0.0005476
15690.0 0.00054688
15710.0 0.0005462
15730.0 0.00054546
15750.0 0.00054472
15770.0 0.00054402
15790.0 0.00054332
15810.0 0.00054255
15830.0 0.00054184
15850.0 0.00054115
15870.0 0.00054043
15890.0 0.00053969
15910.0 0.00053901
15930.0 0.0005383
15950.0 0.00053754
15970.0 0.00053683
15990.0 0.00053613
16010.0 0.00053539
16030.0 0.00053463
16050.0 0.00053395
16070.0 0.00053322
16090.0 0.00053247
16110.0 0.00053174
16130.0 0.00053104
16150.0 0.00053026
16170.0 0.00052949
16190.0 0.00052877
16210.0 0.00052802
16230.0 0.00052723
16250.0 0.00052648
16270.0 0.00052575
16290.0 0.00052495
16310.0 0.00052416
16330.0 0.00052341
16350.0 0.00052263
16370.0 0.00052177
16390.0 0.000521
16410.0 0.00052022
16430.0 0.00051939
16450.0 0.00051856
16470.0 0.00051778
16490.0 0.00051694
16510.0 0.00051607
16530.0 0.00051525
16550.0 0.00051441
16570.0 0.00051352
16590.0 0.00051264
16610.0 0.00051181
16630.0 0.00051093
16650.0 0.00051002
16670.0 0.00050915
16690.0 0.00050827
16710.0 0.00050731
16730.0 0.00050639
16750.0 0.00050549
16770.0 0.00050455
16790.0 0.00050357
16810.0 0.00050265
16830.0 0.00050172
16850.0 0.00050072
16870.0 0.00049975
16890.0 0.0004988
16910.0 0.00049778
16930.0 0.00049674
16950.0 0.00049576
16970.0 0.00049475
16990.0 0.0004937
17010.0 0.00049267
17030.0 0.00049166
17050.0 0.00049059
17070.0 0.00048951
17090.0 0.00048846
17110.0 0.00048739
17130.0 0.00048625
17150.0 0.00048516
17170.0 0.00048409
17190.0 0.00048296
17210.0 0.00048182
17230.0 0.00048072
17250.0 0.00047959
17270.0 0.00047839
17290.0 0.00047724
17310.0 0.0004761
17330.0 0.0004749
17350.0 0.00047368
17370.0 0.00047254
17390.0 0.00047134
17410.0 0.0004701
17430.0 0.0004689
17450.0 0.00046771
17470.0 0.00046642
17490.0 0.00046516
17510.0 0.00046394
17530.0 0.00046268
17550.0 0.00046138
17570.0 0.00046012
17590.0 0.00045887
17610.0 0.00045755
17630.0 0.00045624
17650.0 0.00045497
17670.0 0.00045365
17690.0 0.00045227
17710.0 0.00045097
17730.0 0.00044965
17750.0 0.00044828
17770.0 0.00044693
17790.0 0.00044562
17810.0 0.00044423
17830.0 0.00044283
17850.0 0.00044147
17870.0 0.0004401
17890.0 0.00043867
17910.0 0.00043726
17930.0 0.0004359
17950.0 0.00043448
17970.0 0.00043304
17990.0 0.00043164
18010.0 0.00043024
18030.0 0.00042875
18050.0 0.0004273
18070.0 0.00042589
18090.0 0.00042442
18110.0 0.00042293
18130.0 0.00042151
18150.0 0.00042006
18170.0 0.00041855
18190.0 0.00041708
18210.0 0.00041563
18230.0 0.00041412
18250.0 0.00041259
18270.0 0.00041112
18290.0 0.00040963
18310.0 0.0004081
18330.0 0.0004066
18350.0 0.00040513
18370.0 0.00040359
18390.0 0.00040205
18410.0 0.00040055
18430.0 0.00039903
18450.0 0.00039745
18470.0 0.00039592
18490.0 0.00039442
18510.0 0.00039286
18530.0 0.00039131
18550.0 0.0003898
18570.0 0.00038825
18590.0 0.00038666
18610.0 0.00038512
18630.0 0.00038358
18650.0 0.000382
18670.0 0.00038041
18690.0 0.0003789
18710.0 0.00037733
18730.0 0.00037574
18750.0 0.00037419
18770.0 0.00037266
18790.0 0.00037103
18810.0 0.00036945
18830.0 0.00036791
18850.0 0.00036633
18870.0 0.00036472
18890.0 0.00036317
18910.0 0.00036162
18930.0 0.00036001
18950.0 0.00035842
18970.0 0.00035688
18990.0 0.00035529
19010.0 0.00035365
19030.0 0.0003521
19050.0 0.00035054
19070.0 0.00034893
19090.0 0.00034735
19110.0 0.00034581
19130.0 0.00034421
19150.0 0.0003426
19170.0 0.00034104
19190.0 0.00033947
19210.0 0.00033785
19230.0 0.00033626
19250.0 0.00033472
19270.0 0.00033313
19290.0 0.00033154
19310.0 0.00032999
19330.0 0.00032843
19350.0 0.0003268
19370.0 0.00032523
19390.0 0.00032368
19410.0 0.00032209
19430.0 0.00032049
19450.0 0.00031896
19470.0 0.0003174
19490.0 0.00031581
19510.0 0.00031424
19530.0 0.00031271
19550.0 0.00031112
19570.0 0.00030952
19590.0 0.00030799
19610.0 0.00030644
19630.0 0.00030486
19650.0 0.00030331
19670.0 0.0003018
19690.0 0.00030022
19710.0 0.00029865
19730.0 0.00029713
19750.0 0.00029559
19770.0 0.00029399
19790.0 0.00029246
19810.0 0.00029095
19830.0 0.00028939
19850.0 0.00028782
19870.0 0.00028629
19890.0 0.00028465
19910.0 0.00028287
19930.0 0.00028099
19950.0 0.00027888
19970.0 0.00027632
19990.0 0.00027329
20010.0 0.00024601
20030.0 0.00024229
20050.0 0.00023798
20070.0 0.00023333
20090.0 0.00022835
20110.0 0.00022275
20130.0 0.00021711
20150.0 0.00021153
20170.0 0.00020576
20190.0 0.00019992
20210.0 0.00019442
20230.0 0.00018906
20250.0 0.00018369
20270.0 0.00017872
20290.0 0.00017417
20310.0 0.00016984
20330.0 0.00016579
20350.0 0.00016241
20370.0 0.0001594
20390.0 0.00015674
20410.0 0.00015457
20430.0 0.00015287
20450.0 0.00015149
20470.0 0.00015054
20490.0 0.00014998
20510.0 0.00014974
20530.0 0.00014982
20550.0 0.00015019
20570.0 0.00015078
20590.0 0.00015162
20610.0 0.00015266
20630.0 0.00015382
20650.0 0.00015514
20670.0 0.00015667
20690.0 0.00015823
20710.0 0.00015985
20730.0 0.00016161
20750.0 0.00016344
20770.0 0.00016524
20790.0 0.00016713
20810.0 0.00016913
20830.0 0.0001711
20850.0 0.00017308
20870.0 0.00017519
20890.0 0.00017733
20910.0 0.00017939
20930.0 0.00018151
20950.0 0.00018371
20970.0 0.00018584
20990.0 0.00018794
21010.0 0.00019014
21030.0 0.00019229
21050.0 0.00019433
21070.0 0.00019636
21090.0 0.0001984
21110.0 0.00020025
21130.0 0.00020198
21150.0 0.00020366
21170.0 0.00020518
21190.0 0.00020647
21210.0 0.00020763
21230.0 0.0002086
21250.0 0.00020927
21270.0 0.00020968
21290.0 0.00020982
21310.0 0.00020962
21330.0 0.0002091
21350.0 0.00020822
21370.0 0.00020694
21390.0 0.00020532
21410.0 0.00020334
21430.0 0.00020085
21450.0 0.00019805
21470.0 0.000195
21490.0 0.00019156
21510.0 0.00018778
21530.0 0.00018394
21550.0 0.00017991
21570.0 0.00017562
21590.0 0.0001714
21610.0 0.00016732
21630.0 0.00016323
21650.0 0.00015923
21670.0 0.00015576
21690.0 0.00015254
21710.0 0.00014965
21730.0 0.00014726
21750.0 0.0001454
21770.0 0.00014396
21790.0 0.0001431
21810.0 0.00014281
21830.0 0.00014304
21850.0 0.00014383
21870.0 0.0001451
21890.0 0.00014678
21910.0 0.00014894
21930.0 0.0001515
21950.0 0.00015428
21970.0 0.00015736
21990.0 0.00016084
22010.0 0.00016432
22030.0 0.00016786
22050.0 0.00017158
22070.0 0.00017533
22090.0 0.00017888
22110.0 0.00018247
22130.0 0.00018606
22150.0 0.00018941
22170.0 0.00019257
22190.0 0.00019571
22210.0 0.00019863
22230.0 0.0002012
22250.0 0.00020362
22270.0 0.00020585
22290.0 0.00020775
22310.0 0.00020937
22330.0 0.0002108
22350.0 0.0002119
22370.0 0.00021267
22390.0 0.00021314
22410.0 0.00021327
22430.0 0.00021304
22450.0 0.00021247
22470.0 0.00021151
22490.0 0.00021016
22510.0 0.00020849
22530.0 0.00020637
22550.0 0.00020379
22570.0 0.00020094
22590.0 0.00019772
22610.0 0.00019403
22630.0 0.00019004
22650.0 0.00018591
22670.0 0.00018135
22690.0 0.00017649
22710.0 0.00017158
22730.0 0.00016652
22750.0 0.00016104
22770.0 0.00015568
22790.0 0.00015045
22810.0 0.00014508
22830.0 0.00013972
22850.0 0.00013471
22870.0 0.00012979
22890.0 0.0001249
22910.0 0.0001204
22930.0 0.00011627
22950.0 0.00011233
22970.0 0.00010868
22990.0 0.00010566
23010.0 0.00010297
23030.0 0.00010065
23050.0 9.8841e-05
