#lamb flux
1010.0 3.6295e-07
1030.0 3.9591e-07
1050.0 4.3383e-07
1070.0 4.7654e-07
1090.0 5.2505e-07
1110.0 5.7482e-07
1130.0 6.2493e-07
1150.0 6.7744e-07
1170.0 7.3163e-07
1190.0 7.8305e-07
1210.0 8.3518e-07
1230.0 8.8908e-07
1250.0 9.4193e-07
1270.0 9.9329e-07
1290.0 1.0476e-06
1310.0 1.1019e-06
1330.0 1.154e-06
1350.0 1.2067e-06
1370.0 1.2612e-06
1390.0 1.3144e-06
1410.0 1.3661e-06
1430.0 1.4201e-06
1450.0 1.4741e-06
1470.0 1.5265e-06
1490.0 1.5794e-06
1510.0 1.6353e-06
1530.0 1.6883e-06
1550.0 1.7407e-06
1570.0 1.7948e-06
1590.0 1.849e-06
1610.0 1.9009e-06
1630.0 1.9543e-06
1650.0 2.009e-06
1670.0 2.062e-06
1690.0 2.1142e-06
1710.0 2.1684e-06
1730.0 2.2228e-06
1750.0 2.2738e-06
1770.0 2.3261e-06
1790.0 2.3794e-06
1810.0 2.4308e-06
1830.0 2.481e-06
1850.0 2.534e-06
1870.0 2.5854e-06
1890.0 2.6347e-06
1910.0 2.6846e-06
1930.0 2.7354e-06
1950.0 2.7832e-06
1970.0 2.83e-06
1990.0 2.8781e-06
2010.0 2.9248e-06
2030.0 2.969e-06
2050.0 3.014e-06
2070.0 3.0596e-06
2090.0 3.1014e-06
2110.0 3.1422e-06
2130.0 3.1835e-06
2150.0 3.223e-06
2170.0 3.2593e-06
2190.0 3.2964e-06
2210.0 3.3327e-06
2230.0 3.3658e-06
2250.0 3.3975e-06
2270.0 3.4301e-06
2290.0 3.4598e-06
2310.0 3.4862e-06
2330.0 3.5127e-06
2350.0 3.5381e-06
2370.0 3.5603e-06
2390.0 3.5815e-06
2410.0 3.6039e-06
2430.0 3.6241e-06
2450.0 3.6431e-06
2470.0 3.6648e-06
2490.0 3.6916e-06
2510.0 3.7247e-06
2530.0 3.7795e-06
2550.0 3.8806e-06
2570.0 4.052e-06
2590.0 4.3218e-06
2610.0 4.7649e-06
2630.0 5.3951e-06
2650.0 6.1731e-06
2670.0 7.1031e-06
2690.0 8.145e-06
2710.0 9.1485e-06
2730.0 1.0044e-05
2750.0 1.0847e-05
2770.0 1.148e-05
2790.0 1.1942e-05
2810.0 1.2296e-05
2830.0 1.2588e-05
2850.0 1.2809e-05
2870.0 1.3005e-05
2890.0 1.3206e-05
2910.0 1.3404e-05
2930.0 1.3586e-05
2950.0 1.3783e-05
2970.0 1.3987e-05
2990.0 1.418e-05
3010.0 0.00011288
3030.0 0.00011446
3050.0 0.00011597
3070.0 0.0001172
3090.0 0.00011822
3110.0 0.00011869
3130.0 0.00011821
3150.0 0.00011652
3170.0 0.00011304
3190.0 0.00010779
3210.0 0.00010105
3230.0 9.3702e-05
3250.0 9.7209e-05
3270.0 9.0501e-05
3290.0 0.00010279
3310.0 9.0073e-05
3330.0 9.15e-05
3350.0 9.546e-05
3370.0 0.00010054
3390.0 0.00010644
3410.0 0.0001125
3430.0 0.00011894
3450.0 0.00012575
3470.0 0.00013243
3490.0 0.00013843
3510.0 0.0001483
3530.0 0.00016212
3550.0 0.0001658
3570.0 0.00016406
3590.0 0.00018105
3610.0 0.00017241
3630.0 0.00019659
3650.0 0.00021064
3670.0 0.00022971
3690.0 0.00022691
3710.0 0.0002059
3730.0 0.00021627
3750.0 0.00021684
3770.0 0.00023115
3790.0 0.00024615
3810.0 0.00027884
3830.0 0.00036716
3850.0 0.00045296
3870.0 0.00053107
3890.0 0.00056225
3910.0 0.00055792
3930.0 0.00056902
3950.0 0.00059202
3970.0 0.0005297
3990.0 0.00033323
4010.0 0.00025466
4030.0 0.00038608
4050.0 0.00051153
4070.0 0.00046682
4090.0 0.00027557
4110.0 0.00024282
4130.0 0.00037721
4150.0 0.00042913
4170.0 0.00035521
4190.0 0.00029705
4210.0 0.00041293
4230.0 0.00040878
4250.0 0.00038728
4270.0 0.00038735
4290.0 0.0003487
4310.0 0.00040787
4330.0 0.00047591
4350.0 0.00052206
4370.0 0.0005002
4390.0 0.00050394
4410.0 0.00045857
4430.0 0.0003516
4450.0 0.0002687
4470.0 0.00030732
4490.0 0.00031344
4510.0 0.00044403
4530.0 0.00045872
4550.0 0.00045378
4570.0 0.00054298
4590.0 0.0006668
4610.0 0.00086525
4630.0 0.0010977
4650.0 0.0011482
4670.0 0.0011791
4690.0 0.0012129
4710.0 0.0011913
4730.0 0.00099507
4750.0 0.00071668
4770.0 0.00059232
4790.0 0.00049498
4810.0 0.00049469
4830.0 0.00055639
4850.0 0.0005949
4870.0 0.00062707
4890.0 0.00074978
4910.0 0.00071051
4930.0 0.00075867
4950.0 0.00092429
4970.0 0.0010589
4990.0 0.0012066
5010.0 0.0012212
5030.0 0.0010748
5050.0 0.00081519
5070.0 0.00059289
5090.0 0.00050668
5110.0 0.00051864
5130.0 0.00055588
5150.0 0.00052127
5170.0 0.00051209
5190.0 0.0005223
5210.0 0.00053579
5230.0 0.00058493
5250.0 0.00061124
5270.0 0.00062349
5290.0 0.00073789
5310.0 0.00087396
5330.0 0.00093739
5350.0 0.00092007
5370.0 0.00095703
5390.0 0.0010119
5410.0 0.00096293
5430.0 0.00090239
5450.0 0.00093106
5470.0 0.0010687
5490.0 0.0013269
5510.0 0.0015893
5530.0 0.0016615
5550.0 0.0016302
5570.0 0.0015692
5590.0 0.001485
5610.0 0.0014126
5630.0 0.0014303
5650.0 0.0014808
5670.0 0.0014293
5690.0 0.0013212
5710.0 0.001295
5730.0 0.0011666
5750.0 0.00097991
5770.0 0.00088357
5790.0 0.00096998
5810.0 0.0010568
5830.0 0.0011718
5850.0 0.0011789
5870.0 0.0011472
5890.0 0.0011263
5910.0 0.0010415
5930.0 0.0010019
5950.0 0.0010341
5970.0 0.0010645
5990.0 0.00093609
6010.0 0.0007735
6030.0 0.00064536
6050.0 0.00058328
6070.0 0.00058872
6090.0 0.00064856
6110.0 0.00068698
6130.0 0.00066353
6150.0 0.00066319
6170.0 0.00071636
6190.0 0.00080725
6210.0 0.00095098
6230.0 0.0010895
6250.0 0.0010231
6270.0 0.00089274
6290.0 0.00075688
6310.0 0.00061117
6330.0 0.00052678
6350.0 0.0005155
6370.0 0.00055937
6390.0 0.00061849
6410.0 0.00073183
6430.0 0.00090384
6450.0 0.0010884
6470.0 0.0012424
6490.0 0.001401
6510.0 0.0015028
6530.0 0.0014539
6550.0 0.0013946
6570.0 0.0014045
6590.0 0.0014029
6610.0 0.0013609
6630.0 0.0012825
6650.0 0.0011758
6670.0 0.0011517
6690.0 0.0011249
6710.0 0.0010834
6730.0 0.00094411
6750.0 0.00082648
6770.0 0.00083481
6790.0 0.00089081
6810.0 0.00098225
6830.0 0.00099931
6850.0 0.0009286
6870.0 0.00091247
6890.0 0.00089711
6910.0 0.00084625
6930.0 0.00083449
6950.0 0.0008304
6970.0 0.00083503
6990.0 0.00087094
7010.0 0.00093401
7030.0 0.00091905
7050.0 0.00083686
7070.0 0.00077456
7090.0 0.00067218
7110.0 0.00058983
7130.0 0.00060355
7150.0 0.00065002
7170.0 0.0006817
7190.0 0.00067429
7210.0 0.00066131
7230.0 0.00073482
7250.0 0.00081684
7270.0 0.00086363
7290.0 0.00087394
7310.0 0.00085002
7330.0 0.00079047
7350.0 0.00073239
7370.0 0.00068776
7390.0 0.00067484
7410.0 0.00072957
7430.0 0.00084505
7450.0 0.00093692
7470.0 0.0010435
7490.0 0.0012068
7510.0 0.0011764
7530.0 0.00097916
7550.0 0.0008333
7570.0 0.00069438
7590.0 0.00058929
7610.0 0.00057282
7630.0 0.00058642
7650.0 0.00064071
7670.0 0.00073318
7690.0 0.00080676
7710.0 0.00091599
7730.0 0.00095293
7750.0 0.00098635
7770.0 0.0010558
7790.0 0.001082
7810.0 0.0010637
7830.0 0.00099222
7850.0 0.00097825
7870.0 0.00095207
7890.0 0.00089041
7910.0 0.00081899
7930.0 0.00076013
7950.0 0.00064287
7970.0 0.0006145
7990.0 0.00062719
8010.0 0.00073434
8030.0 0.00073772
8050.0 0.00077321
8070.0 0.00075729
8090.0 0.00075887
8110.0 0.00074359
8130.0 0.00070882
8150.0 0.00065825
8170.0 0.00065287
8190.0 0.00066079
8210.0 0.00066822
8230.0 0.0006144
8250.0 0.00057344
8270.0 0.00050547
8290.0 0.00042048
8310.0 0.00034321
8330.0 0.00025231
8350.0 0.00019325
8370.0 0.00018069
8390.0 0.00019156
8410.0 0.00021956
8430.0 0.00027853
8450.0 0.00030766
8470.0 0.0003315
8490.0 0.00037169
8510.0 0.00040124
8530.0 0.00044726
8550.0 0.00052934
8570.0 0.00059754
8590.0 0.00064627
8610.0 0.00073907
8630.0 0.00085417
8650.0 0.00089402
8670.0 0.00091113
8690.0 0.00091712
8710.0 0.00089069
8730.0 0.00085487
8750.0 0.00079603
8770.0 0.00078646
8790.0 0.00076435
8810.0 0.00070638
8830.0 0.00067788
8850.0 0.00059677
8870.0 0.00055335
8890.0 0.00050612
8910.0 0.00056129
8930.0 0.00052435
8950.0 0.0005331
8970.0 0.00054502
8990.0 0.00053872
9010.0 0.00054708
9030.0 0.00052461
9050.0 0.00052298
9070.0 0.00052353
9090.0 0.00052406
9110.0 0.00052488
9130.0 0.0005254
9150.0 0.00052578
9170.0 0.00052523
9190.0 0.00052342
9210.0 0.00052983
9230.0 0.00052891
9250.0 0.00052875
9270.0 0.00052879
9290.0 0.00052898
9310.0 0.00052926
9330.0 0.0005296
9350.0 0.00052999
9370.0 0.0005304
9390.0 0.0005308
9410.0 0.00053123
9430.0 0.00053168
9450.0 0.00053211
9470.0 0.00053256
9490.0 0.00053303
9510.0 0.0005335
9530.0 0.00053396
9550.0 0.00053448
9570.0 0.000535
9590.0 0.00053553
9610.0 0.00053607
9630.0 0.00053666
9650.0 0.00053725
9670.0 0.00053784
9690.0 0.00053847
9710.0 0.00053913
9730.0 0.00053979
9750.0 0.00054047
9770.0 0.00054123
9790.0 0.00054196
9810.0 0.00054271
9830.0 0.0005435
9850.0 0.00054432
9870.0 0.00054513
9890.0 0.00054598
9910.0 0.00054687
9930.0 0.00054776
9950.0 0.00054822
9970.0 0.00054931
9990.0 0.0005504
10010.0 0.0005514
10030.0 0.00055244
10050.0 0.00055328
10070.0 0.00055298
10090.0 0.00055448
10110.0 0.00055596
10130.0 0.00055732
10150.0 0.00055861
10170.0 0.00055982
10190.0 0.00056095
10210.0 0.00056211
10230.0 0.00056327
10250.0 0.00056439
10270.0 0.00056551
10290.0 0.00056668
10310.0 0.00056781
10330.0 0.0005689
10350.0 0.00057005
10370.0 0.0005712
10390.0 0.0005723
10410.0 0.0005734
10430.0 0.00057455
10450.0 0.00057564
10470.0 0.00057671
10490.0 0.0005778
10510.0 0.00057888
10530.0 0.00057989
10550.0 0.0005809
10570.0 0.00058194
10590.0 0.00058292
10610.0 0.00058387
10630.0 0.00058483
10650.0 0.00058577
10670.0 0.00058664
10690.0 0.0005875
10710.0 0.00058836
10730.0 0.00058917
10750.0 0.00058991
10770.0 0.00059069
10790.0 0.00059142
10810.0 0.00059207
10830.0 0.00059269
10850.0 0.00059325
10870.0 0.00059359
10890.0 0.00059363
10910.0 0.00059322
10930.0 0.000592
10950.0 0.00058942
10970.0 0.00058524
10990.0 0.00057932
11010.0 0.00058922
11030.0 0.0005772
11050.0 0.00056337
11070.0 0.00054752
11090.0 0.00052922
11110.0 0.00051109
11130.0 0.00049301
11150.0 0.00047455
11170.0 0.00045671
11190.0 0.00044062
11210.0 0.00042527
11230.0 0.0004109
11250.0 0.00039845
11270.0 0.00038761
11290.0 0.00037776
11310.0 0.00036928
11330.0 0.00036236
11350.0 0.00035611
11370.0 0.0003504
11390.0 0.00034523
11410.0 0.00034026
11430.0 0.00033491
11450.0 0.00032934
11470.0 0.00032351
11490.0 0.00031705
11510.0 0.00030981
11530.0 0.00030235
11550.0 0.00029452
11570.0 0.00028604
11590.0 0.0002774
11610.0 0.00026895
11630.0 0.00026023
11650.0 0.00025146
11670.0 0.00024333
11690.0 0.00023554
11710.0 0.0002279
11730.0 0.00022077
11750.0 0.00021432
11770.0 0.00020804
11790.0 0.00020209
11810.0 0.00019665
11830.0 0.0001915
11850.0 0.00018633
11870.0 0.00018148
11890.0 0.00017688
11910.0 0.0001722
11930.0 0.0001675
11950.0 0.00016296
11970.0 0.00015835
11990.0 0.00015354
12010.0 0.00014882
12030.0 0.00014421
12050.0 0.00013952
12070.0 0.00013485
12090.0 0.00013061
12110.0 0.00012654
12130.0 0.0001227
12150.0 0.00011934
12170.0 0.00011652
12190.0 0.00011411
12210.0 0.00011236
12230.0 0.00011131
12250.0 0.00011093
12270.0 0.0001113
12290.0 0.00011236
12310.0 0.00011401
12330.0 0.00011638
12350.0 0.00011931
12370.0 0.00012257
12390.0 0.00012622
12410.0 0.00013032
12430.0 0.00013428
12450.0 0.00013816
12470.0 0.00014203
12490.0 0.00014565
12510.0 0.00014876
12530.0 0.0001516
12550.0 0.00015404
12570.0 0.00015591
12590.0 0.00015727
12610.0 0.00015821
12630.0 0.00015864
12650.0 0.00015858
12670.0 0.00015812
12690.0 0.00015728
12710.0 0.00015611
12730.0 0.00015466
12750.0 0.0001529
12770.0 0.00015093
12790.0 0.00014883
12810.0 0.00014653
12830.0 0.00014404
12850.0 0.0001415
12870.0 0.00013885
12890.0 0.00013599
12910.0 0.00013301
12930.0 0.00012997
12950.0 0.00012668
12970.0 0.00012315
12990.0 0.00011963
13010.0 0.00011598
13030.0 0.0001121
13050.0 0.00010822
13070.0 0.00010446
13090.0 0.0001006
13110.0 9.6815e-05
13130.0 9.3316e-05
13150.0 9.0034e-05
13170.0 8.6898e-05
13190.0 8.4209e-05
13210.0 8.1953e-05
13230.0 8.0021e-05
13250.0 7.8492e-05
13270.0 7.7404e-05
13290.0 7.6668e-05
13310.0 7.627e-05
13330.0 7.6189e-05
13350.0 7.6345e-05
13370.0 7.6703e-05
13390.0 7.7206e-05
13410.0 7.7735e-05
13430.0 7.8287e-05
13450.0 7.8821e-05
13470.0 7.9262e-05
13490.0 7.959e-05
13510.0 7.9828e-05
13530.0 7.9932e-05
13550.0 7.9915e-05
13570.0 7.9805e-05
13590.0 7.9618e-05
13610.0 7.938e-05
13630.0 7.9119e-05
13650.0 7.8851e-05
13670.0 7.8598e-05
13690.0 7.8374e-05
13710.0 7.8181e-05
13730.0 7.8024e-05
13750.0 7.7894e-05
13770.0 7.778e-05
13790.0 7.7669e-05
13810.0 7.7542e-05
13830.0 7.7381e-05
13850.0 7.717e-05
13870.0 7.6887e-05
13890.0 7.653e-05
13910.0 7.6095e-05
13930.0 7.556e-05
13950.0 7.4946e-05
13970.0 7.4295e-05
13990.0 7.3584e-05
14010.0 7.2838e-05
14030.0 7.2111e-05
14050.0 7.1408e-05
14070.0 7.0714e-05
14090.0 7.0094e-05
14110.0 6.9553e-05
14130.0 6.9075e-05
14150.0 6.8667e-05
14170.0 6.8347e-05
14190.0 6.8095e-05
14210.0 6.7908e-05
14230.0 6.7793e-05
14250.0 6.7742e-05
14270.0 6.7764e-05
14290.0 6.7869e-05
14310.0 6.8041e-05
14330.0 6.8293e-05
14350.0 6.8642e-05
14370.0 6.9066e-05
14390.0 6.9546e-05
14410.0 7.0122e-05
14430.0 7.0768e-05
14450.0 7.1443e-05
14470.0 7.2167e-05
14490.0 7.2978e-05
14510.0 7.3802e-05
14530.0 7.4648e-05
14550.0 7.5584e-05
14570.0 7.6605e-05
14590.0 7.7671e-05
14610.0 7.887e-05
14630.0 8.0264e-05
14650.0 8.1772e-05
14670.0 8.3421e-05
14690.0 8.5315e-05
14710.0 8.7435e-05
14730.0 8.9599e-05
14750.0 9.1968e-05
14770.0 9.454e-05
14790.0 9.7142e-05
14810.0 9.9731e-05
14830.0 0.0001025
14850.0 0.00010517
14870.0 0.00010764
14890.0 0.00011
14910.0 0.0001122
14930.0 0.00011406
14950.0 0.0001156
14970.0 0.00011687
14990.0 0.0001178
15010.0 0.00011838
15030.0 0.0001187
15050.0 0.0001188
15070.0 0.0001187
15090.0 0.0001185
15110.0 0.00011822
15130.0 0.00011789
15150.0 0.00011756
15170.0 0.0001172
15190.0 0.00011684
15210.0 0.00011648
15230.0 0.00011613
15250.0 0.00011577
15270.0 0.00011541
15290.0 0.00011507
15310.0 0.00011473
15330.0 0.00011437
15350.0 0.00011404
15370.0 0.0001137
15390.0 0.00011335
15410.0 0.00011301
15430.0 0.00011268
15450.0 0.00011235
15470.0 0.000112
15490.0 0.00011168
15510.0 0.00011136
15530.0 0.00011102
15550.0 0.00011069
15570.0 0.00011038
15590.0 0.00011005
15610.0 0.00010971
15630.0 0.0001094
15650.0 0.00010908
15670.0 0.00010876
15690.0 0.00010844
15710.0 0.00010813
15730.0 0.00010781
15750.0 0.00010749
15770.0 0.00010718
15790.0 0.00010687
15810.0 0.00010654
15830.0 0.00010623
15850.0 0.00010592
15870.0 0.00010561
15890.0 0.00010529
15910.0 0.00010499
15930.0 0.00010468
15950.0 0.00010436
15970.0 0.00010405
15990.0 0.00010375
16010.0 0.00010344
16030.0 0.00010312
16050.0 0.00010282
16070.0 0.00010251
16090.0 0.0001022
16110.0 0.00010189
16130.0 0.00010159
16150.0 0.00010127
16170.0 0.00010096
16190.0 0.00010065
16210.0 0.00010034
16230.0 0.00010003
16250.0 9.972e-05
16270.0 9.9418e-05
16290.0 9.9101e-05
16310.0 9.8787e-05
16330.0 9.8483e-05
16350.0 9.8171e-05
16370.0 9.7843e-05
16390.0 9.7536e-05
16410.0 9.7228e-05
16430.0 9.6908e-05
16450.0 9.6591e-05
16470.0 9.6286e-05
16490.0 9.5967e-05
16510.0 9.5642e-05
16530.0 9.5328e-05
16550.0 9.5014e-05
16570.0 9.4686e-05
16590.0 9.4361e-05
16610.0 9.4051e-05
16630.0 9.3728e-05
16650.0 9.3399e-05
16670.0 9.3082e-05
16690.0 9.2764e-05
16710.0 9.2426e-05
16730.0 9.2098e-05
16750.0 9.1778e-05
16770.0 9.1447e-05
16790.0 9.1109e-05
16810.0 9.0787e-05
16830.0 9.0461e-05
16850.0 9.0122e-05
16870.0 8.9789e-05
16890.0 8.9464e-05
16910.0 8.9122e-05
16930.0 8.8775e-05
16950.0 8.8445e-05
16970.0 8.8109e-05
16990.0 8.7762e-05
17010.0 8.7423e-05
17030.0 8.7092e-05
17050.0 8.6743e-05
17070.0 8.6393e-05
17090.0 8.6055e-05
17110.0 8.5711e-05
17130.0 8.5351e-05
17150.0 8.5004e-05
17170.0 8.4663e-05
17190.0 8.4309e-05
17210.0 8.3953e-05
17230.0 8.361e-05
17250.0 8.3257e-05
17270.0 8.2892e-05
17290.0 8.2538e-05
17310.0 8.2187e-05
17330.0 8.1823e-05
17350.0 8.1456e-05
17370.0 8.1108e-05
17390.0 8.0748e-05
17410.0 8.0379e-05
17430.0 8.002e-05
17450.0 7.9665e-05
17470.0 7.9288e-05
17490.0 7.8917e-05
17510.0 7.8558e-05
17530.0 7.8191e-05
17550.0 7.7813e-05
17570.0 7.7449e-05
17590.0 7.7087e-05
17610.0 7.6708e-05
17630.0 7.6334e-05
17650.0 7.5969e-05
17670.0 7.5594e-05
17690.0 7.5204e-05
17710.0 7.4836e-05
17730.0 7.4466e-05
17750.0 7.4083e-05
17770.0 7.3704e-05
17790.0 7.3337e-05
17810.0 7.2953e-05
17830.0 7.2566e-05
17850.0 7.219e-05
17870.0 7.1814e-05
17890.0 7.1422e-05
17910.0 7.1036e-05
17930.0 7.0665e-05
17950.0 7.028e-05
17970.0 6.989e-05
17990.0 6.9513e-05
18010.0 6.9134e-05
18030.0 6.8735e-05
18050.0 6.8349e-05
18070.0 6.797e-05
18090.0 6.7581e-05
18110.0 6.7186e-05
18130.0 6.6807e-05
18150.0 6.6424e-05
18170.0 6.6029e-05
18190.0 6.5641e-05
18210.0 6.5262e-05
18230.0 6.4866e-05
18250.0 6.4467e-05
18270.0 6.4086e-05
18290.0 6.37e-05
18310.0 6.3303e-05
18330.0 6.2916e-05
18350.0 6.2536e-05
18370.0 6.214e-05
18390.0 6.1745e-05
18410.0 6.1362e-05
18430.0 6.0973e-05
18450.0 6.0571e-05
18470.0 6.0183e-05
18490.0 5.9802e-05
18510.0 5.9408e-05
18530.0 5.9015e-05
18550.0 5.8635e-05
18570.0 5.8245e-05
18590.0 5.7845e-05
18610.0 5.7459e-05
18630.0 5.7076e-05
18650.0 5.6681e-05
18670.0 5.6285e-05
18690.0 5.5908e-05
18710.0 5.5521e-05
18730.0 5.5126e-05
18750.0 5.4743e-05
18770.0 5.4364e-05
18790.0 5.3964e-05
18810.0 5.3574e-05
18830.0 5.3196e-05
18850.0 5.281e-05
18870.0 5.2417e-05
18890.0 5.2038e-05
18910.0 5.166e-05
18930.0 5.1269e-05
18950.0 5.0884e-05
18970.0 5.0508e-05
18990.0 5.0124e-05
19010.0 4.9727e-05
19030.0 4.9354e-05
19050.0 4.8978e-05
19070.0 4.8591e-05
19090.0 4.8211e-05
19110.0 4.7843e-05
19130.0 4.7458e-05
19150.0 4.7073e-05
19170.0 4.6701e-05
19190.0 4.6327e-05
19210.0 4.5942e-05
19230.0 4.5564e-05
19250.0 4.5199e-05
19270.0 4.4823e-05
19290.0 4.4444e-05
19310.0 4.4078e-05
19330.0 4.3711e-05
19350.0 4.3326e-05
19370.0 4.2956e-05
19390.0 4.2593e-05
19410.0 4.222e-05
19430.0 4.1845e-05
19450.0 4.1486e-05
19470.0 4.1122e-05
19490.0 4.0749e-05
19510.0 4.0385e-05
19530.0 4.0028e-05
19550.0 3.9657e-05
19570.0 3.9285e-05
19590.0 3.8931e-05
19610.0 3.8572e-05
19630.0 3.8205e-05
19650.0 3.7848e-05
19670.0 3.7498e-05
19690.0 3.7133e-05
19710.0 3.6771e-05
19730.0 3.6421e-05
19750.0 3.6067e-05
19770.0 3.57e-05
19790.0 3.535e-05
19810.0 3.5004e-05
19830.0 3.4646e-05
19850.0 3.4288e-05
19870.0 3.3939e-05
19890.0 3.3569e-05
19910.0 3.3173e-05
19930.0 3.2761e-05
19950.0 3.231e-05
19970.0 3.1784e-05
19990.0 3.1185e-05
20010.0 3.054e-05
20030.0 2.9805e-05
20050.0 2.8996e-05
20070.0 2.8175e-05
20090.0 2.7351e-05
20110.0 2.6491e-05
20130.0 2.5693e-05
20150.0 2.4969e-05
20170.0 2.4285e-05
20190.0 2.366e-05
20210.0 2.3126e-05
20230.0 2.2658e-05
20250.0 2.2239e-05
20270.0 2.1896e-05
20290.0 2.1619e-05
20310.0 2.1394e-05
20330.0 2.122e-05
20350.0 2.1108e-05
20370.0 2.1042e-05
20390.0 2.1023e-05
20410.0 2.105e-05
20430.0 2.1118e-05
20450.0 2.1237e-05
20470.0 2.1402e-05
20490.0 2.1605e-05
20510.0 2.1853e-05
20530.0 2.2155e-05
20550.0 2.2493e-05
20570.0 2.2854e-05
20590.0 2.3264e-05
20610.0 2.3705e-05
20630.0 2.4151e-05
20650.0 2.4618e-05
20670.0 2.5116e-05
20690.0 2.5591e-05
20710.0 2.6049e-05
20730.0 2.6508e-05
20750.0 2.695e-05
20770.0 2.7348e-05
20790.0 2.7732e-05
20810.0 2.8104e-05
20830.0 2.8445e-05
20850.0 2.8766e-05
20870.0 2.9093e-05
20890.0 2.9416e-05
20910.0 2.9724e-05
20930.0 3.0044e-05
20950.0 3.0382e-05
20970.0 3.0718e-05
20990.0 3.1054e-05
21010.0 3.1412e-05
21030.0 3.1761e-05
21050.0 3.2088e-05
21070.0 3.2404e-05
21090.0 3.2703e-05
21110.0 3.2952e-05
21130.0 3.3161e-05
21150.0 3.3332e-05
21170.0 3.3451e-05
21190.0 3.3517e-05
21210.0 3.3536e-05
21230.0 3.3503e-05
21250.0 3.3421e-05
21270.0 3.3295e-05
21290.0 3.3123e-05
21310.0 3.2911e-05
21330.0 3.2676e-05
21350.0 3.2403e-05
21370.0 3.2099e-05
21390.0 3.1784e-05
21410.0 3.1454e-05
21430.0 3.1092e-05
21450.0 3.0734e-05
21470.0 3.0384e-05
21490.0 3.0025e-05
21510.0 2.9667e-05
21530.0 2.9334e-05
21550.0 2.9013e-05
21570.0 2.8699e-05
21590.0 2.8417e-05
21610.0 2.8167e-05
21630.0 2.7941e-05
21650.0 2.7745e-05
21670.0 2.7599e-05
21690.0 2.7489e-05
21710.0 2.7419e-05
21730.0 2.7394e-05
21750.0 2.7412e-05
21770.0 2.7477e-05
21790.0 2.759e-05
21810.0 2.7741e-05
21830.0 2.7936e-05
21850.0 2.8181e-05
21870.0 2.8459e-05
21890.0 2.8761e-05
21910.0 2.911e-05
21930.0 2.9489e-05
21950.0 2.9878e-05
21970.0 3.0294e-05
21990.0 3.075e-05
22010.0 3.1195e-05
22030.0 3.1642e-05
22050.0 3.2107e-05
22070.0 3.2569e-05
22090.0 3.3003e-05
22110.0 3.3434e-05
22130.0 3.3859e-05
22150.0 3.4245e-05
22170.0 3.4598e-05
22190.0 3.4932e-05
22210.0 3.5221e-05
22230.0 3.5451e-05
22250.0 3.5639e-05
22270.0 3.5774e-05
22290.0 3.5846e-05
22310.0 3.586e-05
22330.0 3.5809e-05
22350.0 3.569e-05
22370.0 3.551e-05
22390.0 3.5261e-05
22410.0 3.4934e-05
22430.0 3.456e-05
22450.0 3.4129e-05
22470.0 3.3626e-05
22490.0 3.3074e-05
22510.0 3.2496e-05
22530.0 3.1851e-05
22550.0 3.1156e-05
22570.0 3.0461e-05
22590.0 2.9742e-05
22610.0 2.898e-05
22630.0 2.8216e-05
22650.0 2.7479e-05
22670.0 2.6714e-05
22690.0 2.5947e-05
