#lamb flux
1010.0 2.2153e-05
1030.0 2.3507e-05
1050.0 2.5065e-05
1070.0 2.6818e-05
1090.0 2.881e-05
1110.0 3.0853e-05
1130.0 3.291e-05
1150.0 3.5065e-05
1170.0 3.7288e-05
1190.0 3.9397e-05
1210.0 4.1535e-05
1230.0 4.3744e-05
1250.0 4.591e-05
1270.0 4.8014e-05
1290.0 5.0237e-05
1310.0 5.246e-05
1330.0 5.4592e-05
1350.0 5.675e-05
1370.0 5.8978e-05
1390.0 6.1151e-05
1410.0 6.3261e-05
1430.0 6.5468e-05
1450.0 6.7675e-05
1470.0 6.981e-05
1490.0 7.1969e-05
1510.0 7.4251e-05
1530.0 7.6414e-05
1550.0 7.855e-05
1570.0 8.076e-05
1590.0 8.2974e-05
1610.0 8.5091e-05
1630.0 8.7275e-05
1650.0 8.9518e-05
1670.0 9.1689e-05
1690.0 9.3835e-05
1710.0 9.6065e-05
1730.0 9.8309e-05
1750.0 0.00010042
1770.0 0.0001026
1790.0 0.00010482
1810.0 0.00010698
1830.0 0.0001091
1850.0 0.00011136
1870.0 0.00011356
1890.0 0.00011569
1910.0 0.00011787
1930.0 0.00012011
1950.0 0.00012225
1970.0 0.00012438
1990.0 0.00012659
2010.0 0.00012877
2030.0 0.00013089
2050.0 0.00013307
2070.0 0.00013533
2090.0 0.00013746
2110.0 0.00013961
2130.0 0.00014183
2150.0 0.00014402
2170.0 0.00014613
2190.0 0.00014834
2210.0 0.00015058
2230.0 0.00015275
2250.0 0.00015492
2270.0 0.00015721
2290.0 0.00015945
2310.0 0.00016162
2330.0 0.00016388
2350.0 0.00016618
2370.0 0.0001684
2390.0 0.00017067
2410.0 0.00017306
2430.0 0.00017538
2450.0 0.00017762
2470.0 0.00017982
2490.0 0.00018187
2510.0 0.00018364
2530.0 0.00018537
2550.0 0.00018753
2570.0 0.00019083
2590.0 0.00019626
2610.0 0.0002059
2630.0 0.00022097
2650.0 0.00024131
2670.0 0.00026765
2690.0 0.00029974
2710.0 0.00033388
2730.0 0.00036794
2750.0 0.00040255
2770.0 0.00043482
2790.0 0.00046362
2810.0 0.00049074
2830.0 0.00051771
2850.0 0.00054259
2870.0 0.00056719
2890.0 0.00059287
2910.0 0.00061886
2930.0 0.00064409
2950.0 0.00067046
2970.0 0.0006976
2990.0 0.00072401
3010.0 0.0015542
3030.0 0.001611
3050.0 0.0016684
3070.0 0.0017234
3090.0 0.001781
3110.0 0.0018409
3130.0 0.0019001
3150.0 0.0019588
3170.0 0.0020188
3190.0 0.0020707
3210.0 0.002111
3230.0 0.0021426
3250.0 0.0018882
3270.0 0.0016357
3290.0 0.0012492
3310.0 0.0013998
3330.0 0.0015076
3350.0 0.0016101
3370.0 0.0017119
3390.0 0.0018137
3410.0 0.0019155
3430.0 0.0020172
3450.0 0.0021191
3470.0 0.0022206
3490.0 0.0023065
3510.0 0.0023354
3530.0 0.0024438
3550.0 0.0029858
3570.0 0.0037849
3590.0 0.0042828
3610.0 0.0048749
3630.0 0.004541
3650.0 0.0041538
3670.0 0.0040034
3690.0 0.0047585
3710.0 0.0060386
3730.0 0.0064914
3750.0 0.006739
3770.0 0.0068057
3790.0 0.0066929
3810.0 0.0060747
3830.0 0.0047045
3850.0 0.0037573
3870.0 0.00366
3890.0 0.0049951
3910.0 0.0067917
3930.0 0.0079632
3950.0 0.0084026
3970.0 0.0083594
3990.0 0.0095394
4010.0 0.010664
4030.0 0.0099748
4050.0 0.008726
4070.0 0.0073822
4090.0 0.0073383
4110.0 0.0083138
4130.0 0.0084377
4150.0 0.0085058
4170.0 0.0080142
4190.0 0.0076414
4210.0 0.0077357
4230.0 0.0088912
4250.0 0.0089781
4270.0 0.0089191
4290.0 0.0088345
4310.0 0.0088417
4330.0 0.0097691
4350.0 0.011251
4370.0 0.011433
4390.0 0.0098943
4410.0 0.0081731
4430.0 0.0070072
4450.0 0.0060291
4470.0 0.0058415
4490.0 0.0069838
4510.0 0.0078353
4530.0 0.0085898
4550.0 0.009233
4570.0 0.010908
4590.0 0.015554
4610.0 0.020835
4630.0 0.021581
4650.0 0.020487
4670.0 0.021774
4690.0 0.023886
4710.0 0.02112
4730.0 0.015552
4750.0 0.011835
4770.0 0.010775
4790.0 0.010816
4810.0 0.010139
4830.0 0.011062
4850.0 0.014044
4870.0 0.017444
4890.0 0.015591
4910.0 0.013704
4930.0 0.015204
4950.0 0.019974
4970.0 0.025916
4990.0 0.02671
5010.0 0.023012
5030.0 0.017267
5050.0 0.012381
5070.0 0.010411
5090.0 0.009875
5110.0 0.01002
5130.0 0.010425
5150.0 0.010287
5170.0 0.010484
5190.0 0.010151
5210.0 0.010467
5230.0 0.011152
5250.0 0.012241
5270.0 0.01502
5290.0 0.017073
5310.0 0.017084
5330.0 0.017707
5350.0 0.01989
5370.0 0.021053
5390.0 0.019438
5410.0 0.016563
5430.0 0.015675
5450.0 0.018002
5470.0 0.023106
5490.0 0.02853
5510.0 0.031209
5530.0 0.031687
5550.0 0.030033
5570.0 0.027807
5590.0 0.026713
5610.0 0.026867
5630.0 0.027319
5650.0 0.027187
5670.0 0.026598
5690.0 0.025675
5710.0 0.022876
5730.0 0.018995
5750.0 0.015819
5770.0 0.015787
5790.0 0.017206
5810.0 0.018354
5830.0 0.018795
5850.0 0.018612
5870.0 0.017048
5890.0 0.014784
5910.0 0.014328
5930.0 0.015387
5950.0 0.015735
5970.0 0.014269
5990.0 0.012153
6010.0 0.0099689
6030.0 0.0083719
6050.0 0.0082444
6070.0 0.0093713
6090.0 0.0098664
6110.0 0.0090217
6130.0 0.0083501
6150.0 0.0088705
6170.0 0.010621
6190.0 0.012671
6210.0 0.013778
6230.0 0.013302
6250.0 0.012192
6270.0 0.010551
6290.0 0.0087466
6310.0 0.0072395
6330.0 0.0065393
6350.0 0.0068109
6370.0 0.0073837
6390.0 0.0079919
6410.0 0.0090933
6430.0 0.011196
6450.0 0.0141
6470.0 0.01605
6490.0 0.016091
6510.0 0.015711
6530.0 0.016009
6550.0 0.016366
6570.0 0.016511
6590.0 0.016512
6610.0 0.016063
6630.0 0.016086
6650.0 0.01614
6670.0 0.015519
6690.0 0.013916
6710.0 0.011764
6730.0 0.011263
6750.0 0.012105
6770.0 0.013162
6790.0 0.013568
6810.0 0.013415
6830.0 0.013232
6850.0 0.012943
6870.0 0.012204
6890.0 0.0115
6910.0 0.010991
6930.0 0.010593
6950.0 0.011245
6970.0 0.012239
6990.0 0.012909
7010.0 0.013059
7030.0 0.012342
7050.0 0.010714
7070.0 0.0086864
7090.0 0.00738
7110.0 0.0071188
7130.0 0.007509
7150.0 0.0076019
7170.0 0.0069922
7190.0 0.0068554
7210.0 0.0075526
7230.0 0.0086735
7250.0 0.0099134
7270.0 0.010439
7290.0 0.0098293
7310.0 0.0087215
7330.0 0.0079817
7350.0 0.0078127
7370.0 0.0080171
7390.0 0.0083784
7410.0 0.0089774
7430.0 0.010204
7450.0 0.011863
7470.0 0.013544
7490.0 0.014327
7510.0 0.013924
7530.0 0.012117
7550.0 0.0099248
7570.0 0.0082976
7590.0 0.0073514
7610.0 0.0076018
7630.0 0.0088266
7650.0 0.010199
7670.0 0.011595
7690.0 0.012799
7710.0 0.013696
7730.0 0.014466
7750.0 0.015196
7770.0 0.015855
7790.0 0.015983
7810.0 0.016222
7830.0 0.016802
7850.0 0.016899
7870.0 0.016515
7890.0 0.015399
7910.0 0.014522
7930.0 0.013896
7950.0 0.013937
7970.0 0.013897
7990.0 0.014084
8010.0 0.014085
8030.0 0.014192
8050.0 0.014623
8070.0 0.014462
8090.0 0.014515
8110.0 0.014004
8130.0 0.013969
8150.0 0.013632
8170.0 0.013297
8190.0 0.01316
8210.0 0.013301
8230.0 0.012527
8250.0 0.011785
8270.0 0.010331
8290.0 0.0083609
8310.0 0.0065078
8330.0 0.0050164
8350.0 0.0044425
8370.0 0.0050184
8390.0 0.0058197
8410.0 0.0064502
8430.0 0.0071856
8450.0 0.0075987
8470.0 0.0079841
8490.0 0.0089065
8510.0 0.0099585
8530.0 0.011609
8550.0 0.013658
8570.0 0.01552
8590.0 0.017032
8610.0 0.018334
8630.0 0.019286
8650.0 0.019487
8670.0 0.01959
8690.0 0.020298
8710.0 0.020739
8730.0 0.021215
8750.0 0.020841
8770.0 0.020965
8790.0 0.020729
8810.0 0.019353
8830.0 0.018882
8850.0 0.017858
8870.0 0.017101
8890.0 0.016375
8910.0 0.016832
8930.0 0.015876
8950.0 0.015325
8970.0 0.015137
8990.0 0.014821
9010.0 0.014573
9030.0 0.014188
9050.0 0.014102
9070.0 0.014063
9090.0 0.014025
9110.0 0.013989
9130.0 0.013949
9150.0 0.013908
9170.0 0.013849
9190.0 0.013769
9210.0 0.013837
9230.0 0.013766
9250.0 0.013708
9270.0 0.013654
9290.0 0.013603
9310.0 0.013552
9330.0 0.013502
9350.0 0.013453
9370.0 0.013403
9390.0 0.013353
9410.0 0.013302
9430.0 0.01325
9450.0 0.013193
9470.0 0.013136
9490.0 0.013089
9510.0 0.013038
9530.0 0.012986
9550.0 0.012933
9570.0 0.01288
9590.0 0.012826
9610.0 0.012772
9630.0 0.012717
9650.0 0.012662
9670.0 0.012607
9690.0 0.012552
9710.0 0.012497
9730.0 0.012441
9750.0 0.012386
9770.0 0.01233
9790.0 0.012275
9810.0 0.012219
9830.0 0.012164
9850.0 0.012108
9870.0 0.012053
9890.0 0.011997
9910.0 0.011942
9930.0 0.011885
9950.0 0.011755
9970.0 0.011722
9990.0 0.011684
10010.0 0.011645
10030.0 0.011599
10050.0 0.011548
10070.0 0.011493
10090.0 0.011443
10110.0 0.011389
10130.0 0.011337
10150.0 0.011285
10170.0 0.01123
10190.0 0.011172
10210.0 0.011119
10230.0 0.011066
10250.0 0.011011
10270.0 0.010956
10290.0 0.010905
10310.0 0.01085
10330.0 0.010794
10350.0 0.010741
10370.0 0.010689
10390.0 0.010633
10410.0 0.010579
10430.0 0.010527
10450.0 0.010473
10470.0 0.010418
10490.0 0.010365
10510.0 0.010313
10530.0 0.010256
10550.0 0.010201
10570.0 0.010149
10590.0 0.010095
10610.0 0.010039
10630.0 0.009986
10650.0 0.0099328
10670.0 0.0098758
10690.0 0.0098206
10710.0 0.0097673
10730.0 0.0097114
10750.0 0.0096528
10770.0 0.0095992
10790.0 0.0095445
10810.0 0.0094867
10830.0 0.0094302
10850.0 0.0093759
10870.0 0.0093157
10890.0 0.009254
10910.0 0.009193
10930.0 0.0091269
10950.0 0.0090509
10970.0 0.0089686
10990.0 0.0088806
11010.0 0.0080148
11030.0 0.0079086
11050.0 0.0078057
11070.0 0.0077006
11090.0 0.0075873
11110.0 0.0074825
11130.0 0.0073807
11150.0 0.0072754
11170.0 0.0071707
11190.0 0.0070732
11210.0 0.0069729
11230.0 0.0068694
11250.0 0.0067709
11270.0 0.0066755
11290.0 0.006576
11310.0 0.0064785
11330.0 0.0063908
11350.0 0.0063029
11370.0 0.0062156
11390.0 0.0061354
11410.0 0.0060598
11430.0 0.0059808
11450.0 0.0059059
11470.0 0.0058354
11490.0 0.0057628
11510.0 0.0056859
11530.0 0.005612
11550.0 0.0055362
11570.0 0.0054527
11590.0 0.0053661
11610.0 0.0052792
11630.0 0.0051834
11650.0 0.00508
11670.0 0.0049786
11690.0 0.0048744
11710.0 0.0047633
11730.0 0.0046525
11750.0 0.0045472
11770.0 0.004438
11790.0 0.0043294
11810.0 0.0042283
11830.0 0.0041313
11850.0 0.0040329
11870.0 0.0039434
11890.0 0.0038627
11910.0 0.003784
11930.0 0.0037094
11950.0 0.0036434
11970.0 0.003581
11990.0 0.0035195
12010.0 0.003464
12030.0 0.0034136
12050.0 0.0033643
12070.0 0.0033168
12090.0 0.0032762
12110.0 0.0032376
12130.0 0.0032007
12150.0 0.0031683
12170.0 0.0031409
12190.0 0.0031151
12210.0 0.0030947
12230.0 0.0030808
12250.0 0.0030724
12270.0 0.0030701
12290.0 0.0030757
12310.0 0.003089
12330.0 0.0031104
12350.0 0.0031405
12370.0 0.0031782
12390.0 0.0032241
12410.0 0.0032798
12430.0 0.0033403
12450.0 0.0034056
12470.0 0.003477
12490.0 0.0035515
12510.0 0.0036249
12530.0 0.0037
12550.0 0.0037753
12570.0 0.0038458
12590.0 0.0039118
12610.0 0.0039748
12630.0 0.0040315
12650.0 0.0040795
12670.0 0.0041215
12690.0 0.0041565
12710.0 0.0041834
12730.0 0.0042031
12750.0 0.0042155
12770.0 0.0042206
12790.0 0.0042194
12810.0 0.0042117
12830.0 0.0041973
12850.0 0.0041791
12870.0 0.0041566
12890.0 0.0041287
12910.0 0.0040978
12930.0 0.0040654
12950.0 0.0040286
12970.0 0.0039884
12990.0 0.0039487
13010.0 0.003907
13030.0 0.0038618
13050.0 0.0038157
13070.0 0.0037702
13090.0 0.0037211
13110.0 0.0036704
13130.0 0.0036209
13150.0 0.0035713
13170.0 0.0035193
13190.0 0.0034708
13210.0 0.0034265
13230.0 0.0033839
13250.0 0.0033458
13270.0 0.0033149
13290.0 0.0032898
13310.0 0.0032709
13330.0 0.0032604
13350.0 0.0032572
13370.0 0.0032608
13390.0 0.0032707
13410.0 0.0032847
13430.0 0.0033017
13450.0 0.00332
13470.0 0.0033369
13490.0 0.0033506
13510.0 0.0033599
13530.0 0.0033622
13550.0 0.0033571
13570.0 0.0033439
13590.0 0.0033214
13610.0 0.0032916
13630.0 0.0032558
13650.0 0.0032121
13670.0 0.0031638
13690.0 0.0031139
13710.0 0.0030613
13730.0 0.0030056
13750.0 0.0029538
13770.0 0.0029042
13790.0 0.0028555
13810.0 0.0028103
13830.0 0.0027703
13850.0 0.0027324
13870.0 0.0026975
13890.0 0.0026671
13910.0 0.0026399
13930.0 0.0026147
13950.0 0.0025923
13970.0 0.0025731
13990.0 0.0025554
14010.0 0.0025393
14030.0 0.0025252
14050.0 0.0025124
14070.0 0.0025003
14090.0 0.0024894
14110.0 0.0024795
14130.0 0.00247
14150.0 0.0024608
14170.0 0.0024521
14190.0 0.0024436
14210.0 0.0024351
14230.0 0.0024269
14250.0 0.0024191
14270.0 0.0024115
14290.0 0.0024044
14310.0 0.0023981
14330.0 0.0023927
14350.0 0.002388
14370.0 0.0023843
14390.0 0.0023813
14410.0 0.002379
14430.0 0.0023772
14450.0 0.0023755
14470.0 0.0023739
14490.0 0.0023722
14510.0 0.0023699
14530.0 0.0023671
14550.0 0.0023638
14570.0 0.0023602
14590.0 0.0023563
14610.0 0.0023526
14630.0 0.0023495
14650.0 0.0023473
14670.0 0.0023464
14690.0 0.0023476
14710.0 0.0023515
14730.0 0.0023575
14750.0 0.0023669
14770.0 0.0023802
14790.0 0.0023969
14810.0 0.0024167
14830.0 0.0024425
14850.0 0.0024721
14870.0 0.0025041
14890.0 0.0025398
14910.0 0.0025789
14930.0 0.0026168
14950.0 0.0026523
14970.0 0.0026861
14990.0 0.0027136
15010.0 0.0027332
15030.0 0.002746
15050.0 0.0027522
15070.0 0.0027516
15090.0 0.0027468
15110.0 0.0027391
15130.0 0.0027294
15150.0 0.0027187
15170.0 0.0027074
15190.0 0.0026958
15210.0 0.0026841
15230.0 0.0026724
15250.0 0.0026606
15270.0 0.0026488
15290.0 0.002637
15310.0 0.0026252
15330.0 0.0026134
15350.0 0.0026016
15370.0 0.0025898
15390.0 0.0025779
15410.0 0.0025661
15430.0 0.0025543
15450.0 0.0025425
15470.0 0.0025306
15490.0 0.0025189
15510.0 0.0025071
15530.0 0.0024953
15550.0 0.0024835
15570.0 0.0024718
15590.0 0.0024601
15610.0 0.0024483
15630.0 0.0024366
15650.0 0.002425
15670.0 0.0024133
15690.0 0.0024017
15710.0 0.0023902
15730.0 0.0023786
15750.0 0.002367
15770.0 0.0023555
15790.0 0.0023441
15810.0 0.0023326
15830.0 0.0023212
15850.0 0.0023099
15870.0 0.0022985
15890.0 0.0022872
15910.0 0.002276
15930.0 0.0022648
15950.0 0.0022535
15970.0 0.0022424
15990.0 0.0022314
16010.0 0.0022203
16030.0 0.0022092
16050.0 0.0021984
16070.0 0.0021875
16090.0 0.0021766
16110.0 0.0021658
16130.0 0.0021551
16150.0 0.0021443
16170.0 0.0021336
16190.0 0.002123
16210.0 0.0021125
16230.0 0.0021019
16250.0 0.0020915
16270.0 0.0020811
16290.0 0.0020708
16310.0 0.0020605
16330.0 0.0020503
16350.0 0.0020401
16370.0 0.0020299
16390.0 0.0020198
16410.0 0.0020099
16430.0 0.0019999
16450.0 0.00199
16470.0 0.0019802
16490.0 0.0019704
16510.0 0.0019606
16530.0 0.001951
16550.0 0.0019414
16570.0 0.0019318
16590.0 0.0019223
16610.0 0.001913
16630.0 0.0019036
16650.0 0.0018943
16670.0 0.0018851
16690.0 0.0018759
16710.0 0.0018667
16730.0 0.0018576
16750.0 0.0018487
16770.0 0.0018397
16790.0 0.0018308
16810.0 0.001822
16830.0 0.0018133
16850.0 0.0018046
16870.0 0.0017959
16890.0 0.0017874
16910.0 0.0017788
16930.0 0.0017703
16950.0 0.001762
16970.0 0.0017537
16990.0 0.0017454
17010.0 0.0017371
17030.0 0.001729
17050.0 0.0017209
17070.0 0.0017129
17090.0 0.0017049
17110.0 0.001697
17130.0 0.0016891
17150.0 0.0016813
17170.0 0.0016736
17190.0 0.0016659
17210.0 0.0016583
17230.0 0.0016508
17250.0 0.0016433
17270.0 0.0016358
17290.0 0.0016284
17310.0 0.0016211
17330.0 0.0016138
17350.0 0.0016066
17370.0 0.0015995
17390.0 0.0015924
17410.0 0.0015853
17430.0 0.0015784
17450.0 0.0015715
17470.0 0.0015645
17490.0 0.0015577
17510.0 0.001551
17530.0 0.0015443
17550.0 0.0015376
17570.0 0.001531
17590.0 0.0015245
17610.0 0.001518
17630.0 0.0015115
17650.0 0.0015052
17670.0 0.0014988
17690.0 0.0014925
17710.0 0.0014863
17730.0 0.0014802
17750.0 0.001474
17770.0 0.0014679
17790.0 0.001462
17810.0 0.001456
17830.0 0.00145
17850.0 0.0014442
17870.0 0.0014384
17890.0 0.0014326
17910.0 0.0014268
17930.0 0.0014212
17950.0 0.0014156
17970.0 0.00141
17990.0 0.0014045
18010.0 0.001399
18030.0 0.0013935
18050.0 0.0013881
18070.0 0.0013828
18090.0 0.0013775
18110.0 0.0013722
18130.0 0.0013671
18150.0 0.0013619
18170.0 0.0013568
18190.0 0.0013517
18210.0 0.0013467
18230.0 0.0013417
18250.0 0.0013367
18270.0 0.0013318
18290.0 0.001327
18310.0 0.0013221
18330.0 0.0013174
18350.0 0.0013127
18370.0 0.001308
18390.0 0.0013033
18410.0 0.0012987
18430.0 0.0012942
18450.0 0.0012896
18470.0 0.0012851
18490.0 0.0012807
18510.0 0.0012762
18530.0 0.0012719
18550.0 0.0012676
18570.0 0.0012633
18590.0 0.0012589
18610.0 0.0012547
18630.0 0.0012506
18650.0 0.0012464
18670.0 0.0012422
18690.0 0.0012382
18710.0 0.0012342
18730.0 0.0012301
18750.0 0.0012262
18770.0 0.0012223
18790.0 0.0012183
18810.0 0.0012144
18830.0 0.0012106
18850.0 0.0012068
18870.0 0.001203
18890.0 0.0011993
18910.0 0.0011956
18930.0 0.0011919
18950.0 0.0011882
18970.0 0.0011847
18990.0 0.0011811
19010.0 0.0011775
19030.0 0.001174
19050.0 0.0011705
19070.0 0.001167
19090.0 0.0011636
19110.0 0.0011602
19130.0 0.0011568
19150.0 0.0011535
19170.0 0.0011502
19190.0 0.0011469
19210.0 0.0011436
19230.0 0.0011404
19250.0 0.0011372
19270.0 0.001134
19290.0 0.0011308
19310.0 0.0011277
19330.0 0.0011247
19350.0 0.0011215
19370.0 0.0011185
19390.0 0.0011155
19410.0 0.0011125
19430.0 0.0011095
19450.0 0.0011066
19470.0 0.0011037
19490.0 0.0011007
19510.0 0.0010979
19530.0 0.001095
19550.0 0.0010922
19570.0 0.0010893
19590.0 0.0010866
19610.0 0.0010838
19630.0 0.0010811
19650.0 0.0010784
19670.0 0.0010757
19690.0 0.001073
19710.0 0.0010704
19730.0 0.0010678
19750.0 0.0010652
19770.0 0.0010625
19790.0 0.00106
19810.0 0.0010574
19830.0 0.0010549
19850.0 0.0010523
19870.0 0.0010497
19890.0 0.0010469
19910.0 0.0010436
19930.0 0.0010399
19950.0 0.0010354
19970.0 0.0010295
19990.0 0.001022
20010.0 0.001013
20030.0 0.0010021
20050.0 0.00098906
20070.0 0.00097492
20090.0 0.00095975
20110.0 0.0009428
20130.0 0.00092582
20150.0 0.00090915
20170.0 0.00089207
20190.0 0.00087492
20210.0 0.00085878
20230.0 0.00084307
20250.0 0.00082732
20270.0 0.00081258
20290.0 0.00079894
20310.0 0.00078576
20330.0 0.00077313
20350.0 0.00076226
20370.0 0.00075221
20390.0 0.00074293
20410.0 0.0007349
20430.0 0.00072811
20450.0 0.00072205
20470.0 0.0007171
20490.0 0.00071332
20510.0 0.00071047
20530.0 0.00070849
20550.0 0.00070744
20570.0 0.00070715
20590.0 0.00070757
20610.0 0.00070865
20630.0 0.00071017
20650.0 0.00071215
20670.0 0.0007146
20690.0 0.00071716
20710.0 0.0007198
20730.0 0.00072257
20750.0 0.00072531
20770.0 0.00072775
20790.0 0.00073004
20810.0 0.00073211
20830.0 0.00073374
20850.0 0.00073495
20870.0 0.00073576
20890.0 0.00073604
20910.0 0.00073578
20930.0 0.00073501
20950.0 0.00073368
20970.0 0.00073186
20990.0 0.00072958
21010.0 0.0007267
21030.0 0.00072339
21050.0 0.00071978
21070.0 0.00071575
21090.0 0.00071127
21110.0 0.00070674
21130.0 0.00070208
21150.0 0.00069715
21170.0 0.00069221
21190.0 0.00068746
21210.0 0.00068261
21230.0 0.00067781
21250.0 0.0006734
21270.0 0.00066926
21290.0 0.00066528
21310.0 0.0006617
21330.0 0.00065864
21350.0 0.00065587
21370.0 0.00065351
21390.0 0.00065166
21410.0 0.00065026
21430.0 0.00064927
21450.0 0.00064879
21470.0 0.00064875
21490.0 0.00064916
21510.0 0.00065001
21530.0 0.00065123
21550.0 0.00065282
21570.0 0.00065488
21590.0 0.00065725
21610.0 0.00065987
21630.0 0.00066289
21650.0 0.00066632
21670.0 0.00066976
21690.0 0.00067349
21710.0 0.00067755
21730.0 0.0006817
21750.0 0.00068585
21770.0 0.00069039
21790.0 0.00069499
21810.0 0.00069947
21830.0 0.00070402
21850.0 0.00070871
21870.0 0.00071322
21890.0 0.00071749
21910.0 0.00072184
21930.0 0.00072601
21950.0 0.00072985
21970.0 0.00073352
21990.0 0.0007371
22010.0 0.00074018
22030.0 0.00074291
22050.0 0.00074535
22070.0 0.00074737
22090.0 0.00074889
22110.0 0.00074999
22130.0 0.00075062
22150.0 0.0007507
22170.0 0.00075028
22190.0 0.00074927
22210.0 0.00074766
22230.0 0.00074558
22250.0 0.00074289
22270.0 0.00073956
22290.0 0.00073578
22310.0 0.00073154
22330.0 0.00072654
22350.0 0.0007211
22370.0 0.00071537
22390.0 0.00070907
22410.0 0.00070214
22430.0 0.00069517
22450.0 0.00068793
22470.0 0.00068013
22490.0 0.00067219
22510.0 0.00066433
22530.0 0.000656
22550.0 0.00064743
22570.0 0.00063918
22590.0 0.00063095
22610.0 0.00062249
22630.0 0.00061426
22650.0 0.00060653
22670.0 0.00059869
22690.0 0.000591
22710.0 0.00058383
22730.0 0.00057696
22750.0 0.00057002
22770.0 0.00056367
22790.0 0.00055781
22810.0 0.0005521
22830.0 0.00054667
22850.0 0.00054178
22870.0 0.00053713
22890.0 0.00053259
22910.0 0.00052847
22930.0 0.00052468
22950.0 0.00052102
22970.0 0.00051751
22990.0 0.00051443
23010.0 0.00051148
23030.0 0.00050862
23050.0 0.000506
23070.0 0.00050358
23090.0 0.00050114
23110.0 0.00049884
23130.0 0.00049672
23150.0 0.00049464
23170.0 0.00049257
23190.0 0.00049062
23210.0 0.00048878
23230.0 0.00048692
23250.0 0.00048514
23270.0 0.0004835
23290.0 0.00048192
23310.0 0.00048039
23330.0 0.00047909
23350.0 0.00047795
23370.0 0.00047695
23390.0 0.00047615
23410.0 0.00047557
23430.0 0.00047517
23450.0 0.00047495
23470.0 0.00047493
23490.0 0.00047506
23510.0 0.00047534
23530.0 0.00047575
23550.0 0.00047623
23570.0 0.00047678
23590.0 0.00047739
23610.0 0.000478
23630.0 0.00047861
23650.0 0.00047926
23670.0 0.00047989
23690.0 0.00048051
23710.0 0.00048118
23730.0 0.00048192
23750.0 0.00048272
23770.0 0.00048365
23790.0 0.00048482
