#lamb flux
1010.0 5.3615e-08
1030.0 5.9298e-08
1050.0 6.5836e-08
1070.0 7.3194e-08
1090.0 8.1553e-08
1110.0 9.0126e-08
1130.0 9.8755e-08
1150.0 1.0779e-07
1170.0 1.1712e-07
1190.0 1.2596e-07
1210.0 1.3492e-07
1230.0 1.4418e-07
1250.0 1.5325e-07
1270.0 1.6206e-07
1290.0 1.7137e-07
1310.0 1.8067e-07
1330.0 1.8959e-07
1350.0 1.9861e-07
1370.0 2.0793e-07
1390.0 2.1701e-07
1410.0 2.2582e-07
1430.0 2.3503e-07
1450.0 2.4424e-07
1470.0 2.5315e-07
1490.0 2.6215e-07
1510.0 2.7165e-07
1530.0 2.8066e-07
1550.0 2.8955e-07
1570.0 2.9875e-07
1590.0 3.0796e-07
1610.0 3.1676e-07
1630.0 3.2584e-07
1650.0 3.3516e-07
1670.0 3.4418e-07
1690.0 3.5309e-07
1710.0 3.6235e-07
1730.0 3.7167e-07
1750.0 3.8044e-07
1770.0 3.8948e-07
1790.0 3.9871e-07
1810.0 4.0766e-07
1830.0 4.1647e-07
1850.0 4.2582e-07
1870.0 4.3495e-07
1890.0 4.4379e-07
1910.0 4.5283e-07
1930.0 4.621e-07
1950.0 4.7097e-07
1970.0 4.7975e-07
1990.0 4.8888e-07
2010.0 4.9788e-07
2030.0 5.0658e-07
2050.0 5.1557e-07
2070.0 5.2481e-07
2090.0 5.3354e-07
2110.0 5.4226e-07
2130.0 5.5127e-07
2150.0 5.6012e-07
2170.0 5.686e-07
2190.0 5.7743e-07
2210.0 5.8632e-07
2230.0 5.9486e-07
2250.0 6.0338e-07
2270.0 6.123e-07
2290.0 6.2095e-07
2310.0 6.2926e-07
2330.0 6.3791e-07
2350.0 6.468e-07
2370.0 6.5564e-07
2390.0 6.6522e-07
2410.0 6.7657e-07
2430.0 6.8963e-07
2450.0 7.0524e-07
2470.0 7.2523e-07
2490.0 7.5044e-07
2510.0 7.7908e-07
2530.0 8.1357e-07
2550.0 8.5673e-07
2570.0 9.1043e-07
2590.0 9.8028e-07
2610.0 1.0849e-06
2630.0 1.2342e-06
2650.0 1.4294e-06
2670.0 1.6818e-06
2690.0 1.992e-06
2710.0 2.3231e-06
2730.0 2.6503e-06
2750.0 2.9726e-06
2770.0 3.2529e-06
2790.0 3.4754e-06
2810.0 3.6521e-06
2830.0 3.7901e-06
2850.0 3.8843e-06
2870.0 3.9535e-06
2890.0 4.0082e-06
2910.0 4.0519e-06
2930.0 4.0876e-06
2950.0 4.1217e-06
2970.0 4.155e-06
2990.0 4.1863e-06
3010.0 0.00011833
3030.0 0.00011921
3050.0 0.00012007
3070.0 0.0001208
3090.0 0.00012143
3110.0 0.00012182
3130.0 0.0001218
3150.0 0.00012126
3170.0 0.00011996
3190.0 0.00011792
3210.0 0.00011534
3230.0 0.00011238
3250.0 0.00010945
3270.0 0.00010732
3290.0 0.00010613
3310.0 0.00010633
3330.0 0.00010786
3350.0 0.00011054
3370.0 0.00011437
3390.0 0.00011919
3410.0 0.00012444
3430.0 0.00013033
3450.0 0.00013711
3470.0 0.00014452
3490.0 0.00015237
3510.0 0.00016124
3530.0 0.00017074
3550.0 0.00018036
3570.0 0.00019039
3590.0 0.00020131
3610.0 0.00021255
3630.0 0.00022376
3650.0 0.00023539
3670.0 0.00024601
3690.0 0.00025394
3710.0 0.00025849
3730.0 0.00025864
3750.0 0.00025504
3770.0 0.00025363
3790.0 0.00025212
3810.0 0.00024593
3830.0 0.00025354
3850.0 0.00028349
3870.0 0.00029992
3890.0 0.00029856
3910.0 0.00029983
3930.0 0.00030772
3950.0 0.00031258
3970.0 0.00028479
3990.0 0.00024505
4010.0 0.00073444
4030.0 0.00088989
4050.0 0.0010202
4070.0 0.00088519
4090.0 0.00080172
4110.0 0.00070744
4130.0 0.00065112
4150.0 0.0006926
4170.0 0.00068224
4190.0 0.00072722
4210.0 0.00072057
4230.0 0.00076217
4250.0 0.00090166
4270.0 0.00091226
4290.0 0.00084064
4310.0 0.00087348
4330.0 0.00092912
4350.0 0.0010418
4370.0 0.0011856
4390.0 0.0011125
4410.0 0.00082196
4430.0 0.00069584
4450.0 0.0006394
4470.0 0.00049076
4490.0 0.00052959
4510.0 0.00079996
4530.0 0.00092259
4550.0 0.0009306
4570.0 0.0010472
4590.0 0.0011928
4610.0 0.0016088
4630.0 0.0020895
4650.0 0.0022661
4670.0 0.0020986
4690.0 0.0020024
4710.0 0.0021167
4730.0 0.0019976
4750.0 0.0014934
4770.0 0.0010955
4790.0 0.001023
4810.0 0.00097506
4830.0 0.00089266
4850.0 0.00097954
4870.0 0.0012941
4890.0 0.0015261
4910.0 0.0013389
4930.0 0.0011848
4950.0 0.0013016
4970.0 0.0016693
4990.0 0.0022623
5010.0 0.0026024
5030.0 0.0022947
5050.0 0.0015525
5070.0 0.0010232
5090.0 0.00082505
5110.0 0.00084849
5130.0 0.00097929
5150.0 0.001061
5170.0 0.0010451
5190.0 0.00097654
5210.0 0.0010207
5230.0 0.001073
5250.0 0.0011564
5270.0 0.0012477
5290.0 0.0013827
5310.0 0.0016094
5330.0 0.001781
5350.0 0.0017697
5370.0 0.0018589
5390.0 0.0021331
5410.0 0.0021312
5430.0 0.0018847
5450.0 0.0017316
5470.0 0.0018387
5490.0 0.0022463
5510.0 0.0028087
5530.0 0.0032215
5550.0 0.0031136
5570.0 0.0028305
5590.0 0.0024611
5610.0 0.0022697
5630.0 0.0022009
5650.0 0.0020962
5670.0 0.0019863
5690.0 0.0017758
5710.0 0.0017314
5730.0 0.0015949
5750.0 0.0011245
5770.0 0.00087729
5790.0 0.00099416
5810.0 0.0011226
5830.0 0.0013776
5850.0 0.0016398
5870.0 0.0018194
5890.0 0.0018503
5910.0 0.0018152
5930.0 0.0017279
5950.0 0.0017607
5970.0 0.002007
5990.0 0.0018871
6010.0 0.001582
6030.0 0.0013365
6050.0 0.0011639
6070.0 0.0011576
6090.0 0.0012552
6110.0 0.0014035
6130.0 0.001425
6150.0 0.0012261
6170.0 0.0010786
6190.0 0.0012138
6210.0 0.0016046
6230.0 0.0021057
6250.0 0.0022808
6270.0 0.0019931
6290.0 0.0016769
6310.0 0.0013091
6330.0 0.001003
6350.0 0.00089468
6370.0 0.00094085
6390.0 0.0010877
6410.0 0.0013412
6430.0 0.0015661
6450.0 0.001792
6470.0 0.0020519
6490.0 0.0024786
6510.0 0.0027714
6530.0 0.0027189
6550.0 0.0024586
6570.0 0.0020871
6590.0 0.001882
6610.0 0.0016228
6630.0 0.0014702
6650.0 0.0013897
6670.0 0.0013501
6690.0 0.0012199
6710.0 0.0011089
6730.0 0.00079873
6750.0 0.00079185
6770.0 0.00086069
6790.0 0.0009893
6810.0 0.00090522
6830.0 0.00093213
6850.0 0.00087184
6870.0 0.00079643
6890.0 0.00076469
6910.0 0.00081488
6930.0 0.00076325
6950.0 0.00078525
6970.0 0.00082594
6990.0 0.00093751
7010.0 0.0009455
7030.0 0.00096052
7050.0 0.00091601
7070.0 0.00087279
7090.0 0.00087535
7110.0 0.00090067
7130.0 0.00096926
7150.0 0.0010294
7170.0 0.0011359
7190.0 0.0012487
7210.0 0.001227
7230.0 0.0012614
7250.0 0.0013555
7270.0 0.0014772
7290.0 0.0017533
7310.0 0.0019025
7330.0 0.0018389
7350.0 0.0016632
7370.0 0.0014471
7390.0 0.0014039
7410.0 0.0014919
7430.0 0.0016581
7450.0 0.0018059
7470.0 0.0017893
7490.0 0.0016315
7510.0 0.0018481
7530.0 0.0018279
7550.0 0.0016429
7570.0 0.0012834
7590.0 0.00088232
7610.0 0.0007573
7630.0 0.00086044
7650.0 0.0010173
7670.0 0.0012662
7690.0 0.0013933
7710.0 0.001452
7730.0 0.0015259
7750.0 0.001713
7770.0 0.0017399
7790.0 0.0015982
7810.0 0.0014582
7830.0 0.0015038
7850.0 0.0014618
7870.0 0.0013402
7890.0 0.0011261
7910.0 0.00091533
7930.0 0.000874
7950.0 0.00079624
7970.0 0.00073707
7990.0 0.00073286
8010.0 5.4278e-05
8030.0 5.3572e-05
8050.0 5.285e-05
8070.0 5.3542e-05
8090.0 5.7529e-05
8110.0 5.6549e-05
8130.0 4.6646e-05
8150.0 4.5427e-05
8170.0 3.9129e-05
8190.0 3.7083e-05
8210.0 4.8156e-05
8230.0 5.3616e-05
8250.0 4.8323e-05
8270.0 4.2059e-05
8290.0 4.1e-05
8310.0 3.1555e-05
8330.0 2.1268e-05
8350.0 1.5094e-05
8370.0 9.5097e-06
8390.0 1.7384e-05
8410.0 2.0257e-05
8430.0 2.4969e-05
8450.0 2.9321e-05
8470.0 3.6444e-05
8490.0 3.6187e-05
8510.0 3.5595e-05
8530.0 3.7149e-05
8550.0 5.0121e-05
8570.0 5.9336e-05
8590.0 6.4023e-05
8610.0 8.0875e-05
8630.0 9.7425e-05
8650.0 0.00010192
8670.0 0.00010831
8690.0 0.00010891
8710.0 9.8637e-05
8730.0 9.1748e-05
8750.0 8.0985e-05
8770.0 7.6842e-05
8790.0 7.5493e-05
8810.0 7.2339e-05
8830.0 5.7846e-05
8850.0 4.2348e-05
8870.0 3.2425e-05
8890.0 3.1701e-05
8910.0 3.6329e-05
8930.0 4.1322e-05
8950.0 4.2114e-05
8970.0 4.2313e-05
8990.0 3.7738e-05
9010.0 0.00039547
9030.0 0.00035835
9050.0 0.00036008
9070.0 0.00036292
9090.0 0.00036541
9110.0 0.00036849
9130.0 0.00037087
9150.0 0.00037271
9170.0 0.00037468
9190.0 0.00037678
9210.0 0.000379
9230.0 0.00038133
9250.0 0.0003837
9270.0 0.00038617
9290.0 0.0003887
9310.0 0.00039125
9330.0 0.00039386
9350.0 0.00039656
9370.0 0.00039929
9390.0 0.00040205
9410.0 0.00040488
9430.0 0.00040781
9450.0 0.00041072
9470.0 0.00041369
9490.0 0.00041675
9510.0 0.00041985
9530.0 0.00042296
9550.0 0.00042618
9570.0 0.00042945
9590.0 0.00043273
9610.0 0.00043607
9630.0 0.0004395
9650.0 0.00044296
9670.0 0.00044643
9690.0 0.00044999
9710.0 0.0004536
9730.0 0.00045722
9750.0 0.00046089
9770.0 0.00046468
9790.0 0.00046845
9810.0 0.00047225
9830.0 0.00047613
9850.0 0.00048006
9870.0 0.00048397
9890.0 0.00048795
9910.0 0.000492
9930.0 0.00049605
9950.0 0.00050012
9970.0 0.00050427
9990.0 0.00050846
10010.0 0.0004412
10030.0 0.00044483
10050.0 0.00044852
10070.0 0.00045234
10090.0 0.00045595
10110.0 0.00045964
10130.0 0.00046335
10150.0 0.00046704
10170.0 0.00047078
10190.0 0.00047459
10210.0 0.00047834
10230.0 0.00048209
10250.0 0.0004859
10270.0 0.00048971
10290.0 0.00049347
10310.0 0.00049727
10330.0 0.00050112
10350.0 0.00050489
10370.0 0.00050866
10390.0 0.00051247
10410.0 0.00051626
10430.0 0.00051998
10450.0 0.00052373
10470.0 0.0005275
10490.0 0.0005312
10510.0 0.00053487
10530.0 0.00053861
10550.0 0.00054229
10570.0 0.00054588
10590.0 0.0005495
10610.0 0.00055311
10630.0 0.00055664
10650.0 0.00056013
10670.0 0.00056367
10690.0 0.00056713
10710.0 0.00057051
10730.0 0.00057391
10750.0 0.00057731
10770.0 0.00058057
10790.0 0.00058381
10810.0 0.00058704
10830.0 0.00059017
10850.0 0.00059315
10870.0 0.00059603
10890.0 0.00059856
10910.0 0.00060051
10930.0 0.00060162
10950.0 0.00060136
10970.0 0.00059932
10990.0 0.00059532
11010.0 0.00058864
11030.0 0.00057927
11050.0 0.00056786
11070.0 0.00055421
11090.0 0.00053782
11110.0 0.00052086
11130.0 0.00050316
11150.0 0.00048412
11170.0 0.00046448
11190.0 0.00044543
11210.0 0.00042576
11230.0 0.00040559
11250.0 0.00038632
11270.0 0.00036781
11290.0 0.00034927
11310.0 0.0003317
11330.0 0.00031623
11350.0 0.00030162
11370.0 0.00028812
11390.0 0.00027643
11410.0 0.00026621
11430.0 0.00025672
11450.0 0.00024853
11470.0 0.00024146
11490.0 0.00023487
11510.0 0.00022853
11530.0 0.00022264
11550.0 0.0002168
11570.0 0.00021056
11590.0 0.0002041
11610.0 0.00019752
11630.0 0.00019036
11650.0 0.0001827
11670.0 0.00017515
11690.0 0.00016749
11710.0 0.00015959
11730.0 0.00015193
11750.0 0.00014485
11770.0 0.0001379
11790.0 0.00013138
11810.0 0.00012565
11830.0 0.00012053
11850.0 0.0001158
11870.0 0.00011185
11890.0 0.00010857
11910.0 0.00010568
11930.0 0.0001032
11950.0 0.00010114
11970.0 9.9293e-05
11990.0 9.7549e-05
12010.0 9.5935e-05
12030.0 9.438e-05
12050.0 9.2773e-05
12070.0 9.1101e-05
12090.0 8.9489e-05
12110.0 8.7853e-05
12130.0 8.6213e-05
12150.0 8.4701e-05
12170.0 8.3382e-05
12190.0 8.224e-05
12210.0 8.1444e-05
12230.0 8.1059e-05
12250.0 8.1122e-05
12270.0 8.1733e-05
12290.0 8.2889e-05
12310.0 8.4548e-05
12330.0 8.6869e-05
12350.0 8.9765e-05
12370.0 9.3063e-05
12390.0 9.6865e-05
12410.0 0.00010132
12430.0 0.00010585
12450.0 0.00011054
12470.0 0.00011552
12490.0 0.00012053
12510.0 0.00012523
12530.0 0.0001299
12550.0 0.00013441
12570.0 0.00013839
12590.0 0.00014188
12610.0 0.000145
12630.0 0.00014748
12650.0 0.00014919
12670.0 0.00015032
12690.0 0.00015077
12710.0 0.00015052
12730.0 0.00014965
12750.0 0.00014809
12770.0 0.00014595
12790.0 0.00014336
12810.0 0.00014027
12830.0 0.00013669
12850.0 0.00013295
12870.0 0.00012899
12890.0 0.00012471
12910.0 0.00012036
12930.0 0.00011606
12950.0 0.00011159
12970.0 0.00010703
12990.0 0.00010272
13010.0 9.8462e-05
13030.0 9.4157e-05
13050.0 9.0022e-05
13070.0 8.6148e-05
13090.0 8.2261e-05
13110.0 7.85e-05
13130.0 7.5033e-05
13150.0 7.1749e-05
13170.0 6.8534e-05
13190.0 6.5674e-05
13210.0 6.3156e-05
13230.0 6.0854e-05
13250.0 5.8872e-05
13270.0 5.7308e-05
13290.0 5.6092e-05
13310.0 5.5255e-05
13330.0 5.4873e-05
13350.0 5.4918e-05
13370.0 5.541e-05
13390.0 5.6378e-05
13410.0 5.7685e-05
13430.0 5.9385e-05
13450.0 6.1485e-05
13470.0 6.3816e-05
13490.0 6.6285e-05
13510.0 6.9069e-05
13530.0 7.1892e-05
13550.0 7.4594e-05
13570.0 7.7258e-05
13590.0 7.9854e-05
13610.0 8.2164e-05
13630.0 8.418e-05
13650.0 8.6021e-05
13670.0 8.7549e-05
13690.0 8.8731e-05
13710.0 8.9645e-05
13730.0 9.0298e-05
13750.0 9.0624e-05
13770.0 9.0698e-05
13790.0 9.0533e-05
13810.0 9.0133e-05
13830.0 8.9543e-05
13850.0 8.8743e-05
13870.0 8.7734e-05
13890.0 8.658e-05
13910.0 8.528e-05
13930.0 8.3774e-05
13950.0 8.2131e-05
13970.0 8.045e-05
13990.0 7.862e-05
14010.0 7.6674e-05
14030.0 7.4733e-05
14050.0 7.2777e-05
14070.0 7.0712e-05
14090.0 6.8733e-05
14110.0 6.6873e-05
14130.0 6.507e-05
14150.0 6.3373e-05
14170.0 6.1925e-05
14190.0 6.0673e-05
14210.0 5.9611e-05
14230.0 5.8824e-05
14250.0 5.8316e-05
14270.0 5.8069e-05
14290.0 5.8122e-05
14310.0 5.8446e-05
14330.0 5.9027e-05
14350.0 5.9884e-05
14370.0 6.095e-05
14390.0 6.2161e-05
14410.0 6.3588e-05
14430.0 6.5155e-05
14450.0 6.6755e-05
14470.0 6.8415e-05
14490.0 7.018e-05
14510.0 7.1868e-05
14530.0 7.3471e-05
14550.0 7.5074e-05
14570.0 7.6612e-05
14590.0 7.8013e-05
14610.0 7.9367e-05
14630.0 8.0708e-05
14650.0 8.1957e-05
14670.0 8.3162e-05
14690.0 8.4419e-05
14710.0 8.5741e-05
14730.0 8.7062e-05
14750.0 8.8527e-05
14770.0 9.0188e-05
14790.0 9.1989e-05
14810.0 9.394e-05
14830.0 9.6251e-05
14850.0 9.8764e-05
14870.0 0.00010138
14890.0 0.00010421
14910.0 0.00010722
14930.0 0.0001101
14950.0 0.0001128
14970.0 0.00011536
14990.0 0.0001175
15010.0 0.00011914
15030.0 0.00012035
15050.0 0.00012116
15070.0 0.00012155
15090.0 0.00012168
15110.0 0.00012164
15130.0 0.00012149
15150.0 0.00012129
15170.0 0.00012104
15190.0 0.00012078
15210.0 0.00012053
15230.0 0.00012027
15250.0 0.00012
15270.0 0.00011974
15290.0 0.00011949
15310.0 0.00011924
15330.0 0.00011898
15350.0 0.00011873
15370.0 0.00011849
15390.0 0.00011823
15410.0 0.00011798
15430.0 0.00011774
15450.0 0.00011749
15470.0 0.00011724
15490.0 0.000117
15510.0 0.00011676
15530.0 0.00011651
15550.0 0.00011627
15570.0 0.00011604
15590.0 0.00011579
15610.0 0.00011555
15630.0 0.00011532
15650.0 0.00011508
15670.0 0.00011484
15690.0 0.00011461
15710.0 0.00011438
15730.0 0.00011414
15750.0 0.00011391
15770.0 0.00011368
15790.0 0.00011345
15810.0 0.00011321
15830.0 0.00011298
15850.0 0.00011275
15870.0 0.00011252
15890.0 0.00011229
15910.0 0.00011207
15930.0 0.00011184
15950.0 0.00011161
15970.0 0.00011138
15990.0 0.00011116
16010.0 0.00011093
16030.0 0.00011069
16050.0 0.00011047
16070.0 0.00011025
16090.0 0.00011002
16110.0 0.00010979
16130.0 0.00010957
16150.0 0.00010934
16170.0 0.00010911
16190.0 0.00010889
16210.0 0.00010866
16230.0 0.00010843
16250.0 0.00010821
16270.0 0.00010799
16290.0 0.00010776
16310.0 0.00010753
16330.0 0.00010731
16350.0 0.00010708
16370.0 0.00010684
16390.0 0.00010662
16410.0 0.0001064
16430.0 0.00010617
16450.0 0.00010594
16470.0 0.00010572
16490.0 0.00010549
16510.0 0.00010525
16530.0 0.00010503
16550.0 0.0001048
16570.0 0.00010457
16590.0 0.00010433
16610.0 0.00010411
16630.0 0.00010388
16650.0 0.00010364
16670.0 0.00010342
16690.0 0.00010319
16710.0 0.00010295
16730.0 0.00010271
16750.0 0.00010249
16770.0 0.00010225
16790.0 0.00010201
16810.0 0.00010178
16830.0 0.00010155
16850.0 0.00010131
16870.0 0.00010107
16890.0 0.00010084
16910.0 0.0001006
16930.0 0.00010036
16950.0 0.00010012
16970.0 9.9886e-05
16990.0 9.9641e-05
17010.0 9.9401e-05
17030.0 9.9169e-05
17050.0 9.8923e-05
17070.0 9.8677e-05
17090.0 9.8439e-05
17110.0 9.8197e-05
17130.0 9.7943e-05
17150.0 9.77e-05
17170.0 9.7462e-05
17190.0 9.7213e-05
17210.0 9.6963e-05
17230.0 9.6724e-05
17250.0 9.6477e-05
17270.0 9.622e-05
17290.0 9.5973e-05
17310.0 9.5728e-05
17330.0 9.5473e-05
17350.0 9.5216e-05
17370.0 9.4973e-05
17390.0 9.4722e-05
17410.0 9.4464e-05
17430.0 9.4214e-05
17450.0 9.3967e-05
17470.0 9.3703e-05
17490.0 9.3444e-05
17510.0 9.3194e-05
17530.0 9.2938e-05
17550.0 9.2674e-05
17570.0 9.242e-05
17590.0 9.2168e-05
17610.0 9.1904e-05
17630.0 9.1642e-05
17650.0 9.1388e-05
17670.0 9.1127e-05
17690.0 9.0854e-05
17710.0 9.0598e-05
17730.0 9.0339e-05
17750.0 9.0072e-05
17770.0 8.9807e-05
17790.0 8.9552e-05
17810.0 8.9284e-05
17830.0 8.9012e-05
17850.0 8.875e-05
17870.0 8.8487e-05
17890.0 8.8213e-05
17910.0 8.7943e-05
17930.0 8.7683e-05
17950.0 8.7414e-05
17970.0 8.714e-05
17990.0 8.6876e-05
18010.0 8.6611e-05
18030.0 8.633e-05
18050.0 8.6059e-05
18070.0 8.5794e-05
18090.0 8.5519e-05
18110.0 8.5241e-05
18130.0 8.4975e-05
18150.0 8.4705e-05
18170.0 8.4426e-05
18190.0 8.4153e-05
18210.0 8.3886e-05
18230.0 8.3606e-05
18250.0 8.3323e-05
18270.0 8.3054e-05
18290.0 8.278e-05
18310.0 8.2498e-05
18330.0 8.2224e-05
18350.0 8.1955e-05
18370.0 8.1672e-05
18390.0 8.1391e-05
18410.0 8.1119e-05
18430.0 8.0842e-05
18450.0 8.0554e-05
18470.0 8.0277e-05
18490.0 8.0005e-05
18510.0 7.9722e-05
18530.0 7.944e-05
18550.0 7.9168e-05
18570.0 7.8888e-05
18590.0 7.8599e-05
18610.0 7.8321e-05
18630.0 7.8045e-05
18650.0 7.7759e-05
18670.0 7.7473e-05
18690.0 7.7201e-05
18710.0 7.692e-05
18730.0 7.6633e-05
18750.0 7.6355e-05
18770.0 7.608e-05
18790.0 7.5788e-05
18810.0 7.5503e-05
18830.0 7.5227e-05
18850.0 7.4944e-05
18870.0 7.4655e-05
18890.0 7.4377e-05
18910.0 7.41e-05
18930.0 7.3811e-05
18950.0 7.3527e-05
18970.0 7.325e-05
18990.0 7.2966e-05
19010.0 7.2671e-05
19030.0 7.2395e-05
19050.0 7.2116e-05
19070.0 7.1828e-05
19090.0 7.1544e-05
19110.0 7.127e-05
19130.0 7.0982e-05
19150.0 7.0693e-05
19170.0 7.0414e-05
19190.0 7.0133e-05
19210.0 6.9842e-05
19230.0 6.9557e-05
19250.0 6.9282e-05
19270.0 6.8997e-05
19290.0 6.871e-05
19310.0 6.8432e-05
19330.0 6.8153e-05
19350.0 6.7859e-05
19370.0 6.7577e-05
19390.0 6.7299e-05
19410.0 6.7013e-05
19430.0 6.6725e-05
19450.0 6.6449e-05
19470.0 6.6169e-05
19490.0 6.5881e-05
19510.0 6.56e-05
19530.0 6.5324e-05
19550.0 6.5035e-05
19570.0 6.4746e-05
19590.0 6.4471e-05
19610.0 6.419e-05
19630.0 6.3903e-05
19650.0 6.3623e-05
19670.0 6.3349e-05
19690.0 6.3062e-05
19710.0 6.2777e-05
19730.0 6.2501e-05
19750.0 6.2221e-05
19770.0 6.193e-05
19790.0 6.1652e-05
19810.0 6.1377e-05
19830.0 6.1091e-05
19850.0 6.0805e-05
19870.0 6.0523e-05
19890.0 6.0221e-05
19910.0 5.9889e-05
19930.0 5.9534e-05
19950.0 5.9127e-05
19970.0 5.8627e-05
19990.0 5.8024e-05
20010.0 5.1624e-05
20030.0 5.0877e-05
20050.0 5.0002e-05
20070.0 4.9055e-05
20090.0 4.8035e-05
20110.0 4.6883e-05
20130.0 4.5715e-05
20150.0 4.4559e-05
20170.0 4.336e-05
20190.0 4.2143e-05
20210.0 4.0994e-05
20230.0 3.9874e-05
20250.0 3.8751e-05
20270.0 3.7709e-05
20290.0 3.6757e-05
20310.0 3.5853e-05
20330.0 3.5008e-05
20350.0 3.4307e-05
20370.0 3.3684e-05
20390.0 3.3138e-05
20410.0 3.2697e-05
20430.0 3.2357e-05
20450.0 3.2088e-05
20470.0 3.1907e-05
20490.0 3.181e-05
20510.0 3.1782e-05
20530.0 3.1822e-05
20550.0 3.192e-05
20570.0 3.2063e-05
20590.0 3.2256e-05
20610.0 3.2491e-05
20630.0 3.2749e-05
20650.0 3.3038e-05
20670.0 3.3368e-05
20690.0 3.3704e-05
20710.0 3.4052e-05
20730.0 3.4427e-05
20750.0 3.4819e-05
20770.0 3.5204e-05
20790.0 3.5609e-05
20810.0 3.6037e-05
20830.0 3.6463e-05
20850.0 3.6891e-05
20870.0 3.7349e-05
20890.0 3.7816e-05
20910.0 3.8266e-05
20930.0 3.8734e-05
20950.0 3.9218e-05
20970.0 3.969e-05
20990.0 4.0156e-05
21010.0 4.0646e-05
21030.0 4.1125e-05
21050.0 4.1582e-05
21070.0 4.2038e-05
21090.0 4.2496e-05
21110.0 4.2914e-05
21130.0 4.3306e-05
21150.0 4.3686e-05
21170.0 4.403e-05
21190.0 4.4326e-05
21210.0 4.4592e-05
21230.0 4.4814e-05
21250.0 4.4971e-05
21270.0 4.5072e-05
21290.0 4.5109e-05
21310.0 4.5073e-05
21330.0 4.4967e-05
21350.0 4.478e-05
21370.0 4.4506e-05
21390.0 4.4157e-05
21410.0 4.3731e-05
21430.0 4.319e-05
21450.0 4.2583e-05
21470.0 4.1923e-05
21490.0 4.1175e-05
21510.0 4.0356e-05
21530.0 3.9523e-05
21550.0 3.865e-05
21570.0 3.772e-05
21590.0 3.6805e-05
21610.0 3.5921e-05
21630.0 3.5035e-05
21650.0 3.4171e-05
21670.0 3.3421e-05
21690.0 3.273e-05
21710.0 3.2107e-05
21730.0 3.1597e-05
21750.0 3.1204e-05
21770.0 3.0904e-05
21790.0 3.0731e-05
21810.0 3.0684e-05
21830.0 3.0752e-05
21850.0 3.0944e-05
21870.0 3.1244e-05
21890.0 3.1631e-05
21910.0 3.2128e-05
21930.0 3.271e-05
21950.0 3.3341e-05
21970.0 3.404e-05
21990.0 3.4825e-05
22010.0 3.5609e-05
22030.0 3.6406e-05
22050.0 3.7242e-05
22070.0 3.8083e-05
22090.0 3.888e-05
22110.0 3.9683e-05
22130.0 4.0484e-05
22150.0 4.1233e-05
22170.0 4.1939e-05
22190.0 4.2638e-05
22210.0 4.3289e-05
22230.0 4.3862e-05
22250.0 4.4401e-05
22270.0 4.4898e-05
22290.0 4.5322e-05
22310.0 4.5687e-05
22330.0 4.6007e-05
22350.0 4.6255e-05
22370.0 4.643e-05
22390.0 4.654e-05
22410.0 4.6574e-05
22430.0 4.653e-05
22450.0 4.641e-05
22470.0 4.6203e-05
22490.0 4.5912e-05
22510.0 4.5549e-05
22530.0 4.5085e-05
22550.0 4.4521e-05
22570.0 4.3895e-05
22590.0 4.3189e-05
22610.0 4.2377e-05
22630.0 4.1498e-05
22650.0 4.0589e-05
22670.0 3.9584e-05
22690.0 3.8512e-05
22710.0 3.7429e-05
22730.0 3.6314e-05
22750.0 3.5105e-05
22770.0 3.3924e-05
