#lamb flux
1010.0 1.3634e-06
1030.0 1.4516e-06
1050.0 1.5534e-06
1070.0 1.6681e-06
1090.0 1.7985e-06
1110.0 1.9326e-06
1130.0 2.0679e-06
1150.0 2.21e-06
1170.0 2.357e-06
1190.0 2.4971e-06
1210.0 2.6395e-06
1230.0 2.7872e-06
1250.0 2.9326e-06
1270.0 3.0746e-06
1290.0 3.2251e-06
1310.0 3.3763e-06
1330.0 3.5223e-06
1350.0 3.6707e-06
1370.0 3.8246e-06
1390.0 3.9758e-06
1410.0 4.1236e-06
1430.0 4.2787e-06
1450.0 4.4348e-06
1470.0 4.5869e-06
1490.0 4.7415e-06
1510.0 4.9051e-06
1530.0 5.0615e-06
1550.0 5.2167e-06
1570.0 5.3774e-06
1590.0 5.5389e-06
1610.0 5.6941e-06
1630.0 5.8539e-06
1650.0 6.0177e-06
1670.0 6.1764e-06
1690.0 6.3328e-06
1710.0 6.4943e-06
1730.0 6.6558e-06
1750.0 6.8071e-06
1770.0 6.9612e-06
1790.0 7.1168e-06
1810.0 7.2656e-06
1830.0 7.4097e-06
1850.0 7.5603e-06
1870.0 7.7042e-06
1890.0 7.8403e-06
1910.0 7.9762e-06
1930.0 8.1124e-06
1950.0 8.2383e-06
1970.0 8.359e-06
1990.0 8.4815e-06
2010.0 8.598e-06
2030.0 8.7057e-06
2050.0 8.8142e-06
2070.0 8.9229e-06
2090.0 9.0199e-06
2110.0 9.1135e-06
2130.0 9.2083e-06
2150.0 9.298e-06
2170.0 9.3794e-06
2190.0 9.464e-06
2210.0 9.5478e-06
2230.0 9.6251e-06
2250.0 9.7011e-06
2270.0 9.7827e-06
2290.0 9.8601e-06
2310.0 9.9328e-06
2330.0 1.0011e-05
2350.0 1.0091e-05
2370.0 1.0168e-05
2390.0 1.0248e-05
2410.0 1.0337e-05
2430.0 1.0426e-05
2450.0 1.0516e-05
2470.0 1.0615e-05
2490.0 1.0728e-05
2510.0 1.0856e-05
2530.0 1.1037e-05
2550.0 1.1331e-05
2570.0 1.1805e-05
2590.0 1.2539e-05
2610.0 1.3735e-05
2630.0 1.5457e-05
2650.0 1.7631e-05
2670.0 2.0293e-05
2690.0 2.3367e-05
2710.0 2.6462e-05
2730.0 2.9383e-05
2750.0 3.2179e-05
2770.0 3.4619e-05
2790.0 3.6665e-05
2810.0 3.8493e-05
2830.0 4.0243e-05
2850.0 4.1839e-05
2870.0 4.3427e-05
2890.0 4.5109e-05
2910.0 4.6855e-05
2930.0 4.8609e-05
2950.0 5.0488e-05
2970.0 5.2478e-05
2990.0 5.4486e-05
3010.0 0.00019279
3030.0 0.00020016
3050.0 0.00020748
3070.0 0.00021409
3090.0 0.00021969
3110.0 0.00022274
3130.0 0.00022142
3150.0 0.00021377
3170.0 0.00019584
3190.0 0.00016728
3210.0 0.00012865
3230.0 8.5288e-05
3250.0 0.00013075
3270.0 8.1768e-05
3290.0 0.00018822
3310.0 7.4198e-05
3330.0 7.3453e-05
3350.0 8.797e-05
3370.0 0.00010533
3390.0 0.00012432
3410.0 0.00014335
3430.0 0.0001634
3450.0 0.00018364
3470.0 0.00020231
3490.0 0.00021538
3510.0 0.00025863
3530.0 0.0003349
3550.0 0.00032624
3570.0 0.00026902
3590.0 0.00036415
3610.0 0.00023567
3630.0 0.00038378
3650.0 0.00044703
3670.0 0.00056842
3690.0 0.00052777
3710.0 0.0003534
3730.0 0.00045611
3750.0 0.00046703
3770.0 0.00050125
3790.0 0.00048639
3810.0 0.00050072
3830.0 0.00078697
3850.0 0.000966
3870.0 0.0011912
3890.0 0.0011577
3910.0 0.0010347
3930.0 0.001048
3950.0 0.001132
3970.0 0.0012482
3990.0 0.00080034
4010.0 0.00043323
4030.0 0.00077041
4050.0 0.001019
4070.0 0.0010902
4090.0 0.00076253
4110.0 0.00048266
4130.0 0.00079381
4150.0 0.00081044
4170.0 0.00075438
4190.0 0.00068451
4210.0 0.00096887
4230.0 0.00071379
4250.0 0.00077335
4270.0 0.00076829
4290.0 0.00072791
4310.0 0.00093312
4330.0 0.0010083
4350.0 0.0008401
4370.0 0.0007092
4390.0 0.00086436
4410.0 0.00088524
4430.0 0.00065089
4450.0 0.00059058
4470.0 0.00072987
4490.0 0.00055842
4510.0 0.00077947
4530.0 0.0008101
4550.0 0.00096137
4570.0 0.0013553
4590.0 0.0013403
4610.0 0.0010627
4630.0 0.001696
4650.0 0.0022602
4670.0 0.0021554
4690.0 0.0015242
4710.0 0.0016163
4730.0 0.0018308
4750.0 0.0015082
4770.0 0.001153
4790.0 0.00077817
4810.0 0.0010622
4830.0 0.001251
4850.0 0.0010996
4870.0 0.00046225
4890.0 0.0012478
4910.0 0.0016359
4930.0 0.001778
4950.0 0.0018321
4970.0 0.0012869
4990.0 0.0014976
5010.0 0.0017395
5030.0 0.0018645
5050.0 0.0017406
5070.0 0.0012308
5090.0 0.00099863
5110.0 0.00096541
5130.0 0.00091726
5150.0 0.00095544
5170.0 0.00085257
5190.0 0.0010165
5210.0 0.0010324
5230.0 0.0011442
5250.0 0.0013593
5270.0 0.0011276
5290.0 0.0011733
5310.0 0.0017254
5330.0 0.0019846
5350.0 0.0016665
5370.0 0.0014992
5390.0 0.0017403
5410.0 0.0020779
5430.0 0.0022148
5450.0 0.002331
5470.0 0.002348
5490.0 0.0024193
5510.0 0.0028975
5530.0 0.0030113
5550.0 0.0031814
5570.0 0.0033421
5590.0 0.0032866
5610.0 0.0030788
5630.0 0.0030074
5650.0 0.003112
5670.0 0.0030424
5690.0 0.0026061
5710.0 0.0025794
5730.0 0.0025848
5750.0 0.0026893
5770.0 0.0023175
5790.0 0.0022121
5810.0 0.0022676
5830.0 0.0024487
5850.0 0.0022811
5870.0 0.0022935
5890.0 0.0026761
5910.0 0.0024983
5930.0 0.0020644
5950.0 0.001866
5970.0 0.0020348
5990.0 0.0018488
6010.0 0.0016905
6030.0 0.0016578
6050.0 0.0015184
6070.0 0.0011765
6090.0 0.0011189
6110.0 0.0014354
6130.0 0.0016108
6150.0 0.0016638
6170.0 0.0016181
6190.0 0.0015433
6210.0 0.0016091
6230.0 0.0019527
6250.0 0.0018044
6270.0 0.0016223
6290.0 0.0014747
6310.0 0.0013357
6330.0 0.0012391
6350.0 0.0011074
6370.0 0.0011224
6390.0 0.0013061
6410.0 0.0016217
6430.0 0.0019169
6450.0 0.0019243
6470.0 0.0019458
6490.0 0.0023764
6510.0 0.0027282
6530.0 0.0025925
6550.0 0.0024599
6570.0 0.0024954
6590.0 0.0024594
6610.0 0.0026031
6630.0 0.0024275
6650.0 0.0021091
6670.0 0.0019456
6690.0 0.0019287
6710.0 0.002283
6730.0 0.0020328
6750.0 0.001672
6770.0 0.0015093
6790.0 0.0016035
6810.0 0.0018415
6830.0 0.0018329
6850.0 0.0016439
6870.0 0.0017026
6890.0 0.0016921
6910.0 0.0015903
6930.0 0.0017656
6950.0 0.0016424
6970.0 0.00153
6990.0 0.0015252
7010.0 0.0015364
7030.0 0.0014923
7050.0 0.001429
7070.0 0.0015326
7090.0 0.0014275
7110.0 0.0012103
7130.0 0.0010396
7150.0 0.0010209
7170.0 0.001289
7190.0 0.0013666
7210.0 0.0012958
7230.0 0.0013627
7250.0 0.0013236
7270.0 0.0012911
7290.0 0.0013986
7310.0 0.0015332
7330.0 0.0014938
7350.0 0.0013859
7370.0 0.001282
7390.0 0.0012859
7410.0 0.0014775
7430.0 0.0016635
7450.0 0.0017712
7470.0 0.0017965
7490.0 0.0019985
7510.0 0.0019747
7530.0 0.0017879
7550.0 0.0016925
7570.0 0.0014625
7590.0 0.0013923
7610.0 0.0013448
7630.0 0.0012387
7650.0 0.0013307
7670.0 0.0014741
7690.0 0.0016048
7710.0 0.001831
7730.0 0.0019204
7750.0 0.0019952
7770.0 0.0020738
7790.0 0.0022493
7810.0 0.0022658
7830.0 0.0020333
7850.0 0.0020414
7870.0 0.0019656
7890.0 0.0020124
7910.0 0.0018952
7930.0 0.0018813
7950.0 0.0015796
7970.0 0.0015847
7990.0 0.0015313
8010.0 0.0016635
8030.0 0.0016563
8050.0 0.001759
8070.0 0.0016872
8090.0 0.0016937
8110.0 0.001667
8130.0 0.0016474
8150.0 0.0015463
8170.0 0.0015163
8190.0 0.0015116
8210.0 0.0015256
8230.0 0.0013337
8250.0 0.0012188
8270.0 0.0010766
8290.0 0.00091488
8310.0 0.00080549
8330.0 0.0006377
8350.0 0.00051603
8370.0 0.00049796
8390.0 0.00048251
8410.0 0.0005047
8430.0 0.00064882
8450.0 0.00070623
8470.0 0.0007597
8490.0 0.00088853
8510.0 0.00096641
8530.0 0.0010983
8550.0 0.0012985
8570.0 0.0014255
8590.0 0.0014985
8610.0 0.0016633
8630.0 0.0018912
8650.0 0.001939
8670.0 0.0019783
8690.0 0.0020517
8710.0 0.0020107
8730.0 0.0019461
8750.0 0.0017923
8770.0 0.0017917
8790.0 0.0017653
8810.0 0.0016225
8830.0 0.0016235
8850.0 0.0014859
8870.0 0.001416
8890.0 0.0012678
8910.0 0.0014124
8930.0 0.0012768
8950.0 0.0012794
8970.0 0.0013056
8990.0 0.0012672
9010.0 0.0013011
9030.0 0.0012351
9050.0 0.0012291
9070.0 0.0012296
9090.0 0.0012299
9110.0 0.001231
9130.0 0.001231
9150.0 0.0012303
9170.0 0.0012262
9190.0 0.0012173
9210.0 0.0012365
9230.0 0.0012311
9250.0 0.0012279
9270.0 0.0012253
9290.0 0.0012229
9310.0 0.0012207
9330.0 0.0012186
9350.0 0.0012164
9370.0 0.0012142
9390.0 0.0012119
9410.0 0.0012095
9430.0 0.001207
9450.0 0.0012044
9470.0 0.0012017
9490.0 0.001199
9510.0 0.0011962
9530.0 0.0011933
9550.0 0.0011904
9570.0 0.0011874
9590.0 0.0011844
9610.0 0.0011813
9630.0 0.0011783
9650.0 0.0011752
9670.0 0.0011721
9690.0 0.001169
9710.0 0.0011659
9730.0 0.0011628
9750.0 0.0011597
9770.0 0.0011567
9790.0 0.0011537
9810.0 0.0011507
9830.0 0.0011477
9850.0 0.0011448
9870.0 0.0011419
9890.0 0.001139
9910.0 0.0011363
9930.0 0.0011335
9950.0 0.001129
9970.0 0.0011269
9990.0 0.0011249
10010.0 0.0011227
10030.0 0.0011204
10050.0 0.0011178
10070.0 0.001113
10090.0 0.0011117
10110.0 0.0011104
10130.0 0.0011088
10150.0 0.0011072
10170.0 0.0011055
10190.0 0.0011038
10210.0 0.0011021
10230.0 0.0011005
10250.0 0.0010989
10270.0 0.0010974
10290.0 0.001096
10310.0 0.0010946
10330.0 0.0010933
10350.0 0.0010921
10370.0 0.0010911
10390.0 0.00109
10410.0 0.001089
10430.0 0.0010882
10450.0 0.0010874
10470.0 0.0010867
10490.0 0.001086
10510.0 0.0010855
10530.0 0.0010849
10550.0 0.0010845
10570.0 0.0010842
10590.0 0.0010839
10610.0 0.0010837
10630.0 0.0010835
10650.0 0.0010835
10670.0 0.0010834
10690.0 0.0010835
10710.0 0.0010836
10730.0 0.0010838
10750.0 0.001084
10770.0 0.0010843
10790.0 0.0010846
10810.0 0.001085
10830.0 0.0010854
10850.0 0.0010858
10870.0 0.001086
10890.0 0.0010857
10910.0 0.0010848
10930.0 0.0010826
10950.0 0.0010783
10970.0 0.0010713
10990.0 0.0010615
11010.0 0.0010799
11030.0 0.0010611
11050.0 0.0010389
11070.0 0.0010133
11090.0 0.00098358
11110.0 0.00095394
11130.0 0.00092429
11150.0 0.00089392
11170.0 0.00086441
11190.0 0.00083754
11210.0 0.00081163
11230.0 0.00078698
11250.0 0.00076516
11270.0 0.00074568
11290.0 0.00072746
11310.0 0.00071123
11330.0 0.00069757
11350.0 0.00068493
11370.0 0.00067319
11390.0 0.00066262
11410.0 0.00065268
11430.0 0.00064234
11450.0 0.00063211
11470.0 0.0006219
11490.0 0.000611
11510.0 0.00059915
11530.0 0.00058722
11550.0 0.00057485
11570.0 0.00056144
11590.0 0.00054771
11610.0 0.00053414
11630.0 0.00051984
11650.0 0.00050508
11670.0 0.00049106
11690.0 0.00047721
11710.0 0.00046313
11730.0 0.00044957
11750.0 0.00043697
11770.0 0.00042432
11790.0 0.00041203
11810.0 0.00040067
11830.0 0.00038983
11850.0 0.00037891
11870.0 0.00036882
11890.0 0.00035948
11910.0 0.00035022
11930.0 0.00034118
11950.0 0.0003328
11970.0 0.00032457
11990.0 0.00031621
12010.0 0.00030829
12030.0 0.00030075
12050.0 0.00029318
12070.0 0.0002857
12090.0 0.000279
12110.0 0.00027257
12130.0 0.00026639
12150.0 0.00026093
12170.0 0.00025626
12190.0 0.00025205
12210.0 0.0002488
12230.0 0.00024666
12250.0 0.00024553
12270.0 0.00024553
12290.0 0.00024676
12310.0 0.00024911
12330.0 0.0002527
12350.0 0.00025744
12370.0 0.00026299
12390.0 0.00026944
12410.0 0.00027692
12430.0 0.0002845
12450.0 0.00029224
12470.0 0.00030025
12490.0 0.0003081
12510.0 0.00031532
12530.0 0.00032226
12550.0 0.00032876
12570.0 0.00033438
12590.0 0.00033925
12610.0 0.00034354
12630.0 0.00034703
12650.0 0.00034967
12670.0 0.0003517
12690.0 0.0003531
12710.0 0.0003539
12730.0 0.00035419
12750.0 0.00035395
12770.0 0.00035326
12790.0 0.00035223
12810.0 0.00035077
12830.0 0.00034886
12850.0 0.00034671
12870.0 0.00034422
12890.0 0.00034121
12910.0 0.00033784
12930.0 0.00033421
12950.0 0.00032998
12970.0 0.00032517
12990.0 0.00032021
13010.0 0.00031485
13030.0 0.0003089
13050.0 0.00030275
13070.0 0.00029663
13090.0 0.0002901
13110.0 0.00028346
13130.0 0.00027715
13150.0 0.00027102
13170.0 0.00026488
13190.0 0.00025943
13210.0 0.00025468
13230.0 0.00025038
13250.0 0.00024676
13270.0 0.000244
13290.0 0.0002419
13310.0 0.00024043
13330.0 0.00023968
13350.0 0.00023948
13370.0 0.00023969
13390.0 0.00024021
13410.0 0.00024088
13430.0 0.00024155
13450.0 0.00024211
13470.0 0.00024241
13490.0 0.0002424
13510.0 0.00024196
13530.0 0.00024109
13550.0 0.00023984
13570.0 0.00023821
13590.0 0.00023618
13610.0 0.00023398
13630.0 0.00023168
13650.0 0.00022921
13670.0 0.00022675
13690.0 0.00022445
13710.0 0.00022222
13730.0 0.00022005
13750.0 0.00021817
13770.0 0.00021646
13790.0 0.00021482
13810.0 0.0002133
13830.0 0.0002119
13850.0 0.00021047
13870.0 0.000209
13890.0 0.00020751
13910.0 0.00020595
13930.0 0.00020424
13950.0 0.00020244
13970.0 0.00020064
13990.0 0.00019874
14010.0 0.0001968
14030.0 0.00019494
14050.0 0.00019315
14070.0 0.00019139
14090.0 0.00018982
14110.0 0.00018845
14130.0 0.00018723
14150.0 0.00018621
14170.0 0.00018542
14190.0 0.00018482
14210.0 0.00018442
14230.0 0.00018422
14250.0 0.00018419
14270.0 0.00018437
14290.0 0.00018477
14310.0 0.00018531
14330.0 0.00018603
14350.0 0.00018696
14370.0 0.00018802
14390.0 0.00018915
14410.0 0.00019045
14430.0 0.00019184
14450.0 0.0001932
14470.0 0.00019459
14490.0 0.00019606
14510.0 0.00019744
14530.0 0.00019876
14550.0 0.00020013
14570.0 0.00020153
14590.0 0.00020291
14610.0 0.00020441
14630.0 0.00020615
14650.0 0.00020802
14670.0 0.00021007
14690.0 0.00021251
14710.0 0.00021533
14730.0 0.00021828
14750.0 0.00022164
14770.0 0.00022544
14790.0 0.00022943
14810.0 0.00023355
14830.0 0.00023819
14850.0 0.00024286
14870.0 0.00024736
14890.0 0.00025186
14910.0 0.00025626
14930.0 0.00026012
14950.0 0.0002634
14970.0 0.00026622
14990.0 0.00026825
15010.0 0.00026947
15030.0 0.00027002
15050.0 0.00026997
15070.0 0.00026938
15090.0 0.00026845
15110.0 0.0002673
15130.0 0.000266
15150.0 0.00026465
15170.0 0.00026324
15190.0 0.00026181
15210.0 0.0002604
15230.0 0.00025899
15250.0 0.00025755
15270.0 0.00025612
15290.0 0.00025473
15310.0 0.00025332
15330.0 0.0002519
15350.0 0.00025051
15370.0 0.00024912
15390.0 0.00024771
15410.0 0.00024632
15430.0 0.00024495
15450.0 0.00024356
15470.0 0.00024217
15490.0 0.00024082
15510.0 0.00023946
15530.0 0.00023809
15550.0 0.00023674
15570.0 0.00023541
15590.0 0.00023406
15610.0 0.00023271
15630.0 0.0002314
15650.0 0.00023008
15670.0 0.00022875
15690.0 0.00022745
15710.0 0.00022616
15730.0 0.00022486
15750.0 0.00022357
15770.0 0.0002223
15790.0 0.00022103
15810.0 0.00021974
15830.0 0.00021848
15850.0 0.00021725
15870.0 0.000216
15890.0 0.00021475
15910.0 0.00021354
15930.0 0.00021232
15950.0 0.00021109
15970.0 0.00020989
15990.0 0.0002087
16010.0 0.0002075
16030.0 0.0002063
16050.0 0.00020514
16070.0 0.00020398
16090.0 0.0002028
16110.0 0.00020166
16130.0 0.00020053
16150.0 0.00019937
16170.0 0.00019823
16190.0 0.00019712
16210.0 0.00019601
16230.0 0.00019488
16250.0 0.00019379
16270.0 0.00019271
16290.0 0.00019162
16310.0 0.00019053
16330.0 0.00018948
16350.0 0.00018841
16370.0 0.00018733
16390.0 0.00018629
16410.0 0.00018526
16430.0 0.00018422
16450.0 0.00018319
16470.0 0.00018219
16490.0 0.00018117
16510.0 0.00018015
16530.0 0.00017916
16550.0 0.00017817
16570.0 0.00017717
16590.0 0.00017619
16610.0 0.00017523
16630.0 0.00017427
16650.0 0.0001733
16670.0 0.00017236
16690.0 0.00017142
16710.0 0.00017046
16730.0 0.00016953
16750.0 0.00016861
16770.0 0.00016769
16790.0 0.00016676
16810.0 0.00016587
16830.0 0.00016497
16850.0 0.00016407
16870.0 0.00016318
16890.0 0.00016231
16910.0 0.00016142
16930.0 0.00016053
16950.0 0.00015968
16970.0 0.00015882
16990.0 0.00015795
17010.0 0.0001571
17030.0 0.00015627
17050.0 0.00015543
17070.0 0.00015458
17090.0 0.00015376
17110.0 0.00015294
17130.0 0.0001521
17150.0 0.00015129
17170.0 0.0001505
17190.0 0.00014969
17210.0 0.00014888
17230.0 0.0001481
17250.0 0.00014731
17270.0 0.00014651
17290.0 0.00014574
17310.0 0.00014497
17330.0 0.00014419
17350.0 0.00014341
17370.0 0.00014266
17390.0 0.00014191
17410.0 0.00014114
17430.0 0.0001404
17450.0 0.00013967
17470.0 0.00013891
17490.0 0.00013816
17510.0 0.00013744
17530.0 0.00013671
17550.0 0.00013598
17570.0 0.00013526
17590.0 0.00013456
17610.0 0.00013383
17630.0 0.00013312
17650.0 0.00013243
17670.0 0.00013172
17690.0 0.000131
17710.0 0.00013032
17730.0 0.00012964
17750.0 0.00012894
17770.0 0.00012825
17790.0 0.00012759
17810.0 0.00012691
17830.0 0.00012622
17850.0 0.00012556
17870.0 0.0001249
17890.0 0.00012422
17910.0 0.00012355
17930.0 0.00012291
17950.0 0.00012225
17970.0 0.00012159
17990.0 0.00012096
18010.0 0.00012032
18030.0 0.00011966
18050.0 0.00011902
18070.0 0.0001184
18090.0 0.00011776
18110.0 0.00011712
18130.0 0.0001165
18150.0 0.00011589
18170.0 0.00011525
18190.0 0.00011464
18210.0 0.00011404
18230.0 0.00011341
18250.0 0.00011279
18270.0 0.0001122
18290.0 0.0001116
18310.0 0.00011098
18330.0 0.00011039
18350.0 0.00010981
18370.0 0.00010921
18390.0 0.00010861
18410.0 0.00010803
18430.0 0.00010745
18450.0 0.00010685
18470.0 0.00010627
18490.0 0.00010571
18510.0 0.00010513
18530.0 0.00010455
18550.0 0.00010399
18570.0 0.00010343
18590.0 0.00010285
18610.0 0.00010229
18630.0 0.00010174
18650.0 0.00010117
18670.0 0.00010061
18690.0 0.00010007
18710.0 9.9522e-05
18730.0 9.8966e-05
18750.0 9.8426e-05
18770.0 9.7896e-05
18790.0 9.7337e-05
18810.0 9.6794e-05
18830.0 9.627e-05
18850.0 9.5735e-05
18870.0 9.5193e-05
18890.0 9.4673e-05
18910.0 9.4156e-05
18930.0 9.3621e-05
18950.0 9.3096e-05
18970.0 9.2587e-05
18990.0 9.2067e-05
19010.0 9.1531e-05
19030.0 9.1029e-05
19050.0 9.0525e-05
19070.0 9.0007e-05
19090.0 8.9499e-05
19110.0 8.901e-05
19130.0 8.8499e-05
19150.0 8.7988e-05
19170.0 8.7496e-05
19190.0 8.7005e-05
19210.0 8.6497e-05
19230.0 8.6e-05
19250.0 8.5525e-05
19270.0 8.5033e-05
19290.0 8.4539e-05
19310.0 8.4064e-05
19330.0 8.3588e-05
19350.0 8.3088e-05
19370.0 8.261e-05
19390.0 8.2143e-05
19410.0 8.1662e-05
19430.0 8.1179e-05
19450.0 8.072e-05
19470.0 8.0255e-05
19490.0 7.9777e-05
19510.0 7.9313e-05
19530.0 7.886e-05
19550.0 7.8387e-05
19570.0 7.7914e-05
19590.0 7.7467e-05
19610.0 7.7012e-05
19630.0 7.6547e-05
19650.0 7.6098e-05
19670.0 7.5658e-05
19690.0 7.5198e-05
19710.0 7.4743e-05
19730.0 7.4305e-05
19750.0 7.3861e-05
19770.0 7.34e-05
19790.0 7.2962e-05
19810.0 7.2531e-05
19830.0 7.2083e-05
19850.0 7.1635e-05
19870.0 7.1198e-05
19890.0 7.0729e-05
19910.0 7.0215e-05
19930.0 6.9671e-05
19950.0 6.9054e-05
19970.0 6.8305e-05
19990.0 6.7419e-05
20010.0 6.6437e-05
20030.0 6.5276e-05
20050.0 6.3961e-05
20070.0 6.259e-05
20090.0 6.1174e-05
20110.0 5.9643e-05
20130.0 5.8174e-05
20150.0 5.6793e-05
20170.0 5.5434e-05
20190.0 5.413e-05
20210.0 5.2965e-05
20230.0 5.1886e-05
20250.0 5.0861e-05
20270.0 4.9963e-05
20290.0 4.9191e-05
20310.0 4.8503e-05
20330.0 4.7911e-05
20350.0 4.7473e-05
20370.0 4.7138e-05
20390.0 4.6912e-05
20410.0 4.681e-05
20430.0 4.6825e-05
20450.0 4.6959e-05
20470.0 4.722e-05
20490.0 4.7588e-05
20510.0 4.8068e-05
20530.0 4.8679e-05
20550.0 4.9379e-05
20570.0 5.0141e-05
20590.0 5.1012e-05
20610.0 5.1952e-05
20630.0 5.2907e-05
20650.0 5.3901e-05
20670.0 5.4959e-05
20690.0 5.5965e-05
20710.0 5.6931e-05
20730.0 5.7887e-05
20750.0 5.8792e-05
20770.0 5.9594e-05
20790.0 6.0345e-05
20810.0 6.1041e-05
20830.0 6.1644e-05
20850.0 6.2171e-05
20870.0 6.2657e-05
20890.0 6.3086e-05
20910.0 6.3448e-05
20930.0 6.3783e-05
20950.0 6.4092e-05
20970.0 6.4366e-05
20990.0 6.4613e-05
21010.0 6.4845e-05
21030.0 6.5046e-05
21050.0 6.5209e-05
21070.0 6.5338e-05
21090.0 6.5427e-05
21110.0 6.5463e-05
21130.0 6.5452e-05
21150.0 6.5387e-05
21170.0 6.5271e-05
21190.0 6.5112e-05
21210.0 6.4902e-05
21230.0 6.4645e-05
21250.0 6.4365e-05
21270.0 6.4061e-05
21290.0 6.3728e-05
21310.0 6.3386e-05
21330.0 6.3057e-05
21350.0 6.272e-05
21370.0 6.2389e-05
21390.0 6.2085e-05
21410.0 6.1804e-05
21430.0 6.1532e-05
21450.0 6.1302e-05
21470.0 6.111e-05
21490.0 6.0946e-05
21510.0 6.0818e-05
21530.0 6.0732e-05
21550.0 6.0682e-05
21570.0 6.067e-05
21590.0 6.07e-05
21610.0 6.0767e-05
21630.0 6.0878e-05
21650.0 6.1037e-05
21670.0 6.1229e-05
21690.0 6.1466e-05
21710.0 6.1755e-05
21730.0 6.2085e-05
21750.0 6.2448e-05
21770.0 6.288e-05
21790.0 6.336e-05
21810.0 6.3869e-05
21830.0 6.4428e-05
21850.0 6.5053e-05
21870.0 6.5706e-05
21890.0 6.6375e-05
21910.0 6.7109e-05
21930.0 6.7875e-05
21950.0 6.8639e-05
21970.0 6.9435e-05
21990.0 7.0283e-05
22010.0 7.1096e-05
22030.0 7.1896e-05
22050.0 7.271e-05
22070.0 7.3502e-05
22090.0 7.4227e-05
22110.0 7.493e-05
22130.0 7.5597e-05
22150.0 7.6182e-05
22170.0 7.6688e-05
22190.0 7.7134e-05
22210.0 7.748e-05
22230.0 7.7712e-05
22250.0 7.7847e-05
22270.0 7.7867e-05
22290.0 7.7772e-05
22310.0 7.7564e-05
22330.0 7.7219e-05
22350.0 7.6754e-05
22370.0 7.6187e-05
22390.0 7.5492e-05
22410.0 7.4658e-05
22430.0 7.3761e-05
22450.0 7.2779e-05
22470.0 7.1673e-05
22490.0 7.0504e-05
22510.0 6.9316e-05
22530.0 6.8025e-05
22550.0 6.6669e-05
22570.0 6.5343e-05
22590.0 6.4003e-05
22610.0 6.2613e-05
22630.0 6.1247e-05
22650.0 5.9954e-05
22670.0 5.8637e-05
22690.0 5.7339e-05
22710.0 5.6125e-05
22730.0 5.4959e-05
22750.0 5.3778e-05
22770.0 5.27e-05
22790.0 5.171e-05
22810.0 5.0751e-05
22830.0 4.9849e-05
22850.0 4.9052e-05
22870.0 4.8312e-05
22890.0 4.7617e-05
22910.0 4.7017e-05
22930.0 4.6503e-05
22950.0 4.605e-05
22970.0 4.5672e-05
