#lamb flux
1010.0 1.9058e-05
1030.0 1.9408e-05
1050.0 2.0862e-05
1070.0 2.2438e-05
1090.0 2.4134e-05
1110.0 2.566e-05
1130.0 2.6993e-05
1150.0 2.8265e-05
1170.0 2.9456e-05
1190.0 3.0395e-05
1210.0 3.129e-05
1230.0 3.2211e-05
1250.0 3.3071e-05
1270.0 3.3895e-05
1290.0 3.4885e-05
1310.0 3.5953e-05
1330.0 3.7054e-05
1350.0 3.8321e-05
1370.0 3.9818e-05
1390.0 4.147e-05
1410.0 4.33e-05
1430.0 4.5471e-05
1450.0 4.7938e-05
1470.0 5.0668e-05
1490.0 5.3779e-05
1510.0 5.74e-05
1530.0 6.1351e-05
1550.0 6.5747e-05
1570.0 7.0727e-05
1590.0 7.6264e-05
1610.0 8.2279e-05
1630.0 8.8977e-05
1650.0 9.6388e-05
1670.0 0.00010438
1690.0 0.00011299
1710.0 0.00012239
1730.0 0.00013247
1750.0 0.00014297
1770.0 0.00015413
1790.0 0.00016588
1810.0 0.00017793
1830.0 0.00019022
1850.0 0.00020296
1870.0 0.00021567
1890.0 0.00022816
1910.0 0.0002405
1930.0 0.00025259
1950.0 0.00026393
1970.0 0.00027451
1990.0 0.00028449
2010.0 0.00029345
2030.0 0.0003012
2050.0 0.00030801
2070.0 0.00031382
2090.0 0.00031814
2110.0 0.00032129
2130.0 0.00032345
2150.0 0.00032442
2170.0 0.00032415
2190.0 0.00032313
2210.0 0.00032129
2230.0 0.00031851
2250.0 0.00031509
2270.0 0.00031136
2290.0 0.00030706
2310.0 0.00030229
2330.0 0.00029746
2350.0 0.00029256
2370.0 0.00028751
2390.0 0.00028261
2410.0 0.00027811
2430.0 0.00027383
2450.0 0.00026992
2470.0 0.00026672
2490.0 0.00026438
2510.0 0.00026276
2530.0 0.00026268
2550.0 0.00026518
2570.0 0.00027114
2590.0 0.00028175
2610.0 0.00030052
2630.0 0.00032819
2650.0 0.00036348
2670.0 0.0004075
2690.0 0.00045976
2710.0 0.0005144
2730.0 0.00056902
2750.0 0.00062597
2770.0 0.00068173
2790.0 0.00073526
2810.0 0.00079029
2830.0 0.00085022
2850.0 0.00091053
2870.0 0.00097432
2890.0 0.0010444
2910.0 0.0011189
2930.0 0.0011952
2950.0 0.0012781
2970.0 0.001367
2990.0 0.0014583
3010.0 0.0015535
3030.0 0.0016557
3050.0 0.0017617
3070.0 0.0018661
3090.0 0.0019718
3110.0 0.002073
3130.0 0.0021615
3150.0 0.002233
3170.0 0.0022814
3190.0 0.0023037
3210.0 0.0023057
3230.0 0.0022926
3250.0 0.0022758
3270.0 0.0022709
3290.0 0.0022811
3310.0 0.0023074
3330.0 0.0023504
3350.0 0.0024039
3370.0 0.0024675
3390.0 0.0025505
3410.0 0.0026227
3430.0 0.0026934
3450.0 0.0027636
3470.0 0.0028477
3490.0 0.0030569
3510.0 0.0035617
3530.0 0.0042779
3550.0 0.0049402
3570.0 0.0053833
3590.0 0.0056049
3610.0 0.0055775
3630.0 0.005429
3650.0 0.0058434
3670.0 0.0068837
3690.0 0.0077704
3710.0 0.0083261
3730.0 0.0088268
3750.0 0.0093297
3770.0 0.0092068
3790.0 0.0086231
3810.0 0.0080389
3830.0 0.0075151
3850.0 0.0074512
3870.0 0.0080866
3890.0 0.0087816
3910.0 0.0092475
3930.0 0.0096579
3950.0 0.010663
3970.0 0.011536
3990.0 0.011016
4010.0 0.0096442
4030.0 0.0084193
4050.0 0.0080572
4070.0 0.0081405
4090.0 0.0080456
4110.0 0.0079013
4130.0 0.0077838
4150.0 0.0078356
4170.0 0.0084438
4190.0 0.0092467
4210.0 0.0091923
4230.0 0.0087724
4250.0 0.008617
4270.0 0.0087235
4290.0 0.0092057
4310.0 0.0096788
4330.0 0.0092291
4350.0 0.0080034
4370.0 0.0070003
4390.0 0.0062429
4410.0 0.0055982
4430.0 0.0055526
4450.0 0.0059967
4470.0 0.0063855
4490.0 0.0068839
4510.0 0.0078861
4530.0 0.01007
4550.0 0.013069
4570.0 0.014907
4590.0 0.015926
4610.0 0.017685
4630.0 0.019058
4650.0 0.017917
4670.0 0.014745
4690.0 0.011993
4710.0 0.010719
4730.0 0.010307
4750.0 0.0095688
4770.0 0.0089267
4790.0 0.0093973
4810.0 0.010293
4830.0 0.010448
4850.0 0.0098021
4870.0 0.0096372
4890.0 0.010355
4910.0 0.01103
4930.0 0.011166
4950.0 0.010829
4970.0 0.01012
4990.0 0.0090975
5010.0 0.008202
5030.0 0.0076666
5050.0 0.0073978
5070.0 0.0071795
5090.0 0.006928
5110.0 0.0068354
5130.0 0.0068474
5150.0 0.0071021
5170.0 0.0078649
5190.0 0.0088985
5210.0 0.010091
5230.0 0.010938
5250.0 0.011426
5270.0 0.012095
5290.0 0.012925
5310.0 0.013306
5330.0 0.012907
5350.0 0.012222
5370.0 0.012198
5390.0 0.013066
5410.0 0.014298
5430.0 0.015184
5450.0 0.015523
5470.0 0.015376
5490.0 0.014911
5510.0 0.014545
5530.0 0.014424
5550.0 0.01445
5570.0 0.01441
5590.0 0.014124
5610.0 0.013598
5630.0 0.012737
5650.0 0.011694
5670.0 0.011008
5690.0 0.010757
5710.0 0.010681
5730.0 0.010637
5750.0 0.0105
5770.0 0.010343
5790.0 0.010383
5810.0 0.010423
5830.0 0.010511
5850.0 0.010604
5870.0 0.010419
5890.0 0.010032
5910.0 0.0094843
5930.0 0.0085737
5950.0 0.0077407
5970.0 0.0074608
5990.0 0.0076561
6010.0 0.0078127
6030.0 0.0075576
6050.0 0.0072758
6070.0 0.007549
6090.0 0.0081856
6110.0 0.0085704
6130.0 0.0083907
6150.0 0.0079394
6170.0 0.0076168
6190.0 0.0073425
6210.0 0.0069207
6230.0 0.0063968
6250.0 0.0060968
6270.0 0.0061614
6290.0 0.0063134
6310.0 0.0066506
6330.0 0.007248
6350.0 0.0079326
6370.0 0.0083389
6390.0 0.0084831
6410.0 0.0086161
6430.0 0.008731
6450.0 0.0088676
6470.0 0.0090625
6490.0 0.0092689
6510.0 0.0094371
6530.0 0.0094795
6550.0 0.0094085
6570.0 0.0091344
6590.0 0.008667
6610.0 0.00832
6630.0 0.008129
6650.0 0.0078695
6670.0 0.0074978
6690.0 0.0071708
6710.0 0.0070081
6730.0 0.0069026
6750.0 0.0067841
6770.0 0.0066831
6790.0 0.0065872
6810.0 0.0064293
6830.0 0.0063199
6850.0 0.006456
6870.0 0.0065666
6890.0 0.0064874
6910.0 0.0063613
6930.0 0.0062528
6950.0 0.0061093
6970.0 0.0058757
6990.0 0.005652
7010.0 0.0055417
7030.0 0.0054693
7050.0 0.0052724
7070.0 0.0049848
7090.0 0.0048884
7110.0 0.0050543
7130.0 0.0053846
7150.0 0.0057156
7170.0 0.0059395
7190.0 0.0059292
7210.0 0.0056875
7230.0 0.0055274
7250.0 0.0055595
7270.0 0.0055464
7290.0 0.0054998
7310.0 0.0055636
7330.0 0.0057528
7350.0 0.0060046
7370.0 0.006161
7390.0 0.0061791
7410.0 0.0060951
7430.0 0.0059112
7450.0 0.0056747
7470.0 0.0054441
7490.0 0.0052563
7510.0 0.0051017
7530.0 0.0050307
7550.0 0.0050528
7570.0 0.0050906
7590.0 0.0051433
7610.0 0.0051319
7630.0 0.0051043
7650.0 0.0051893
7670.0 0.0053496
7690.0 0.0055206
7710.0 0.0056865
7730.0 0.0058297
7750.0 0.0059956
7770.0 0.0061416
7790.0 0.0062495
7810.0 0.0062834
7830.0 0.006222
7850.0 0.0060459
7870.0 0.0057661
7890.0 0.0054803
7910.0 0.0053219
7930.0 0.005224
7950.0 0.0051075
7970.0 0.005018
7990.0 0.0050121
8010.0 0.0047545
8030.0 0.0047057
8050.0 0.0046459
8070.0 0.0045668
8090.0 0.0044886
8110.0 0.0044765
8130.0 0.0044896
8150.0 0.0044635
8170.0 0.0044206
8190.0 0.0042937
8210.0 0.00404
8230.0 0.0037805
8250.0 0.0036378
8270.0 0.0035081
8290.0 0.0033397
8310.0 0.0032198
8330.0 0.0031599
8350.0 0.0030712
8370.0 0.0030592
8390.0 0.0031921
8410.0 0.0033881
8430.0 0.0036238
8450.0 0.0038849
8470.0 0.004059
8490.0 0.0042236
8510.0 0.0043584
8530.0 0.0044896
8550.0 0.0046058
8570.0 0.0046866
8590.0 0.004754
8610.0 0.0048682
8630.0 0.0049073
8650.0 0.0048089
8670.0 0.0048096
8690.0 0.0049103
8710.0 0.0050247
8730.0 0.0050309
8750.0 0.0049183
8770.0 0.0048801
8790.0 0.0048583
8810.0 0.004759
8830.0 0.0044288
8850.0 0.0040226
8870.0 0.0037311
8890.0 0.0035951
8910.0 0.0034176
8930.0 0.0031751
8950.0 0.0030013
8970.0 0.0029609
8990.0 0.0029906
9010.0 0.0029897
9030.0 0.0029653
9050.0 0.0029439
9070.0 0.002927
9090.0 0.002911
9110.0 0.0028952
9130.0 0.0028794
9150.0 0.0028637
9170.0 0.0028481
9190.0 0.0028328
9210.0 0.0028176
9230.0 0.0028023
9250.0 0.0027871
9270.0 0.0027721
9290.0 0.0027571
9310.0 0.0027423
9330.0 0.0027276
9350.0 0.002713
9370.0 0.0026985
9390.0 0.0026842
9410.0 0.0026699
9430.0 0.0026553
9450.0 0.0026394
9470.0 0.0026241
9490.0 0.0026119
9510.0 0.0025989
9530.0 0.0025859
9550.0 0.0025725
9570.0 0.0025591
9590.0 0.0025459
9610.0 0.0025326
9630.0 0.0025193
9650.0 0.0025061
9670.0 0.0024932
9690.0 0.0024801
9710.0 0.0024671
9730.0 0.0024544
9750.0 0.0024416
9770.0 0.0024287
9790.0 0.002416
9810.0 0.0024035
9830.0 0.0023908
9850.0 0.0023774
9870.0 0.0023652
9890.0 0.0023531
9910.0 0.0023407
9930.0 0.0023285
9950.0 0.0023159
9970.0 0.0023036
9990.0 0.0022911
10010.0 0.0022778
10030.0 0.0022651
10050.0 0.0022535
10070.0 0.0022418
10090.0 0.0022301
10110.0 0.0022171
10130.0 0.0021997
10150.0 0.0021884
10170.0 0.0021781
10190.0 0.0021665
10210.0 0.0021551
10230.0 0.0021436
10250.0 0.0021311
10270.0 0.0021187
10290.0 0.0021067
10310.0 0.002094
10330.0 0.0020808
10350.0 0.0020683
10370.0 0.0020558
10390.0 0.0020426
10410.0 0.0020295
10430.0 0.0020171
10450.0 0.002004
10470.0 0.0019905
10490.0 0.0019775
10510.0 0.0019645
10530.0 0.0019504
10550.0 0.0019367
10570.0 0.0019235
10590.0 0.0019097
10610.0 0.0018956
10630.0 0.001882
10650.0 0.0018682
10670.0 0.0018536
10690.0 0.0018392
10710.0 0.0018252
10730.0 0.0018105
10750.0 0.0017951
10770.0 0.0017808
10790.0 0.0017661
10810.0 0.0017507
10830.0 0.0017356
10850.0 0.0017209
10870.0 0.001705
10890.0 0.0016891
10910.0 0.0016738
10930.0 0.0016583
10950.0 0.0016422
10970.0 0.0016266
10990.0 0.0016117
11010.0 0.0015361
11030.0 0.0015199
11050.0 0.0015047
11070.0 0.0014899
11090.0 0.0014749
11110.0 0.0014613
11130.0 0.0014485
11150.0 0.001436
11170.0 0.0014242
11190.0 0.0014138
11210.0 0.001404
11230.0 0.0013948
11250.0 0.0013868
11270.0 0.0013797
11290.0 0.0013732
11310.0 0.0013674
11330.0 0.0013626
11350.0 0.0013583
11370.0 0.0013542
11390.0 0.0013507
11410.0 0.0013473
11430.0 0.0013438
11450.0 0.0013402
11470.0 0.0013365
11490.0 0.0013324
11510.0 0.0013278
11530.0 0.0013228
11550.0 0.0013172
11570.0 0.0013108
11590.0 0.0013037
11610.0 0.001296
11630.0 0.0012873
11650.0 0.0012774
11670.0 0.001267
11690.0 0.0012557
11710.0 0.001243
11730.0 0.0012294
11750.0 0.0012153
11770.0 0.0011997
11790.0 0.0011829
11810.0 0.0011657
11830.0 0.0011476
11850.0 0.0011279
11870.0 0.001108
11890.0 0.0010884
11910.0 0.0010678
11930.0 0.0010469
11950.0 0.0010269
11970.0 0.001007
11990.0 0.00098667
12010.0 0.00096745
12030.0 0.00094929
12050.0 0.00093135
12070.0 0.00091391
12090.0 0.00089833
12110.0 0.00088339
12130.0 0.000869
12150.0 0.00085589
12170.0 0.00084408
12190.0 0.00083268
12210.0 0.00082252
12230.0 0.00081381
12250.0 0.00080613
12270.0 0.00079945
12290.0 0.00079412
12310.0 0.00078998
12330.0 0.00078678
12350.0 0.0007846
12370.0 0.00078334
12390.0 0.00078282
12410.0 0.00078306
12430.0 0.00078378
12450.0 0.00078487
12470.0 0.00078636
12490.0 0.00078806
12510.0 0.00078975
12530.0 0.00079156
12550.0 0.00079338
12570.0 0.00079497
12590.0 0.00079629
12610.0 0.00079738
12630.0 0.000798
12650.0 0.000798
12670.0 0.00079741
12690.0 0.00079608
12710.0 0.00079396
12730.0 0.00079104
12750.0 0.00078711
12770.0 0.00078233
12790.0 0.00077683
12810.0 0.00077047
12830.0 0.00076325
12850.0 0.00075574
12870.0 0.00074785
12890.0 0.00073941
12910.0 0.00073089
12930.0 0.00072256
12950.0 0.00071402
12970.0 0.00070549
12990.0 0.00069754
13010.0 0.00068985
13030.0 0.00068225
13050.0 0.00067508
13070.0 0.00066844
13090.0 0.00066188
13110.0 0.00065559
13130.0 0.00064976
13150.0 0.0006442
13170.0 0.0006387
13190.0 0.00063362
13210.0 0.00062892
13230.0 0.00062435
13250.0 0.00062
13270.0 0.00061601
13290.0 0.00061218
13310.0 0.00060842
13330.0 0.00060487
13350.0 0.00060147
13370.0 0.00059803
13390.0 0.00059452
13410.0 0.00059111
13430.0 0.00058754
13450.0 0.00058372
13470.0 0.00057976
13490.0 0.00057567
13510.0 0.00057111
13530.0 0.0005663
13550.0 0.00056138
13570.0 0.00055615
13590.0 0.00055054
13610.0 0.00054487
13630.0 0.00053917
13650.0 0.0005331
13670.0 0.00052698
13690.0 0.00052098
13710.0 0.00051488
13730.0 0.0005085
13750.0 0.00050248
13770.0 0.00049655
13790.0 0.00049051
13810.0 0.00048457
13830.0 0.00047897
13850.0 0.0004733
13870.0 0.00046767
13890.0 0.00046237
13910.0 0.0004573
13930.0 0.00045225
13950.0 0.00044746
13970.0 0.00044314
13990.0 0.00043895
14010.0 0.00043496
14030.0 0.00043136
14050.0 0.00042803
14070.0 0.00042476
14090.0 0.00042181
14110.0 0.00041912
14130.0 0.00041654
14150.0 0.00041405
14170.0 0.00041179
14190.0 0.00040963
14210.0 0.00040747
14230.0 0.0004054
14250.0 0.00040343
14270.0 0.00040142
14290.0 0.0003994
14310.0 0.00039749
14330.0 0.00039557
14350.0 0.0003936
14370.0 0.00039167
14390.0 0.00038981
14410.0 0.00038789
14430.0 0.00038598
14450.0 0.00038416
14470.0 0.00038236
14490.0 0.00038051
14510.0 0.00037877
14530.0 0.00037709
14550.0 0.00037537
14570.0 0.00037362
14590.0 0.00037191
14610.0 0.00037013
14630.0 0.00036819
14650.0 0.00036627
14670.0 0.00036433
14690.0 0.0003623
14710.0 0.0003603
14730.0 0.00035854
14750.0 0.00035697
14770.0 0.00035568
14790.0 0.0003549
14810.0 0.00035469
14830.0 0.00035516
14850.0 0.00035645
14870.0 0.00035852
14890.0 0.0003614
14910.0 0.0003651
14930.0 0.00036923
14950.0 0.00037355
14970.0 0.00037804
14990.0 0.00038218
15010.0 0.00038569
15030.0 0.00038863
15050.0 0.00039095
15070.0 0.00039256
15090.0 0.00039373
15110.0 0.00039459
15130.0 0.00039526
15150.0 0.00039582
15170.0 0.00039633
15190.0 0.00039682
15210.0 0.00039731
15230.0 0.00039782
15250.0 0.00039833
15270.0 0.00039885
15290.0 0.00039939
15310.0 0.00039995
15330.0 0.00040051
15350.0 0.00040109
15370.0 0.00040168
15390.0 0.00040227
15410.0 0.00040288
15430.0 0.00040351
15450.0 0.00040414
15470.0 0.00040478
15490.0 0.00040544
15510.0 0.00040612
15530.0 0.00040679
15550.0 0.00040748
15570.0 0.00040819
15590.0 0.00040889
15610.0 0.00040961
15630.0 0.00041034
15650.0 0.00041109
15670.0 0.00041183
15690.0 0.00041259
15710.0 0.00041337
15730.0 0.00041414
15750.0 0.00041493
15770.0 0.00041573
15790.0 0.00041653
15810.0 0.00041734
15830.0 0.00041816
15850.0 0.00041899
15870.0 0.00041983
15890.0 0.00042067
15910.0 0.00042152
15930.0 0.00042238
15950.0 0.00042324
15970.0 0.00042411
15990.0 0.00042499
16010.0 0.00042587
16030.0 0.00042675
16050.0 0.00042765
16070.0 0.00042855
16090.0 0.00042945
16110.0 0.00043036
16130.0 0.00043128
16150.0 0.00043219
16170.0 0.00043311
16190.0 0.00043404
16210.0 0.00043496
16230.0 0.00043589
16250.0 0.00043683
16270.0 0.00043777
16290.0 0.0004387
16310.0 0.00043964
16330.0 0.00044058
16350.0 0.00044153
16370.0 0.00044246
16390.0 0.00044341
16410.0 0.00044436
16430.0 0.0004453
16450.0 0.00044625
16470.0 0.0004472
16490.0 0.00044814
16510.0 0.00044908
16530.0 0.00045002
16550.0 0.00045096
16570.0 0.00045189
16590.0 0.00045283
16610.0 0.00045376
16630.0 0.00045469
16650.0 0.00045561
16670.0 0.00045654
16690.0 0.00045746
16710.0 0.00045837
16730.0 0.00045928
16750.0 0.00046018
16770.0 0.00046108
16790.0 0.00046197
16810.0 0.00046286
16830.0 0.00046374
16850.0 0.00046461
16870.0 0.00046547
16890.0 0.00046634
16910.0 0.00046718
16930.0 0.00046802
16950.0 0.00046886
16970.0 0.00046969
16990.0 0.0004705
17010.0 0.00047131
17030.0 0.00047211
17050.0 0.00047289
17070.0 0.00047366
17090.0 0.00047443
17110.0 0.00047519
17130.0 0.00047592
17150.0 0.00047665
17170.0 0.00047737
17190.0 0.00047808
17210.0 0.00047877
17230.0 0.00047945
17250.0 0.00048012
17270.0 0.00048076
17290.0 0.0004814
17310.0 0.00048203
17330.0 0.00048263
17350.0 0.00048322
17370.0 0.00048381
17390.0 0.00048437
17410.0 0.00048491
17430.0 0.00048544
17450.0 0.00048596
17470.0 0.00048645
17490.0 0.00048692
17510.0 0.00048738
17530.0 0.00048783
17550.0 0.00048825
17570.0 0.00048865
17590.0 0.00048904
17610.0 0.00048941
17630.0 0.00048976
17650.0 0.00049009
17670.0 0.0004904
17690.0 0.00049068
17710.0 0.00049095
17730.0 0.0004912
17750.0 0.00049142
17770.0 0.00049163
17790.0 0.00049182
17810.0 0.00049198
17830.0 0.00049211
17850.0 0.00049223
17870.0 0.00049233
17890.0 0.0004924
17910.0 0.00049245
17930.0 0.00049249
17950.0 0.00049249
17970.0 0.00049247
17990.0 0.00049243
18010.0 0.00049237
18030.0 0.00049228
18050.0 0.00049217
18070.0 0.00049204
18090.0 0.00049187
18110.0 0.00049169
18130.0 0.00049148
18150.0 0.00049125
18170.0 0.00049099
18190.0 0.00049071
18210.0 0.00049041
18230.0 0.00049007
18250.0 0.00048971
18270.0 0.00048934
18290.0 0.00048893
18310.0 0.0004885
18330.0 0.00048804
18350.0 0.00048756
18370.0 0.00048705
18390.0 0.00048652
18410.0 0.00048596
18430.0 0.00048538
18450.0 0.00048477
18470.0 0.00048414
18490.0 0.00048348
18510.0 0.0004828
18530.0 0.00048208
18550.0 0.00048136
18570.0 0.0004806
18590.0 0.00047981
18610.0 0.000479
18630.0 0.00047817
18650.0 0.0004773
18670.0 0.00047642
18690.0 0.00047551
18710.0 0.00047458
18730.0 0.00047362
18750.0 0.00047264
18770.0 0.00047164
18790.0 0.0004706
18810.0 0.00046954
18830.0 0.00046847
18850.0 0.00046736
18870.0 0.00046623
18890.0 0.00046509
18910.0 0.00046392
18930.0 0.00046272
18950.0 0.0004615
18970.0 0.00046026
18990.0 0.00045899
19010.0 0.0004577
19030.0 0.00045639
19050.0 0.00045507
19070.0 0.00045371
19090.0 0.00045234
19110.0 0.00045095
19130.0 0.00044953
19150.0 0.00044809
19170.0 0.00044663
19190.0 0.00044515
19210.0 0.00044365
19230.0 0.00044213
19250.0 0.0004406
19270.0 0.00043904
19290.0 0.00043746
19310.0 0.00043587
19330.0 0.00043426
19350.0 0.00043262
19370.0 0.00043097
19390.0 0.00042931
19410.0 0.00042762
19430.0 0.00042592
19450.0 0.0004242
19470.0 0.00042247
19490.0 0.00042072
19510.0 0.00041895
19530.0 0.00041717
19550.0 0.00041537
19570.0 0.00041356
19590.0 0.00041174
19610.0 0.0004099
19630.0 0.00040804
19650.0 0.00040617
19670.0 0.0004043
19690.0 0.0004024
19710.0 0.00040049
19730.0 0.00039857
19750.0 0.00039664
19770.0 0.0003947
19790.0 0.00039275
19810.0 0.00039078
19830.0 0.0003888
19850.0 0.00038679
19870.0 0.00038475
19890.0 0.00038263
19910.0 0.00038039
19930.0 0.00037797
19950.0 0.00037527
19970.0 0.00037216
19990.0 0.00036856
20010.0 0.00036453
20030.0 0.0003599
20050.0 0.0003547
20070.0 0.0003492
20090.0 0.00034343
20110.0 0.00033721
20130.0 0.00033102
20150.0 0.00032495
20170.0 0.00031879
20190.0 0.00031264
20210.0 0.00030677
20230.0 0.00030102
20250.0 0.00029524
20270.0 0.0002897
20290.0 0.00028444
20310.0 0.00027925
20330.0 0.00027416
20350.0 0.0002695
20370.0 0.00026501
20390.0 0.00026067
20410.0 0.00025661
20430.0 0.00025285
20450.0 0.00024921
20470.0 0.00024582
20490.0 0.00024273
20510.0 0.00023984
20530.0 0.00023713
20550.0 0.00023466
20570.0 0.00023241
20590.0 0.0002303
20610.0 0.00022836
20630.0 0.00022658
20650.0 0.00022492
20670.0 0.00022337
20690.0 0.0002219
20710.0 0.00022051
20730.0 0.00021916
20750.0 0.00021784
20770.0 0.00021652
20790.0 0.0002152
20810.0 0.00021384
20830.0 0.00021245
20850.0 0.00021099
20870.0 0.00020947
20890.0 0.00020786
20910.0 0.00020618
20930.0 0.0002044
20950.0 0.00020252
20970.0 0.00020056
20990.0 0.00019852
21010.0 0.00019635
21030.0 0.00019411
21050.0 0.00019183
21070.0 0.00018945
21090.0 0.00018698
21110.0 0.00018451
21130.0 0.00018201
21150.0 0.00017943
21170.0 0.00017685
21190.0 0.0001743
21210.0 0.00017169
21230.0 0.00016906
21250.0 0.0001665
21270.0 0.00016397
21290.0 0.00016141
21310.0 0.00015891
21330.0 0.00015649
21350.0 0.00015408
21370.0 0.00015171
21390.0 0.00014943
21410.0 0.00014721
21430.0 0.000145
21450.0 0.0001429
21470.0 0.00014089
21490.0 0.00013894
21510.0 0.00013705
21530.0 0.00013528
21550.0 0.00013357
21570.0 0.00013191
21590.0 0.00013035
21610.0 0.00012886
21630.0 0.00012742
21650.0 0.00012603
21670.0 0.00012471
21690.0 0.00012344
21710.0 0.0001222
21730.0 0.00012099
21750.0 0.00011982
21770.0 0.00011866
21790.0 0.00011751
21810.0 0.00011638
21830.0 0.00011526
21850.0 0.00011413
21870.0 0.000113
21890.0 0.00011187
21910.0 0.00011073
21930.0 0.00010959
21950.0 0.00010844
21970.0 0.00010727
21990.0 0.00010609
22010.0 0.0001049
22030.0 0.0001037
22050.0 0.00010248
22070.0 0.00010125
22090.0 0.00010001
22110.0 9.876e-05
22130.0 9.7477e-05
22150.0 9.6194e-05
22170.0 9.4902e-05
22190.0 9.3573e-05
22210.0 9.2229e-05
22230.0 9.09e-05
22250.0 8.9545e-05
22270.0 8.8165e-05
22290.0 8.6795e-05
22310.0 8.5425e-05
22330.0 8.4013e-05
22350.0 8.2607e-05
22370.0 8.1219e-05
22390.0 7.9814e-05
22410.0 7.8385e-05
22430.0 7.6995e-05
22450.0 7.5614e-05
22470.0 7.4213e-05
22490.0 7.283e-05
22510.0 7.1485e-05
22530.0 7.0124e-05
22550.0 6.8767e-05
22570.0 6.7463e-05
22590.0 6.6182e-05
22610.0 6.4904e-05
22630.0 6.3665e-05
22650.0 6.2485e-05
22670.0 6.1316e-05
22690.0 6.0179e-05
22710.0 5.9101e-05
22730.0 5.8065e-05
22750.0 5.7043e-05
22770.0 5.6084e-05
22790.0 5.5182e-05
22810.0 5.4309e-05
22830.0 5.3476e-05
22850.0 5.27e-05
22870.0 5.1958e-05
22890.0 5.1245e-05
22910.0 5.0577e-05
22930.0 4.9946e-05
22950.0 4.9341e-05
22970.0 4.8763e-05
22990.0 4.8222e-05
23010.0 4.77e-05
23030.0 4.7198e-05
23050.0 4.6715e-05
23070.0 4.6249e-05
23090.0 4.5792e-05
23110.0 4.5345e-05
23130.0 4.4905e-05
23150.0 4.4468e-05
23170.0 4.4029e-05
