#lamb flux
1010.0 6.7461e-05
1030.0 7.5572e-05
1050.0 8.3623e-05
1070.0 9.2719e-05
1090.0 0.00010346
1110.0 0.00011448
1130.0 0.00012559
1150.0 0.0001373
1170.0 0.0001495
1190.0 0.00016129
1210.0 0.00017351
1230.0 0.00018645
1250.0 0.00019948
1270.0 0.00021263
1290.0 0.00022694
1310.0 0.0002418
1330.0 0.00025668
1350.0 0.00027222
1370.0 0.00028865
1390.0 0.00030519
1410.0 0.00032169
1430.0 0.00033904
1450.0 0.00035658
1470.0 0.00037377
1490.0 0.00039111
1510.0 0.00040914
1530.0 0.00042626
1550.0 0.00044295
1570.0 0.00045978
1590.0 0.00047625
1610.0 0.00049158
1630.0 0.00050665
1650.0 0.00052148
1670.0 0.00053518
1690.0 0.000548
1710.0 0.0005606
1730.0 0.00057253
1750.0 0.00058284
1770.0 0.0005928
1790.0 0.00060231
1810.0 0.0006107
1830.0 0.00061825
1850.0 0.00062606
1870.0 0.00063304
1890.0 0.00063921
1910.0 0.00064536
1930.0 0.00065163
1950.0 0.00065718
1970.0 0.00066255
1990.0 0.00066838
2010.0 0.00067401
2030.0 0.00067924
2050.0 0.00068483
2070.0 0.00069066
2090.0 0.00069568
2110.0 0.00070047
2130.0 0.0007053
2150.0 0.0007095
2170.0 0.0007127
2190.0 0.00071568
2210.0 0.00071799
2230.0 0.00071903
2250.0 0.00071914
2270.0 0.00071874
2290.0 0.00071698
2310.0 0.00071378
2330.0 0.00070984
2350.0 0.0007049
2370.0 0.0006985
2390.0 0.00069113
2410.0 0.00068305
2430.0 0.00067349
2450.0 0.0006625
2470.0 0.00065037
2490.0 0.00063699
2510.0 0.00062244
2530.0 0.0006082
2550.0 0.00059647
2570.0 0.00058991
2590.0 0.00059144
2610.0 0.00060729
2630.0 0.0006393
2650.0 0.00068443
2670.0 0.00074279
2690.0 0.00081065
2710.0 0.00087446
2730.0 0.00092642
2750.0 0.00096429
2770.0 0.00097746
2790.0 0.00096308
2810.0 0.00092274
2830.0 0.00085538
2850.0 0.00076858
2870.0 0.00066701
2890.0 0.00055138
2910.0 0.00042757
2930.0 0.00030244
2950.0 0.00017043
2970.0 4.6318e-05
2990.0 4.6318e-05
3010.0 9.4054e-05
3030.0 9.4054e-05
3050.0 9.4054e-05
3070.0 9.4054e-05
3090.0 9.4054e-05
3110.0 9.4054e-05
3130.0 9.4054e-05
3150.0 9.4054e-05
3170.0 9.4054e-05
3190.0 9.4054e-05
3210.0 9.4054e-05
3230.0 0.0038234
3250.0 0.0068109
3270.0 0.0063889
3290.0 0.0059638
3310.0 0.0045332
3330.0 0.0043997
3350.0 0.0048589
3370.0 0.0055439
3390.0 0.006298
3410.0 0.0071067
3430.0 0.0081726
3450.0 0.0092159
3470.0 0.010297
3490.0 0.010693
3510.0 0.0097123
3530.0 0.0093412
3550.0 0.010336
3570.0 0.011099
3590.0 0.012029
3610.0 0.011745
3630.0 0.014229
3650.0 0.015534
3670.0 0.016406
3690.0 0.0163
3710.0 0.014757
3730.0 0.014572
3750.0 0.013842
3770.0 0.01337
3790.0 0.012591
3810.0 0.011976
3830.0 0.012358
3850.0 0.0065484
3870.0 0.0087848
3890.0 0.010185
3910.0 0.01252
3930.0 0.01607
3950.0 0.01742
3970.0 0.019461
3990.0 0.023312
4010.0 0.019767
4030.0 0.017006
4050.0 0.012281
4070.0 0.011574
4090.0 0.017059
4110.0 0.01706
4130.0 0.018569
4150.0 0.017796
4170.0 0.016852
4190.0 0.015295
4210.0 0.020607
4230.0 0.021761
4250.0 0.023717
4270.0 0.022579
4290.0 0.022259
4310.0 0.02418
4330.0 0.028399
4350.0 0.029643
4370.0 0.029465
4390.0 0.026884
4410.0 0.024803
4430.0 0.019336
4450.0 0.015744
4470.0 0.017
4490.0 0.019934
4510.0 0.020751
4530.0 0.020915
4550.0 0.021159
4570.0 0.030148
4590.0 0.045125
4610.0 0.053021
4630.0 0.053708
4650.0 0.057915
4670.0 0.067526
4690.0 0.073196
4710.0 0.061018
4730.0 0.046543
4750.0 0.036459
4770.0 0.031435
4790.0 0.028754
4810.0 0.02726
4830.0 0.030215
4850.0 0.035703
4870.0 0.03915
4890.0 0.040889
4910.0 0.03851
4930.0 0.041637
4950.0 0.050817
4970.0 0.059202
4990.0 0.061397
5010.0 0.056537
5030.0 0.046953
5050.0 0.036165
5070.0 0.028844
5090.0 0.026049
5110.0 0.025642
5130.0 0.026115
5150.0 0.02593
5170.0 0.024384
5190.0 0.022875
5210.0 0.022404
5230.0 0.025232
5250.0 0.029888
5270.0 0.035517
5290.0 0.040236
5310.0 0.042764
5330.0 0.046851
5350.0 0.051653
5370.0 0.053163
5390.0 0.047845
5410.0 0.042221
5430.0 0.041043
5450.0 0.047495
5470.0 0.058152
5490.0 0.067078
5510.0 0.070712
5530.0 0.069156
5550.0 0.065568
5570.0 0.062901
5590.0 0.060114
5610.0 0.058547
5630.0 0.057808
5650.0 0.057467
5670.0 0.055882
5690.0 0.050191
5710.0 0.041972
5730.0 0.037194
5750.0 0.035309
5770.0 0.035735
5790.0 0.036442
5810.0 0.037293
5830.0 0.037359
5850.0 0.03517
5870.0 0.032734
5890.0 0.031414
5910.0 0.031991
5930.0 0.032695
5950.0 0.030207
5970.0 0.026129
5990.0 0.021146
6010.0 0.016953
6030.0 0.015652
6050.0 0.016952
6070.0 0.01802
6090.0 0.017179
6110.0 0.015163
6130.0 0.015516
6150.0 0.018052
6170.0 0.020754
6190.0 0.022782
6210.0 0.02311
6230.0 0.022747
6250.0 0.020772
6270.0 0.017363
6290.0 0.014335
6310.0 0.012722
6330.0 0.01243
6350.0 0.012653
6370.0 0.012824
6390.0 0.014423
6410.0 0.01799
6430.0 0.022203
6450.0 0.02491
6470.0 0.025681
6490.0 0.025505
6510.0 0.026033
6530.0 0.02683
6550.0 0.026699
6570.0 0.027705
6590.0 0.028406
6610.0 0.028889
6630.0 0.028406
6650.0 0.026528
6670.0 0.024204
6690.0 0.02201
6710.0 0.02083
6730.0 0.020575
6750.0 0.020947
6770.0 0.021522
6790.0 0.02222
6810.0 0.022692
6830.0 0.022259
6850.0 0.021184
6870.0 0.019846
6890.0 0.0194
6910.0 0.018815
6930.0 0.019472
6950.0 0.020632
6970.0 0.021178
6990.0 0.021571
7010.0 0.020954
7030.0 0.019268
7050.0 0.017048
7070.0 0.015212
7090.0 0.014235
7110.0 0.014112
7130.0 0.013773
7150.0 0.012311
7170.0 0.01168
7190.0 0.012779
7210.0 0.014776
7230.0 0.017039
7250.0 0.018037
7270.0 0.017829
7290.0 0.016444
7310.0 0.015179
7330.0 0.014566
7350.0 0.014606
7370.0 0.014882
7390.0 0.015589
7410.0 0.017273
7430.0 0.019963
7450.0 0.022538
7470.0 0.023773
7490.0 0.023219
7510.0 0.021776
7530.0 0.019192
7550.0 0.017669
7570.0 0.015975
7590.0 0.01522
7610.0 0.015802
7630.0 0.017274
7650.0 0.019311
7670.0 0.021406
7690.0 0.022971
7710.0 0.02462
7730.0 0.026333
7750.0 0.027837
7770.0 0.027839
7790.0 0.028251
7810.0 0.028979
7830.0 0.029089
7850.0 0.028361
7870.0 0.027673
7890.0 0.02804
7910.0 0.027476
7930.0 0.027258
7950.0 0.02602
7970.0 0.025462
7990.0 0.024708
8010.0 0.025231
8030.0 0.025594
8050.0 0.025932
8070.0 0.025798
8090.0 0.025787
8110.0 0.025019
8130.0 0.025129
8150.0 0.024951
8170.0 0.024453
8190.0 0.024069
8210.0 0.024103
8230.0 0.023637
8250.0 0.023277
8270.0 0.021206
8290.0 0.017422
8310.0 0.013174
8330.0 0.01024
8350.0 0.0096311
8370.0 0.011549
8390.0 0.014078
8410.0 0.015292
8430.0 0.015771
8450.0 0.016668
8470.0 0.017946
8490.0 0.020202
8510.0 0.023166
8530.0 0.026727
8550.0 0.030097
8570.0 0.032923
8590.0 0.035142
8610.0 0.036482
8630.0 0.036704
8650.0 0.036499
8670.0 0.036652
8690.0 0.038648
8710.0 0.04128
8730.0 0.043108
8750.0 0.043114
8770.0 0.043876
8790.0 0.043871
8810.0 0.041359
8830.0 0.03911
8850.0 0.036046
8870.0 0.033578
8890.0 0.032843
8910.0 0.033009
8930.0 0.031298
8950.0 0.029317
8970.0 0.028549
8990.0 0.028403
9010.0 0.027365
9030.0 0.026751
9050.0 0.026525
9070.0 0.026421
9090.0 0.026331
9110.0 0.026244
9130.0 0.026157
9150.0 0.026072
9170.0 0.025975
9190.0 0.025904
9210.0 0.025936
9230.0 0.025805
9250.0 0.025696
9270.0 0.0256
9290.0 0.025512
9310.0 0.025427
9330.0 0.025346
9350.0 0.02527
9370.0 0.025195
9390.0 0.025118
9410.0 0.025045
9430.0 0.024969
9450.0 0.024861
9470.0 0.024764
9490.0 0.024725
9510.0 0.024669
9530.0 0.024608
9550.0 0.024545
9570.0 0.02448
9590.0 0.024414
9610.0 0.024347
9630.0 0.024281
9650.0 0.024215
9670.0 0.024148
9690.0 0.024083
9710.0 0.024017
9730.0 0.023952
9750.0 0.023887
9770.0 0.023822
9790.0 0.023757
9810.0 0.023692
9830.0 0.023628
9850.0 0.023563
9870.0 0.023498
9890.0 0.023432
9910.0 0.023366
9930.0 0.023298
9950.0 0.023051
9970.0 0.023037
9990.0 0.023013
10010.0 0.022982
10030.0 0.022936
10050.0 0.022878
10070.0 0.022816
10090.0 0.022755
10110.0 0.02268
10130.0 0.022609
10150.0 0.022539
10170.0 0.022464
10190.0 0.02238
10210.0 0.022305
10230.0 0.022231
10250.0 0.022148
10270.0 0.022065
10290.0 0.021987
10310.0 0.021902
10330.0 0.021809
10350.0 0.021724
10370.0 0.021637
10390.0 0.021542
10410.0 0.021446
10430.0 0.021358
10450.0 0.02126
10470.0 0.021156
10490.0 0.021058
10510.0 0.020958
10530.0 0.020845
10550.0 0.020734
10570.0 0.020629
10590.0 0.020516
10610.0 0.020396
10630.0 0.020283
10650.0 0.020166
10670.0 0.020037
10690.0 0.019911
10710.0 0.019788
10730.0 0.019655
10750.0 0.019513
10770.0 0.019383
10790.0 0.019247
10810.0 0.0191
10830.0 0.018956
10850.0 0.018816
10870.0 0.018659
10890.0 0.018499
10910.0 0.018344
10930.0 0.018181
10950.0 0.018004
10970.0 0.017825
10990.0 0.017647
11010.0 0.018621
11030.0 0.018406
11050.0 0.018198
11070.0 0.017985
11090.0 0.017758
11110.0 0.017549
11130.0 0.017348
11150.0 0.017143
11170.0 0.016942
11190.0 0.016756
11210.0 0.016566
11230.0 0.016373
11250.0 0.016189
11270.0 0.01601
11290.0 0.015822
11310.0 0.015635
11330.0 0.015461
11350.0 0.015281
11370.0 0.015094
11390.0 0.014911
11410.0 0.014727
11430.0 0.014526
11450.0 0.01432
11470.0 0.014113
11490.0 0.01389
11510.0 0.013648
11530.0 0.013406
11550.0 0.013156
11570.0 0.012884
11590.0 0.012606
11610.0 0.012331
11630.0 0.012039
11650.0 0.011737
11670.0 0.011448
11690.0 0.01116
11710.0 0.010865
11730.0 0.01058
11750.0 0.010311
11770.0 0.010041
11790.0 0.0097753
11810.0 0.0095274
11830.0 0.0092889
11850.0 0.0090477
11870.0 0.0088228
11890.0 0.0086131
11910.0 0.0084051
11930.0 0.0082028
11950.0 0.0080152
11970.0 0.0078329
11990.0 0.0076507
12010.0 0.0074803
12030.0 0.0073205
12050.0 0.007164
12070.0 0.0070134
12090.0 0.0068799
12110.0 0.0067541
12130.0 0.0066361
12150.0 0.0065321
12170.0 0.0064422
12190.0 0.0063612
12210.0 0.0062952
12230.0 0.0062447
12250.0 0.0062077
12270.0 0.006185
12290.0 0.0061768
12310.0 0.0061813
12330.0 0.0062001
12350.0 0.006232
12370.0 0.0062737
12390.0 0.0063269
12410.0 0.0063951
12430.0 0.0064676
12450.0 0.0065464
12470.0 0.0066351
12490.0 0.0067288
12510.0 0.0068202
12530.0 0.0069161
12550.0 0.0070141
12570.0 0.0071046
12590.0 0.0071882
12610.0 0.007268
12630.0 0.0073363
12650.0 0.0073869
12670.0 0.0074254
12690.0 0.0074485
12710.0 0.0074528
12730.0 0.00744
12750.0 0.0074098
12770.0 0.0073619
12790.0 0.0072993
12810.0 0.0072219
12830.0 0.0071304
12850.0 0.0070321
12870.0 0.0069272
12890.0 0.0068143
12910.0 0.0066998
12930.0 0.0065874
12950.0 0.0064726
12970.0 0.0063583
12990.0 0.0062517
13010.0 0.0061485
13030.0 0.0060469
13050.0 0.0059504
13070.0 0.0058602
13090.0 0.0057704
13110.0 0.0056828
13130.0 0.0055995
13150.0 0.0055179
13170.0 0.0054345
13190.0 0.0053544
13210.0 0.0052775
13230.0 0.0052
13250.0 0.005124
13270.0 0.0050528
13290.0 0.0049841
13310.0 0.0049177
13330.0 0.004858
13350.0 0.0048049
13370.0 0.0047573
13390.0 0.0047166
13410.0 0.0046843
13430.0 0.0046581
13450.0 0.0046375
13470.0 0.0046219
13490.0 0.0046092
13510.0 0.0045982
13530.0 0.0045867
13550.0 0.004573
13570.0 0.0045556
13590.0 0.0045328
13610.0 0.0045044
13630.0 0.0044703
13650.0 0.004429
13670.0 0.0043817
13690.0 0.0043307
13710.0 0.0042753
13730.0 0.0042148
13750.0 0.004156
13770.0 0.0040979
13790.0 0.0040397
13810.0 0.0039845
13830.0 0.0039348
13850.0 0.0038878
13870.0 0.0038446
13890.0 0.0038072
13910.0 0.0037744
13930.0 0.0037447
13950.0 0.0037188
13970.0 0.0036967
13990.0 0.0036763
14010.0 0.0036573
14030.0 0.0036395
14050.0 0.0036219
14070.0 0.0036031
14090.0 0.0035835
14110.0 0.0035629
14130.0 0.0035399
14150.0 0.0035143
14170.0 0.0034875
14190.0 0.0034588
14210.0 0.0034273
14230.0 0.0033947
14250.0 0.0033623
14270.0 0.0033284
14290.0 0.0032944
14310.0 0.0032632
14330.0 0.0032336
14350.0 0.0032058
14370.0 0.0031817
14390.0 0.0031615
14410.0 0.0031441
14430.0 0.0031304
14450.0 0.0031205
14470.0 0.0031138
14490.0 0.0031098
14510.0 0.0031087
14530.0 0.0031096
14550.0 0.0031126
14570.0 0.0031176
14590.0 0.0031242
14610.0 0.003133
14630.0 0.0031444
14650.0 0.0031582
14670.0 0.0031747
14690.0 0.0031951
14710.0 0.0032195
14730.0 0.0032464
14750.0 0.0032777
14770.0 0.0033142
14790.0 0.0033541
14810.0 0.0033974
14830.0 0.0034483
14850.0 0.0035037
14870.0 0.0035621
14890.0 0.003626
14910.0 0.0036952
14930.0 0.0037639
14950.0 0.0038304
14970.0 0.003896
14990.0 0.003954
15010.0 0.0040019
15030.0 0.004041
15050.0 0.0040715
15070.0 0.0040923
15090.0 0.0041072
15110.0 0.0041182
15130.0 0.0041265
15150.0 0.0041334
15170.0 0.0041397
15190.0 0.0041458
15210.0 0.0041518
15230.0 0.004158
15250.0 0.0041642
15270.0 0.0041706
15290.0 0.0041771
15310.0 0.0041838
15330.0 0.0041905
15350.0 0.0041975
15370.0 0.0042045
15390.0 0.0042116
15410.0 0.0042189
15430.0 0.0042263
15450.0 0.0042338
15470.0 0.0042414
15490.0 0.0042491
15510.0 0.0042569
15530.0 0.0042648
15550.0 0.0042728
15570.0 0.0042809
15590.0 0.0042891
15610.0 0.0042973
15630.0 0.0043057
15650.0 0.0043142
15670.0 0.0043226
15690.0 0.0043312
15710.0 0.0043399
15730.0 0.0043486
15750.0 0.0043574
15770.0 0.0043662
15790.0 0.0043751
15810.0 0.004384
15830.0 0.004393
15850.0 0.004402
15870.0 0.0044111
15890.0 0.0044202
15910.0 0.0044293
15930.0 0.0044385
15950.0 0.0044476
15970.0 0.0044568
15990.0 0.0044661
16010.0 0.0044753
16030.0 0.0044845
16050.0 0.0044937
16070.0 0.004503
16090.0 0.0045122
16110.0 0.0045214
16130.0 0.0045306
16150.0 0.0045398
16170.0 0.0045489
16190.0 0.0045581
16210.0 0.0045672
16230.0 0.0045762
16250.0 0.0045852
16270.0 0.0045942
16290.0 0.0046031
16310.0 0.004612
16330.0 0.0046208
16350.0 0.0046296
16370.0 0.0046382
16390.0 0.0046468
16410.0 0.0046554
16430.0 0.0046638
16450.0 0.0046722
16470.0 0.0046805
16490.0 0.0046886
16510.0 0.0046967
16530.0 0.0047047
16550.0 0.0047125
16570.0 0.0047202
16590.0 0.0047278
16610.0 0.0047354
16630.0 0.0047428
16650.0 0.00475
16670.0 0.0047571
16690.0 0.0047641
16710.0 0.0047709
16730.0 0.0047775
16750.0 0.004784
16770.0 0.0047904
16790.0 0.0047965
16810.0 0.0048026
16830.0 0.0048084
16850.0 0.0048141
16870.0 0.0048196
16890.0 0.0048249
16910.0 0.00483
16930.0 0.0048349
16950.0 0.0048396
16970.0 0.0048441
16990.0 0.0048484
17010.0 0.0048525
17030.0 0.0048565
17050.0 0.0048601
17070.0 0.0048636
17090.0 0.0048668
17110.0 0.0048698
17130.0 0.0048726
17150.0 0.0048751
17170.0 0.0048775
17190.0 0.0048795
17210.0 0.0048813
17230.0 0.004883
17250.0 0.0048843
17270.0 0.0048854
17290.0 0.0048862
17310.0 0.0048868
17330.0 0.0048871
17350.0 0.0048872
17370.0 0.004887
17390.0 0.0048866
17410.0 0.0048858
17430.0 0.0048849
17450.0 0.0048837
17470.0 0.0048821
17490.0 0.0048803
17510.0 0.0048783
17530.0 0.0048759
17550.0 0.0048733
17570.0 0.0048704
17590.0 0.0048673
17610.0 0.0048638
17630.0 0.0048601
17650.0 0.0048562
17670.0 0.0048519
17690.0 0.0048473
17710.0 0.0048426
17730.0 0.0048375
17750.0 0.0048321
17770.0 0.0048265
17790.0 0.0048206
17810.0 0.0048144
17830.0 0.0048079
17850.0 0.0048012
17870.0 0.0047942
17890.0 0.0047869
17910.0 0.0047794
17930.0 0.0047716
17950.0 0.0047635
17970.0 0.0047552
17990.0 0.0047466
18010.0 0.0047378
18030.0 0.0047286
18050.0 0.0047193
18070.0 0.0047097
18090.0 0.0046998
18110.0 0.0046896
18130.0 0.0046793
18150.0 0.0046687
18170.0 0.0046578
18190.0 0.0046468
18210.0 0.0046355
18230.0 0.0046239
18250.0 0.0046121
18270.0 0.0046001
18290.0 0.0045879
18310.0 0.0045754
18330.0 0.0045628
18350.0 0.0045499
18370.0 0.0045368
18390.0 0.0045235
18410.0 0.00451
18430.0 0.0044964
18450.0 0.0044824
18470.0 0.0044684
18490.0 0.0044542
18510.0 0.0044397
18530.0 0.0044251
18550.0 0.0044103
18570.0 0.0043954
18590.0 0.0043802
18610.0 0.0043649
18630.0 0.0043495
18650.0 0.0043339
18670.0 0.0043181
18690.0 0.0043023
18710.0 0.0042863
18730.0 0.0042701
18750.0 0.0042538
18770.0 0.0042374
18790.0 0.0042208
18810.0 0.0042041
18830.0 0.0041874
18850.0 0.0041705
18870.0 0.0041535
18890.0 0.0041364
18910.0 0.0041193
18930.0 0.0041019
18950.0 0.0040846
18970.0 0.0040671
18990.0 0.0040496
19010.0 0.0040319
19030.0 0.0040143
19050.0 0.0039965
19070.0 0.0039787
19090.0 0.0039608
19110.0 0.0039429
19130.0 0.0039249
19150.0 0.0039069
19170.0 0.0038888
19190.0 0.0038707
19210.0 0.0038526
19230.0 0.0038344
19250.0 0.0038162
19270.0 0.003798
19290.0 0.0037797
19310.0 0.0037615
19330.0 0.0037432
19350.0 0.0037249
19370.0 0.0037066
19390.0 0.0036883
19410.0 0.00367
19430.0 0.0036517
19450.0 0.0036335
19470.0 0.0036152
19490.0 0.0035969
19510.0 0.0035787
19530.0 0.0035605
19550.0 0.0035423
19570.0 0.0035241
19590.0 0.003506
19610.0 0.0034879
19630.0 0.0034698
19650.0 0.0034518
19670.0 0.0034339
19690.0 0.0034159
19710.0 0.003398
19730.0 0.0033802
19750.0 0.0033624
19770.0 0.0033446
19790.0 0.0033269
19810.0 0.0033092
19830.0 0.0032916
19850.0 0.0032738
19870.0 0.0032558
19890.0 0.0032373
19910.0 0.0032174
19930.0 0.0031958
19950.0 0.0031714
19970.0 0.0031426
19990.0 0.0031086
20010.0 0.00307
20030.0 0.0030251
20050.0 0.0029741
20070.0 0.0029199
20090.0 0.002863
20110.0 0.0028015
20130.0 0.0027407
20150.0 0.0026817
20170.0 0.0026223
20190.0 0.0025636
20210.0 0.0025085
20230.0 0.0024553
20250.0 0.0024024
20270.0 0.0023527
20290.0 0.0023061
20310.0 0.0022606
20330.0 0.0022163
20350.0 0.0021763
20370.0 0.0021379
20390.0 0.0021007
20410.0 0.0020659
20430.0 0.0020338
20450.0 0.0020023
20470.0 0.0019727
20490.0 0.0019457
20510.0 0.0019203
20530.0 0.0018961
20550.0 0.001874
20570.0 0.0018541
20590.0 0.0018353
20610.0 0.0018182
20630.0 0.0018029
20650.0 0.001789
20670.0 0.0017763
20690.0 0.0017651
20710.0 0.0017551
20730.0 0.0017461
20750.0 0.0017381
20770.0 0.0017308
20790.0 0.0017241
20810.0 0.001718
20830.0 0.0017122
20850.0 0.0017065
20870.0 0.001701
20890.0 0.0016954
20910.0 0.0016894
20930.0 0.0016831
20950.0 0.0016764
20970.0 0.0016691
20990.0 0.0016612
21010.0 0.0016526
21030.0 0.0016432
21050.0 0.001633
21070.0 0.0016221
21090.0 0.0016102
21110.0 0.0015977
21130.0 0.0015846
21150.0 0.0015706
21170.0 0.001556
21190.0 0.0015411
21210.0 0.0015255
21230.0 0.0015092
21250.0 0.0014929
21270.0 0.0014764
21290.0 0.0014594
21310.0 0.0014424
21330.0 0.0014258
21350.0 0.0014089
21370.0 0.001392
21390.0 0.0013758
21410.0 0.0013599
21430.0 0.0013439
21450.0 0.0013288
21470.0 0.0013147
21490.0 0.001301
21510.0 0.0012881
21530.0 0.0012764
21550.0 0.0012656
21570.0 0.0012557
21590.0 0.0012469
21610.0 0.0012393
21630.0 0.0012327
21650.0 0.0012272
21670.0 0.0012227
21690.0 0.0012192
21710.0 0.0012167
21730.0 0.0012151
21750.0 0.001214
21770.0 0.0012138
21790.0 0.0012141
21810.0 0.0012146
21830.0 0.0012155
21850.0 0.0012167
21870.0 0.0012179
21890.0 0.0012187
21910.0 0.0012196
21930.0 0.0012203
21950.0 0.0012204
21970.0 0.0012202
21990.0 0.0012198
22010.0 0.0012187
22030.0 0.001217
22050.0 0.001215
22070.0 0.0012125
22090.0 0.0012094
22110.0 0.001206
22130.0 0.0012022
22150.0 0.001198
22170.0 0.0011936
22190.0 0.0011888
22210.0 0.0011837
22230.0 0.0011785
22250.0 0.0011729
22270.0 0.0011671
22290.0 0.0011611
22310.0 0.0011548
22330.0 0.001148
22350.0 0.0011409
22370.0 0.0011335
22390.0 0.0011255
22410.0 0.0011168
22430.0 0.0011078
22450.0 0.0010981
22470.0 0.0010875
22490.0 0.0010763
22510.0 0.0010647
22530.0 0.001052
22550.0 0.0010385
22570.0 0.0010247
22590.0 0.0010104
22610.0 0.00099529
22630.0 0.00097994
22650.0 0.00096487
22670.0 0.00094924
22690.0 0.00093348
22710.0 0.00091831
22730.0 0.00090343
22750.0 0.00088826
22770.0 0.00087407
22790.0 0.00086078
22810.0 0.00084782
22830.0 0.00083548
22850.0 0.00082428
22870.0 0.00081372
22890.0 0.00080362
22910.0 0.00079447
22930.0 0.00078615
22950.0 0.00077828
22970.0 0.00077089
22990.0 0.00076436
23010.0 0.00075816
23030.0 0.0007522
23050.0 0.00074662
23070.0 0.00074132
23090.0 0.00073592
23110.0 0.00073061
23130.0 0.00072539
23150.0 0.00072005
23170.0 0.00071449
23190.0 0.00070892
23210.0 0.00070333
23230.0 0.00069749
23250.0 0.00069159
23270.0 0.0006858
23290.0 0.00067996
23310.0 0.00067402
23330.0 0.0006684
23350.0 0.00066298
23370.0 0.00065763
23390.0 0.00065249
23410.0 0.00064772
23430.0 0.00064305
23450.0 0.00063849
23470.0 0.00063419
23490.0 0.00063005
23510.0 0.0006259
23530.0 0.00062186
23550.0 0.000618
23570.0 0.00061411
23590.0 0.00061023
23610.0 0.00060646
23630.0 0.00060277
23650.0 0.00059905
23670.0 0.00059551
23690.0 0.00059218
23710.0 0.00058903
23730.0 0.00058613
23750.0 0.00058368
23770.0 0.00058165
23790.0 0.00058014
23810.0 0.00057926
23830.0 0.00057903
23850.0 0.00057965
23870.0 0.00058121
23890.0 0.00058355
23910.0 0.00058682
23930.0 0.00059123
23950.0 0.00059649
23970.0 0.00060233
23990.0 0.00060925
24010.0 0.00061698
24030.0 0.00062499
24050.0 0.00063348
24070.0 0.00064291
24090.0 0.00065218
