#lamb flux
1010.0 9.3584e-05
1030.0 0.00010323
1050.0 0.00011261
1070.0 0.00012319
1090.0 0.00013572
1110.0 0.00014849
1130.0 0.00016131
1150.0 0.00017473
1170.0 0.00018865
1190.0 0.00020202
1210.0 0.00021578
1230.0 0.00023031
1250.0 0.00024482
1270.0 0.00025939
1290.0 0.00027522
1310.0 0.00029157
1330.0 0.00030785
1350.0 0.00032477
1370.0 0.00034258
1390.0 0.00036038
1410.0 0.00037799
1430.0 0.0003964
1450.0 0.00041485
1470.0 0.00043273
1490.0 0.00045059
1510.0 0.00046902
1530.0 0.00048625
1550.0 0.00050282
1570.0 0.00051938
1590.0 0.00053535
1610.0 0.00054992
1630.0 0.00056405
1650.0 0.00057782
1670.0 0.00059027
1690.0 0.00060173
1710.0 0.00061296
1730.0 0.0006235
1750.0 0.0006324
1770.0 0.00064109
1790.0 0.00064951
1810.0 0.00065701
1830.0 0.00066398
1850.0 0.00067162
1870.0 0.00067888
1890.0 0.00068584
1910.0 0.0006934
1930.0 0.00070176
1950.0 0.0007101
1970.0 0.00071901
1990.0 0.00072921
2010.0 0.00074002
2030.0 0.00075121
2050.0 0.00076361
2070.0 0.00077708
2090.0 0.00079043
2110.0 0.00080424
2130.0 0.00081877
2150.0 0.00083322
2170.0 0.00084709
2190.0 0.00086122
2210.0 0.00087505
2230.0 0.00088778
2250.0 0.00089975
2270.0 0.00091143
2290.0 0.00092173
2310.0 0.00093043
2330.0 0.00093841
2350.0 0.00094531
2370.0 0.00095046
2390.0 0.00095449
2410.0 0.00095782
2430.0 0.00095943
2450.0 0.00095941
2470.0 0.00095833
2490.0 0.00095614
2510.0 0.00095275
2530.0 0.00095055
2550.0 0.00095314
2570.0 0.00096465
2590.0 0.00099004
2610.0 0.0010408
2630.0 0.0011208
2650.0 0.0012253
2670.0 0.0013557
2690.0 0.001506
2710.0 0.0016513
2730.0 0.0017769
2750.0 0.0018777
2770.0 0.0019331
2790.0 0.0019371
2810.0 0.0018923
2830.0 0.0017967
2850.0 0.0016651
2870.0 0.0015063
2890.0 0.0013218
2910.0 0.001123
2930.0 0.00092215
2950.0 0.00070911
2970.0 0.00048728
2990.0 0.00026773
3010.0 0.00011521
3030.0 0.00011521
3050.0 0.00011521
3070.0 0.00011521
3090.0 0.00011521
3110.0 0.00011521
3130.0 0.00011521
3150.0 0.00011521
3170.0 0.00011521
3190.0 0.00011521
3210.0 0.0019859
3230.0 0.0083937
3250.0 0.012314
3270.0 0.010873
3290.0 0.0084726
3310.0 0.0064964
3330.0 0.0060826
3350.0 0.0065153
3370.0 0.0072212
3390.0 0.0079658
3410.0 0.008758
3430.0 0.0098023
3450.0 0.010783
3470.0 0.011791
3490.0 0.011919
3510.0 0.010028
3530.0 0.0090535
3550.0 0.011291
3570.0 0.013961
3590.0 0.015521
3610.0 0.015907
3630.0 0.01763
3650.0 0.018003
3670.0 0.01867
3690.0 0.02101
3710.0 0.023098
3730.0 0.024702
3750.0 0.025414
3770.0 0.025701
3790.0 0.024957
3810.0 0.023256
3830.0 0.020867
3850.0 0.014888
3870.0 0.013793
3890.0 0.015655
3910.0 0.0211
3930.0 0.027023
3950.0 0.029363
3970.0 0.030693
3990.0 0.03433
4010.0 0.03458
4030.0 0.031081
4050.0 0.022652
4070.0 0.019237
4090.0 0.023378
4110.0 0.025579
4130.0 0.027651
4150.0 0.027396
4170.0 0.026056
4190.0 0.024293
4210.0 0.027517
4230.0 0.029659
4250.0 0.03184
4270.0 0.031416
4290.0 0.030237
4310.0 0.03082
4330.0 0.03495
4350.0 0.038605
4370.0 0.039283
4390.0 0.036601
4410.0 0.03289
4430.0 0.026059
4450.0 0.021014
4470.0 0.021266
4490.0 0.024033
4510.0 0.025729
4530.0 0.026119
4550.0 0.026824
4570.0 0.036398
4590.0 0.052735
4610.0 0.062611
4630.0 0.065412
4650.0 0.072055
4670.0 0.083112
4690.0 0.087133
4710.0 0.074669
4730.0 0.057623
4750.0 0.044686
4770.0 0.037472
4790.0 0.033682
4810.0 0.032112
4830.0 0.035322
4850.0 0.042475
4870.0 0.047446
4890.0 0.048833
4910.0 0.048065
4930.0 0.053141
4950.0 0.062811
4970.0 0.069977
4990.0 0.07071
5010.0 0.064192
5030.0 0.052979
5050.0 0.041987
5070.0 0.034874
5090.0 0.032243
5110.0 0.032177
5130.0 0.032675
5150.0 0.032245
5170.0 0.0302
5190.0 0.028749
5210.0 0.029234
5230.0 0.033146
5250.0 0.040013
5270.0 0.047322
5290.0 0.052228
5310.0 0.055862
5330.0 0.061663
5350.0 0.06703
5370.0 0.066904
5390.0 0.060596
5410.0 0.054509
5430.0 0.05428
5450.0 0.062324
5470.0 0.073915
5490.0 0.082749
5510.0 0.085811
5530.0 0.083973
5550.0 0.07994
5570.0 0.076031
5590.0 0.072186
5610.0 0.069616
5630.0 0.068749
5650.0 0.068038
5670.0 0.064388
5690.0 0.056949
5710.0 0.048793
5730.0 0.043741
5750.0 0.041875
5770.0 0.04246
5790.0 0.043118
5810.0 0.043324
5830.0 0.042848
5850.0 0.040657
5870.0 0.038238
5890.0 0.037205
5910.0 0.037636
5930.0 0.03742
5950.0 0.034351
5970.0 0.029386
5990.0 0.02354
6010.0 0.019198
6030.0 0.018138
6050.0 0.019682
6070.0 0.020732
6090.0 0.019461
6110.0 0.017497
6130.0 0.018055
6150.0 0.020652
6170.0 0.023109
6190.0 0.0247
6210.0 0.025183
6230.0 0.024831
6250.0 0.022583
6270.0 0.018843
6290.0 0.015663
6310.0 0.014211
6330.0 0.014159
6350.0 0.014478
6370.0 0.015072
6390.0 0.017342
6410.0 0.021355
6430.0 0.025222
6450.0 0.027282
6470.0 0.028016
6490.0 0.028259
6510.0 0.028602
6530.0 0.029019
6550.0 0.029208
6570.0 0.030133
6590.0 0.030958
6610.0 0.031137
6630.0 0.030012
6650.0 0.027741
6670.0 0.025426
6690.0 0.023718
6710.0 0.022659
6730.0 0.021888
6750.0 0.021723
6770.0 0.022319
6790.0 0.023175
6810.0 0.023653
6830.0 0.023268
6850.0 0.022056
6870.0 0.020738
6890.0 0.020241
6910.0 0.020077
6930.0 0.020691
6950.0 0.021481
6970.0 0.021986
6990.0 0.022191
7010.0 0.021468
7030.0 0.019754
7050.0 0.0176
7070.0 0.016092
7090.0 0.015615
7110.0 0.015649
7130.0 0.014902
7150.0 0.013263
7170.0 0.012797
7190.0 0.014224
7210.0 0.016533
7230.0 0.018668
7250.0 0.019454
7270.0 0.019032
7290.0 0.017734
7310.0 0.016614
7330.0 0.016278
7350.0 0.016465
7370.0 0.01674
7390.0 0.017583
7410.0 0.019475
7430.0 0.022056
7450.0 0.024316
7470.0 0.025182
7490.0 0.024147
7510.0 0.022486
7530.0 0.020922
7550.0 0.019718
7570.0 0.018328
7590.0 0.017716
7610.0 0.018133
7630.0 0.019409
7650.0 0.021386
7670.0 0.023667
7690.0 0.025625
7710.0 0.027352
7730.0 0.028983
7750.0 0.030383
7770.0 0.030713
7790.0 0.031322
7810.0 0.03182
7830.0 0.031388
7850.0 0.030576
7870.0 0.030168
7890.0 0.030774
7910.0 0.030831
7930.0 0.030451
7950.0 0.029345
7970.0 0.02855
7990.0 0.027678
8010.0 0.027339
8030.0 0.027701
8050.0 0.027962
8070.0 0.027797
8090.0 0.027755
8110.0 0.027226
8130.0 0.027419
8150.0 0.027342
8170.0 0.026913
8190.0 0.026406
8210.0 0.026121
8230.0 0.025646
8250.0 0.025506
8270.0 0.023743
8290.0 0.020023
8310.0 0.015762
8330.0 0.012842
8350.0 0.012264
8370.0 0.014317
8390.0 0.017047
8410.0 0.018342
8430.0 0.018901
8450.0 0.020129
8470.0 0.021852
8490.0 0.024512
8510.0 0.027826
8530.0 0.031519
8550.0 0.034692
8570.0 0.037192
8590.0 0.039128
8610.0 0.040223
8630.0 0.040243
8650.0 0.039834
8670.0 0.040041
8690.0 0.042402
8710.0 0.045576
8730.0 0.047479
8750.0 0.047482
8770.0 0.048342
8790.0 0.0485
8810.0 0.046087
8830.0 0.043181
8850.0 0.039367
8870.0 0.036376
8890.0 0.035576
8910.0 0.035482
8930.0 0.033503
8950.0 0.03115
8970.0 0.030216
8990.0 0.030233
9010.0 0.029368
9030.0 0.028747
9050.0 0.028481
9070.0 0.028354
9090.0 0.028245
9110.0 0.02814
9130.0 0.028035
9150.0 0.027933
9170.0 0.027823
9190.0 0.027743
9210.0 0.027733
9230.0 0.027594
9250.0 0.027474
9270.0 0.027366
9290.0 0.027266
9310.0 0.027169
9330.0 0.027075
9350.0 0.026988
9370.0 0.026901
9390.0 0.026814
9410.0 0.026729
9430.0 0.026641
9450.0 0.026515
9470.0 0.026404
9490.0 0.026363
9510.0 0.026302
9530.0 0.026236
9550.0 0.026166
9570.0 0.026094
9590.0 0.026022
9610.0 0.025949
9630.0 0.025876
9650.0 0.025803
9670.0 0.025732
9690.0 0.025661
9710.0 0.02559
9730.0 0.02552
9750.0 0.025451
9770.0 0.025381
9790.0 0.025311
9810.0 0.025243
9830.0 0.025174
9850.0 0.025105
9870.0 0.025036
9890.0 0.024968
9910.0 0.024898
9930.0 0.024826
9950.0 0.024609
9970.0 0.024582
9990.0 0.024546
10010.0 0.024507
10030.0 0.024454
10050.0 0.02439
10070.0 0.024324
10090.0 0.024259
10110.0 0.024179
10130.0 0.024093
10150.0 0.024021
10170.0 0.023947
10190.0 0.023862
10210.0 0.023785
10230.0 0.023708
10250.0 0.023622
10270.0 0.023535
10290.0 0.023454
10310.0 0.023364
10330.0 0.023266
10350.0 0.023176
10370.0 0.023084
10390.0 0.022983
10410.0 0.022882
10430.0 0.022788
10450.0 0.022684
10470.0 0.022573
10490.0 0.022468
10510.0 0.022362
10530.0 0.02224
10550.0 0.022122
10570.0 0.022009
10590.0 0.021887
10610.0 0.021758
10630.0 0.021636
10650.0 0.02151
10670.0 0.021371
10690.0 0.021235
10710.0 0.021101
10730.0 0.020957
10750.0 0.020803
10770.0 0.020661
10790.0 0.020513
10810.0 0.020354
10830.0 0.020196
10850.0 0.020043
10870.0 0.019872
10890.0 0.019698
10910.0 0.01953
10930.0 0.019354
10950.0 0.019164
10970.0 0.018975
10990.0 0.018789
11010.0 0.020322
11030.0 0.020108
11050.0 0.0199
11070.0 0.019688
11090.0 0.019459
11110.0 0.019246
11130.0 0.019039
11150.0 0.018824
11170.0 0.01861
11190.0 0.01841
11210.0 0.018205
11230.0 0.017994
11250.0 0.017792
11270.0 0.017596
11290.0 0.017392
11310.0 0.017189
11330.0 0.017
11350.0 0.016806
11370.0 0.016606
11390.0 0.016412
11410.0 0.016218
11430.0 0.016006
11450.0 0.01579
11470.0 0.015571
11490.0 0.015337
11510.0 0.015083
11530.0 0.014827
11550.0 0.014561
11570.0 0.014272
11590.0 0.013976
11610.0 0.01368
11630.0 0.013368
11650.0 0.013043
11670.0 0.012731
11690.0 0.012419
11710.0 0.0121
11730.0 0.011789
11750.0 0.011494
11770.0 0.011196
11790.0 0.010902
11810.0 0.010624
11830.0 0.010355
11850.0 0.01008
11870.0 0.0098206
11890.0 0.0095762
11910.0 0.009332
11930.0 0.0090927
11950.0 0.008869
11970.0 0.0086507
11990.0 0.0084324
12010.0 0.0082278
12030.0 0.0080358
12050.0 0.0078485
12070.0 0.0076688
12090.0 0.0075095
12110.0 0.00736
12130.0 0.0072206
12150.0 0.0070979
12170.0 0.006992
12190.0 0.0068974
12210.0 0.0068206
12230.0 0.0067619
12250.0 0.006719
12270.0 0.0066931
12290.0 0.0066834
12310.0 0.0066876
12330.0 0.0067078
12350.0 0.0067418
12370.0 0.0067849
12390.0 0.0068392
12410.0 0.0069079
12430.0 0.0069783
12450.0 0.0070527
12470.0 0.0071346
12490.0 0.0072185
12510.0 0.0072971
12530.0 0.0073777
12550.0 0.0074576
12570.0 0.007528
12590.0 0.0075898
12610.0 0.0076462
12630.0 0.0076903
12650.0 0.0077168
12670.0 0.007731
12690.0 0.0077301
12710.0 0.0077114
12730.0 0.0076765
12750.0 0.0076248
12770.0 0.0075567
12790.0 0.0074749
12810.0 0.0073793
12830.0 0.0072702
12850.0 0.007155
12870.0 0.0070337
12890.0 0.0069046
12910.0 0.0067739
12930.0 0.0066456
12950.0 0.0065147
12970.0 0.0063841
12990.0 0.0062612
13010.0 0.0061417
13030.0 0.0060237
13050.0 0.0059111
13070.0 0.0058053
13090.0 0.0057003
13110.0 0.0055981
13130.0 0.0055014
13150.0 0.0054074
13170.0 0.0053127
13190.0 0.0052226
13210.0 0.0051367
13230.0 0.0050512
13250.0 0.0049678
13270.0 0.0048894
13290.0 0.0048133
13310.0 0.0047387
13330.0 0.0046697
13350.0 0.0046058
13370.0 0.0045453
13390.0 0.0044896
13410.0 0.0044409
13430.0 0.0043965
13450.0 0.0043562
13470.0 0.0043207
13490.0 0.0042888
13510.0 0.0042588
13530.0 0.0042305
13550.0 0.0042031
13570.0 0.0041751
13590.0 0.0041454
13610.0 0.0041141
13630.0 0.004081
13650.0 0.0040446
13670.0 0.0040057
13690.0 0.0039656
13710.0 0.0039233
13730.0 0.0038783
13750.0 0.0038347
13770.0 0.0037916
13790.0 0.0037485
13810.0 0.0037071
13830.0 0.003669
13850.0 0.0036323
13870.0 0.0035976
13890.0 0.0035664
13910.0 0.0035377
13930.0 0.0035105
13950.0 0.0034853
13970.0 0.0034623
13990.0 0.0034397
14010.0 0.0034172
14030.0 0.0033953
14050.0 0.0033729
14070.0 0.0033487
14090.0 0.0033236
14110.0 0.0032977
14130.0 0.0032697
14150.0 0.0032395
14170.0 0.0032091
14190.0 0.0031777
14210.0 0.0031445
14230.0 0.0031116
14250.0 0.00308
14270.0 0.003048
14290.0 0.0030171
14310.0 0.0029897
14330.0 0.0029646
14350.0 0.0029417
14370.0 0.0029225
14390.0 0.0029071
14410.0 0.0028942
14430.0 0.0028844
14450.0 0.0028777
14470.0 0.0028734
14490.0 0.002871
14510.0 0.0028705
14530.0 0.0028715
14550.0 0.0028739
14570.0 0.0028775
14590.0 0.0028825
14610.0 0.0028892
14630.0 0.0028983
14650.0 0.0029097
14670.0 0.002924
14690.0 0.0029424
14710.0 0.0029653
14730.0 0.0029915
14750.0 0.0030231
14770.0 0.0030607
14790.0 0.0031032
14810.0 0.0031503
14830.0 0.0032065
14850.0 0.0032685
14870.0 0.0033344
14890.0 0.0034067
14910.0 0.0034851
14930.0 0.0035631
14950.0 0.0036389
14970.0 0.0037137
14990.0 0.0037805
15010.0 0.0038365
15030.0 0.0038833
15050.0 0.0039211
15070.0 0.0039487
15090.0 0.0039702
15110.0 0.0039877
15130.0 0.0040024
15150.0 0.0040158
15170.0 0.0040287
15190.0 0.0040414
15210.0 0.0040542
15230.0 0.0040673
15250.0 0.0040805
15270.0 0.004094
15290.0 0.0041078
15310.0 0.0041219
15330.0 0.0041361
15350.0 0.0041507
15370.0 0.0041655
15390.0 0.0041804
15410.0 0.0041957
15430.0 0.0042111
15450.0 0.0042268
15470.0 0.0042427
15490.0 0.0042588
15510.0 0.0042752
15530.0 0.0042917
15550.0 0.0043084
15570.0 0.0043253
15590.0 0.0043424
15610.0 0.0043597
15630.0 0.0043772
15650.0 0.0043948
15670.0 0.0044126
15690.0 0.0044306
15710.0 0.0044488
15730.0 0.004467
15750.0 0.0044855
15770.0 0.0045041
15790.0 0.0045228
15810.0 0.0045416
15830.0 0.0045606
15850.0 0.0045797
15870.0 0.0045989
15890.0 0.0046181
15910.0 0.0046376
15930.0 0.0046571
15950.0 0.0046766
15970.0 0.0046963
15990.0 0.004716
16010.0 0.0047358
16030.0 0.0047557
16050.0 0.0047756
16070.0 0.0047955
16090.0 0.0048155
16110.0 0.0048356
16130.0 0.0048556
16150.0 0.0048757
16170.0 0.0048957
16190.0 0.0049158
16210.0 0.0049359
16230.0 0.0049559
16250.0 0.0049759
16270.0 0.004996
16290.0 0.0050159
16310.0 0.0050358
16330.0 0.0050557
16350.0 0.0050755
16370.0 0.0050952
16390.0 0.0051149
16410.0 0.0051345
16430.0 0.0051539
16450.0 0.0051733
16470.0 0.0051926
16490.0 0.0052118
16510.0 0.0052308
16530.0 0.0052497
16550.0 0.0052684
16570.0 0.005287
16590.0 0.0053054
16610.0 0.0053237
16630.0 0.0053418
16650.0 0.0053597
16670.0 0.0053775
16690.0 0.005395
16710.0 0.0054123
16730.0 0.0054294
16750.0 0.0054463
16770.0 0.005463
16790.0 0.0054794
16810.0 0.0054955
16830.0 0.0055115
16850.0 0.0055271
16870.0 0.0055425
16890.0 0.0055576
16910.0 0.0055724
16930.0 0.0055869
16950.0 0.0056011
16970.0 0.0056151
16990.0 0.0056286
17010.0 0.0056419
17030.0 0.0056549
17050.0 0.0056675
17070.0 0.0056798
17090.0 0.0056918
17110.0 0.0057033
17130.0 0.0057145
17150.0 0.0057254
17170.0 0.0057359
17190.0 0.005746
17210.0 0.0057557
17230.0 0.0057651
17250.0 0.005774
17270.0 0.0057825
17290.0 0.0057907
17310.0 0.0057984
17330.0 0.0058057
17350.0 0.0058126
17370.0 0.0058192
17390.0 0.0058252
17410.0 0.0058308
17430.0 0.005836
17450.0 0.0058409
17470.0 0.0058451
17490.0 0.005849
17510.0 0.0058525
17530.0 0.0058555
17550.0 0.005858
17570.0 0.0058601
17590.0 0.0058618
17610.0 0.005863
17630.0 0.0058637
17650.0 0.005864
17670.0 0.0058639
17690.0 0.0058632
17710.0 0.0058621
17730.0 0.0058606
17750.0 0.0058586
17770.0 0.0058561
17790.0 0.0058532
17810.0 0.0058498
17830.0 0.0058459
17850.0 0.0058417
17870.0 0.0058369
17890.0 0.0058317
17910.0 0.005826
17930.0 0.00582
17950.0 0.0058134
17970.0 0.0058064
17990.0 0.005799
18010.0 0.0057911
18030.0 0.0057827
18050.0 0.005774
18070.0 0.0057648
18090.0 0.0057552
18110.0 0.0057451
18130.0 0.0057347
18150.0 0.0057238
18170.0 0.0057125
18190.0 0.0057008
18210.0 0.0056887
18230.0 0.0056761
18250.0 0.0056632
18270.0 0.0056499
18290.0 0.0056362
18310.0 0.0056222
18330.0 0.0056077
18350.0 0.0055929
18370.0 0.0055777
18390.0 0.0055622
18410.0 0.0055463
18430.0 0.0055301
18450.0 0.0055134
18470.0 0.0054965
18490.0 0.0054793
18510.0 0.0054617
18530.0 0.0054438
18550.0 0.0054257
18570.0 0.0054072
18590.0 0.0053883
18610.0 0.0053692
18630.0 0.0053499
18650.0 0.0053302
18670.0 0.0053102
18690.0 0.0052901
18710.0 0.0052696
18730.0 0.0052489
18750.0 0.005228
18770.0 0.0052068
18790.0 0.0051854
18810.0 0.0051637
18830.0 0.0051419
18850.0 0.0051198
18870.0 0.0050976
18890.0 0.0050751
18910.0 0.0050525
18930.0 0.0050296
18950.0 0.0050066
18970.0 0.0049835
18990.0 0.0049602
19010.0 0.0049366
19030.0 0.004913
19050.0 0.0048893
19070.0 0.0048654
19090.0 0.0048413
19110.0 0.0048172
19130.0 0.0047929
19150.0 0.0047685
19170.0 0.0047441
19190.0 0.0047195
19210.0 0.0046949
19230.0 0.0046701
19250.0 0.0046454
19270.0 0.0046205
19290.0 0.0045955
19310.0 0.0045706
19330.0 0.0045455
19350.0 0.0045204
19370.0 0.0044953
19390.0 0.0044702
19410.0 0.004445
19430.0 0.0044198
19450.0 0.0043946
19470.0 0.0043694
19490.0 0.0043441
19510.0 0.0043189
19530.0 0.0042937
19550.0 0.0042685
19570.0 0.0042433
19590.0 0.0042181
19610.0 0.004193
19630.0 0.0041679
19650.0 0.0041428
19670.0 0.0041178
19690.0 0.0040928
19710.0 0.0040678
19730.0 0.0040429
19750.0 0.0040181
19770.0 0.0039933
19790.0 0.0039686
19810.0 0.0039439
19830.0 0.0039192
19850.0 0.0038945
19870.0 0.0038694
19890.0 0.0038437
19910.0 0.0038165
19930.0 0.0037871
19950.0 0.0037545
19970.0 0.0037167
19990.0 0.0036728
20010.0 0.0036235
20030.0 0.0035668
20050.0 0.0035031
20070.0 0.0034356
20090.0 0.0033652
20110.0 0.0032893
20130.0 0.0032143
20150.0 0.0031415
20170.0 0.0030683
20190.0 0.0029959
20210.0 0.0029278
20230.0 0.0028619
20250.0 0.0027967
20270.0 0.0027354
20290.0 0.002678
20310.0 0.0026223
20330.0 0.0025685
20350.0 0.0025201
20370.0 0.0024741
20390.0 0.0024301
20410.0 0.0023895
20430.0 0.0023523
20450.0 0.0023165
20470.0 0.0022834
20490.0 0.0022533
20510.0 0.0022253
20530.0 0.002199
20550.0 0.002175
20570.0 0.0021532
20590.0 0.0021327
20610.0 0.0021137
20630.0 0.0020962
20650.0 0.0020799
20670.0 0.0020644
20690.0 0.00205
20710.0 0.0020362
20730.0 0.0020229
20750.0 0.0020099
20770.0 0.0019971
20790.0 0.0019844
20810.0 0.0019716
20830.0 0.0019586
20850.0 0.0019454
20870.0 0.0019317
20890.0 0.0019175
20910.0 0.0019029
20930.0 0.0018878
20950.0 0.0018721
20970.0 0.0018559
20990.0 0.0018394
21010.0 0.001822
21030.0 0.0018042
21050.0 0.0017863
21070.0 0.0017679
21090.0 0.0017488
21110.0 0.0017299
21130.0 0.001711
21150.0 0.0016915
21170.0 0.0016721
21190.0 0.001653
21210.0 0.0016336
21230.0 0.001614
21250.0 0.0015951
21270.0 0.0015763
21290.0 0.0015575
21310.0 0.001539
21330.0 0.0015213
21350.0 0.0015037
21370.0 0.0014864
21390.0 0.0014698
21410.0 0.0014539
21430.0 0.001438
21450.0 0.0014231
21470.0 0.0014091
21490.0 0.0013956
21510.0 0.0013828
21530.0 0.0013709
21550.0 0.0013597
21570.0 0.0013492
21590.0 0.0013395
21610.0 0.0013306
21630.0 0.0013223
21650.0 0.0013148
21670.0 0.001308
21690.0 0.0013017
21710.0 0.001296
21730.0 0.0012908
21750.0 0.001286
21770.0 0.0012817
21790.0 0.0012778
21810.0 0.001274
21830.0 0.0012704
21850.0 0.0012672
21870.0 0.0012639
21890.0 0.0012605
21910.0 0.0012573
21930.0 0.0012539
21950.0 0.0012504
21970.0 0.0012468
21990.0 0.001243
22010.0 0.0012389
22030.0 0.0012346
22050.0 0.0012301
22070.0 0.0012253
22090.0 0.0012202
22110.0 0.001215
22130.0 0.0012094
22150.0 0.0012037
22170.0 0.0011978
22190.0 0.0011916
22210.0 0.0011853
22230.0 0.0011788
22250.0 0.0011722
22270.0 0.0011653
22290.0 0.0011582
22310.0 0.001151
22330.0 0.0011434
22350.0 0.0011355
22370.0 0.0011274
22390.0 0.0011187
22410.0 0.0011095
22430.0 0.0010999
22450.0 0.0010898
22470.0 0.0010789
22490.0 0.0010675
22510.0 0.0010557
22530.0 0.0010429
22550.0 0.0010294
22570.0 0.0010157
22590.0 0.0010015
22610.0 0.00098648
22630.0 0.00097128
22650.0 0.00095634
22670.0 0.00094085
22690.0 0.00092521
22710.0 0.0009101
22730.0 0.00089522
22750.0 0.00088
22770.0 0.00086567
22790.0 0.00085214
22810.0 0.00083886
22830.0 0.00082612
22850.0 0.00081444
22870.0 0.00080331
22890.0 0.00079257
22910.0 0.00078274
22930.0 0.00077369
22950.0 0.00076504
22970.0 0.00075686
22990.0 0.00074955
23010.0 0.00074257
23030.0 0.00073585
23050.0 0.00072955
23070.0 0.00072361
23090.0 0.00071762
23110.0 0.00071181
23130.0 0.00070619
23150.0 0.00070057
23170.0 0.00069484
23190.0 0.00068922
23210.0 0.0006837
23230.0 0.00067804
23250.0 0.00067244
23270.0 0.00066702
23290.0 0.00066165
23310.0 0.00065626
23330.0 0.00065124
23350.0 0.00064645
23370.0 0.00064179
23390.0 0.00063738
23410.0 0.00063332
23430.0 0.00062942
23450.0 0.00062568
23470.0 0.0006222
23490.0 0.00061889
23510.0 0.00061566
23530.0 0.00061256
23550.0 0.00060963
23570.0 0.00060674
23590.0 0.00060391
23610.0 0.00060122
23630.0 0.00059864
23650.0 0.00059616
23670.0 0.0005939
23690.0 0.00059189
23710.0 0.00059017
23730.0 0.00058885
23750.0 0.00058798
23770.0 0.00058761
23790.0 0.00058791
23810.0 0.00058888
23830.0 0.00059049
23850.0 0.00059305
23870.0 0.00059655
23890.0 0.00060069
23910.0 0.00060566
23930.0 0.00061166
23950.0 0.0006183
23970.0 0.00062524
23990.0 0.00063305
24010.0 0.00064136
24030.0 0.00064964
24050.0 0.0006581
24070.0 0.00066718
24090.0 0.00067581
24110.0 0.00068409
