#lamb flux
1010.0 1.7552e-06
1030.0 1.9758e-06
1050.0 2.204e-06
1070.0 2.462e-06
1090.0 2.7641e-06
1110.0 3.0748e-06
1130.0 3.3894e-06
1150.0 3.7215e-06
1170.0 4.068e-06
1190.0 4.4034e-06
1210.0 4.7506e-06
1230.0 5.1177e-06
1250.0 5.4871e-06
1270.0 5.8588e-06
1290.0 6.2621e-06
1310.0 6.6792e-06
1330.0 7.096e-06
1350.0 7.5303e-06
1370.0 7.9891e-06
1390.0 8.4509e-06
1410.0 8.9124e-06
1430.0 9.3987e-06
1450.0 9.8924e-06
1470.0 1.0379e-05
1490.0 1.0872e-05
1510.0 1.1388e-05
1530.0 1.1882e-05
1550.0 1.2369e-05
1570.0 1.2863e-05
1590.0 1.3352e-05
1610.0 1.3813e-05
1630.0 1.4273e-05
1650.0 1.473e-05
1670.0 1.516e-05
1690.0 1.5567e-05
1710.0 1.5972e-05
1730.0 1.6361e-05
1750.0 1.6704e-05
1770.0 1.7038e-05
1790.0 1.7359e-05
1810.0 1.7647e-05
1830.0 1.7906e-05
1850.0 1.8169e-05
1870.0 1.8402e-05
1890.0 1.8603e-05
1910.0 1.8795e-05
1930.0 1.898e-05
1950.0 1.9133e-05
1970.0 1.9267e-05
1990.0 1.9402e-05
2010.0 1.9517e-05
2030.0 1.9606e-05
2050.0 1.9691e-05
2070.0 1.9771e-05
2090.0 1.9815e-05
2110.0 1.9841e-05
2130.0 1.9858e-05
2150.0 1.9848e-05
2170.0 1.9803e-05
2190.0 1.9747e-05
2210.0 1.9667e-05
2230.0 1.9549e-05
2250.0 1.9403e-05
2270.0 1.9244e-05
2290.0 1.9048e-05
2310.0 1.8814e-05
2330.0 1.8563e-05
2350.0 1.8288e-05
2370.0 1.7978e-05
2390.0 1.7646e-05
2410.0 1.7298e-05
2430.0 1.6915e-05
2450.0 1.6499e-05
2470.0 1.6055e-05
2490.0 1.5579e-05
2510.0 1.5075e-05
2530.0 1.4577e-05
2550.0 1.4137e-05
2570.0 1.3816e-05
2590.0 1.3681e-05
2610.0 1.3869e-05
2630.0 1.4417e-05
2650.0 1.5253e-05
2670.0 1.6374e-05
2690.0 1.7696e-05
2710.0 1.8926e-05
2730.0 1.9904e-05
2750.0 2.0599e-05
2770.0 2.0797e-05
2790.0 2.0449e-05
2810.0 1.9605e-05
2830.0 1.8259e-05
2850.0 1.6541e-05
2870.0 1.4551e-05
2890.0 1.2311e-05
2910.0 9.9255e-06
2930.0 7.5171e-06
2950.0 4.9956e-06
2970.0 2.3951e-06
2990.0 1.1973e-06
3010.0 2.6426e-06
3030.0 2.6426e-06
3050.0 2.6426e-06
3070.0 2.6426e-06
3090.0 2.6426e-06
3110.0 2.6426e-06
3130.0 2.6426e-06
3150.0 2.6426e-06
3170.0 2.6426e-06
3190.0 2.6426e-06
3210.0 2.6426e-06
3230.0 7.1964e-05
3250.0 0.00014306
3270.0 0.00014314
3290.0 0.00015423
3310.0 0.00012145
3330.0 0.00012133
3350.0 0.00013466
3370.0 0.00015377
3390.0 0.00017533
3410.0 0.00019842
3430.0 0.00022788
3450.0 0.00025775
3470.0 0.00028898
3490.0 0.00030614
3510.0 0.00029774
3530.0 0.00030158
3550.0 0.00031791
3570.0 0.00032016
3590.0 0.00034136
3610.0 0.00032663
3630.0 0.00040435
3650.0 0.00045364
3670.0 0.00048456
3690.0 0.00045771
3710.0 0.00037663
3730.0 0.00035354
3750.0 0.00031886
3770.0 0.00029454
3790.0 0.00026723
3810.0 0.00025819
3830.0 0.00029679
3850.0 0.00013041
3870.0 0.00023982
3890.0 0.00028334
3910.0 0.00031904
3930.0 0.00039693
3950.0 0.00043149
3970.0 0.00050317
3990.0 0.00061684
4010.0 0.0004637
4030.0 0.00038419
4050.0 0.00029156
4070.0 0.00029986
4090.0 0.00047066
4110.0 0.00044661
4130.0 0.0004815
4150.0 0.00045353
4170.0 0.00043183
4190.0 0.00039282
4210.0 0.00057041
4230.0 0.00059468
4250.0 0.00064676
4270.0 0.00060714
4290.0 0.00061303
4310.0 0.0006879
4330.0 0.00080956
4350.0 0.0008126
4370.0 0.00079128
4390.0 0.00070771
4410.0 0.00065881
4430.0 0.00051749
4450.0 0.00043304
4470.0 0.00048252
4490.0 0.00057514
4510.0 0.00059565
4530.0 0.00061362
4550.0 0.00063677
4570.0 0.00090155
4590.0 0.001333
4610.0 0.0015669
4630.0 0.0015714
4650.0 0.0016455
4670.0 0.0018844
4690.0 0.002059
4710.0 0.0016961
4730.0 0.0012924
4750.0 0.0010261
4770.0 0.00090627
4790.0 0.00084948
4810.0 0.00081006
4830.0 0.00089498
4850.0 0.001037
4870.0 0.0011317
4890.0 0.0011807
4910.0 0.0010878
4930.0 0.0011579
4950.0 0.0014286
4970.0 0.0017025
4990.0 0.0017783
5010.0 0.0016406
5030.0 0.0013635
5050.0 0.0010394
5070.0 0.00082163
5090.0 0.00073698
5110.0 0.00072087
5130.0 0.00073569
5150.0 0.00073331
5170.0 0.00070171
5190.0 0.00066303
5210.0 0.00064759
5230.0 0.00072482
5250.0 0.00083861
5270.0 0.00099757
5290.0 0.0011497
5310.0 0.0012143
5330.0 0.0013154
5350.0 0.0014601
5370.0 0.0015389
5390.0 0.0014003
5410.0 0.0012414
5430.0 0.001202
5450.0 0.0013932
5470.0 0.0017328
5490.0 0.0020373
5510.0 0.0021767
5530.0 0.0021458
5550.0 0.0020454
5570.0 0.0019822
5590.0 0.0019171
5610.0 0.0018943
5630.0 0.0018832
5650.0 0.001884
5670.0 0.0018714
5690.0 0.001722
5710.0 0.0014492
5730.0 0.0012873
5750.0 0.0012191
5770.0 0.0012435
5790.0 0.0012882
5810.0 0.0013473
5830.0 0.0013757
5850.0 0.0013122
5870.0 0.0012302
5890.0 0.0011788
5910.0 0.001215
5930.0 0.0012779
5950.0 0.0012079
5970.0 0.0010728
5990.0 0.00089693
6010.0 0.00072644
6030.0 0.00065982
6050.0 0.00070654
6070.0 0.00075802
6090.0 0.00073809
6110.0 0.00065154
6130.0 0.00065787
6150.0 0.00076126
6170.0 0.00088389
6190.0 0.00098449
6210.0 0.00099768
6230.0 0.00097688
6250.0 0.00089474
6270.0 0.00075418
6290.0 0.00062524
6310.0 0.00055049
6330.0 0.00053379
6350.0 0.00054649
6370.0 0.00054972
6390.0 0.00060486
6410.0 0.00074756
6430.0 0.00093754
6450.0 0.0010762
6470.0 0.001118
6490.0 0.0011022
6510.0 0.0011266
6530.0 0.0011695
6550.0 0.0011594
6570.0 0.0012021
6590.0 0.0012259
6610.0 0.0012477
6630.0 0.0012405
6650.0 0.0011707
6670.0 0.0010706
6690.0 0.0009616
6710.0 0.00089964
6730.0 0.00089731
6750.0 0.00092731
6770.0 0.00095509
6790.0 0.00098179
6810.0 0.0009992
6830.0 0.00097891
6850.0 0.0009374
6870.0 0.00087943
6890.0 0.00085875
6910.0 0.00082349
6930.0 0.00084893
6950.0 0.0009066
6970.0 0.000933
6990.0 0.0009548
7010.0 0.00093176
7030.0 0.00085956
7050.0 0.0007587
7070.0 0.00066564
7090.0 0.00060924
7110.0 0.00060133
7130.0 0.00059982
7150.0 0.0005454
7170.0 0.00051385
7190.0 0.0005517
7210.0 0.00062938
7230.0 0.00072909
7250.0 0.00078058
7270.0 0.0007787
7290.0 0.00071664
7310.0 0.00065696
7330.0 0.00062398
7350.0 0.00062361
7370.0 0.00063689
7390.0 0.0006649
7410.0 0.00073193
7430.0 0.00084898
7450.0 0.000967
7470.0 0.0010318
7490.0 0.0010213
7510.0 0.00095957
7530.0 0.00081699
7550.0 0.00073304
7570.0 0.00064712
7590.0 0.00060575
7610.0 0.000628
7630.0 0.00068908
7650.0 0.00076932
7670.0 0.00084643
7690.0 0.00089768
7710.0 0.00095561
7730.0 0.0010178
7750.0 0.0010719
7770.0 0.0010628
7790.0 0.0010684
7810.0 0.0010932
7830.0 0.0011019
7850.0 0.0010696
7870.0 0.0010312
7890.0 0.0010276
7910.0 0.00098772
7930.0 0.00097456
7950.0 0.00092455
7970.0 0.00090339
7990.0 0.00087571
8010.0 0.00090186
8030.0 0.00090982
8050.0 0.00091936
8070.0 0.00091046
8090.0 0.00090635
8110.0 0.00087157
8130.0 0.00086959
8150.0 0.000857
8170.0 0.00083476
8190.0 0.00081933
8210.0 0.00082031
8230.0 0.00079784
8250.0 0.00077616
8270.0 0.00069672
8290.0 0.00056502
8310.0 0.00042154
8330.0 0.00032179
8350.0 0.00029855
8370.0 0.00035734
8390.0 0.00043579
8410.0 0.00047487
8430.0 0.00049158
8450.0 0.0005165
8470.0 0.00055082
8490.0 0.00061672
8510.0 0.00070479
8530.0 0.00081541
8550.0 0.00092558
8570.0 0.0010202
8590.0 0.0010943
8610.0 0.0011404
8630.0 0.0011505
8650.0 0.0011442
8670.0 0.0011453
8690.0 0.0011993
8710.0 0.0012689
8730.0 0.0013199
8750.0 0.0013148
8770.0 0.0013323
8790.0 0.0013255
8810.0 0.0012428
8830.0 0.0011788
8850.0 0.0010907
8870.0 0.0010192
8890.0 0.00099328
8910.0 0.00099905
8930.0 0.00094628
8950.0 0.00088927
8970.0 0.00086632
8990.0 0.00085749
9010.0 0.00082465
9030.0 0.000806
9050.0 0.00079963
9070.0 0.00079668
9090.0 0.0007941
9110.0 0.00079162
9130.0 0.00078909
9150.0 0.00078659
9170.0 0.00078368
9190.0 0.00078135
9210.0 0.00078282
9230.0 0.00077884
9250.0 0.00077558
9270.0 0.00077269
9290.0 0.00077005
9310.0 0.00076749
9330.0 0.00076502
9350.0 0.00076272
9370.0 0.00076043
9390.0 0.00075808
9410.0 0.00075582
9430.0 0.0007535
9450.0 0.00075033
9470.0 0.00074746
9490.0 0.00074607
9510.0 0.00074424
9530.0 0.00074227
9550.0 0.00074026
9570.0 0.0007382
9590.0 0.00073608
9610.0 0.00073396
9630.0 0.00073185
9650.0 0.00072973
9670.0 0.0007276
9690.0 0.0007255
9710.0 0.0007234
9730.0 0.00072129
9750.0 0.00071918
9770.0 0.00071711
9790.0 0.00071501
9810.0 0.00071289
9830.0 0.0007108
9850.0 0.00070871
9870.0 0.00070658
9890.0 0.00070445
9910.0 0.00070232
9930.0 0.00070009
9950.0 0.00069223
9970.0 0.00069176
9990.0 0.00069095
10010.0 0.00068993
10030.0 0.00068843
10050.0 0.00068653
10070.0 0.00068453
10090.0 0.00068255
10110.0 0.00068019
10130.0 0.000678
10150.0 0.00067576
10170.0 0.00067332
10190.0 0.00067067
10210.0 0.00066826
10230.0 0.0006659
10250.0 0.00066328
10270.0 0.00066068
10290.0 0.00065825
10310.0 0.00065558
10330.0 0.00065269
10350.0 0.00065003
10370.0 0.00064735
10390.0 0.00064441
10410.0 0.00064146
10430.0 0.00063872
10450.0 0.00063573
10470.0 0.00063257
10490.0 0.00062956
10510.0 0.00062652
10530.0 0.00062308
10550.0 0.00061975
10570.0 0.00061657
10590.0 0.00061314
10610.0 0.00060955
10630.0 0.00060615
10650.0 0.00060266
10670.0 0.00059881
10690.0 0.00059505
10710.0 0.00059137
10730.0 0.00058743
10750.0 0.00058323
10770.0 0.00057937
10790.0 0.00057535
10810.0 0.00057104
10830.0 0.00056678
10850.0 0.00056266
10870.0 0.00055805
10890.0 0.00055335
10910.0 0.00054878
10930.0 0.00054397
10950.0 0.0005387
10970.0 0.00053335
10990.0 0.000528
11010.0 0.0005449
11030.0 0.0005383
11050.0 0.0005319
11070.0 0.00052539
11090.0 0.00051848
11110.0 0.00051216
11130.0 0.00050612
11150.0 0.0005
11170.0 0.00049403
11190.0 0.00048854
11210.0 0.00048299
11230.0 0.00047734
11250.0 0.00047197
11270.0 0.00046675
11290.0 0.0004613
11310.0 0.00045585
11330.0 0.00045078
11350.0 0.00044552
11370.0 0.00044008
11390.0 0.00043476
11410.0 0.00042942
11430.0 0.00042356
11450.0 0.00041759
11470.0 0.00041159
11490.0 0.00040516
11510.0 0.00039818
11530.0 0.00039121
11550.0 0.00038401
11570.0 0.0003762
11590.0 0.00036822
11610.0 0.00036031
11630.0 0.00035192
11650.0 0.00034322
11670.0 0.00033489
11690.0 0.0003266
11710.0 0.0003181
11730.0 0.00030984
11750.0 0.0003021
11770.0 0.00029428
11790.0 0.00028662
11810.0 0.00027949
11830.0 0.00027264
11850.0 0.00026573
11870.0 0.00025932
11890.0 0.00025337
11910.0 0.00024749
11930.0 0.00024179
11950.0 0.00023653
11970.0 0.00023144
11990.0 0.00022634
12010.0 0.00022159
12030.0 0.00021714
12050.0 0.00021277
12070.0 0.00020856
12090.0 0.00020483
12110.0 0.0002013
12130.0 0.00019798
12150.0 0.00019505
12170.0 0.00019251
12190.0 0.0001902
12210.0 0.00018832
12230.0 0.00018687
12250.0 0.00018581
12270.0 0.00018514
12290.0 0.0001849
12310.0 0.00018505
12330.0 0.00018561
12350.0 0.00018658
12370.0 0.00018786
12390.0 0.00018951
12410.0 0.00019163
12430.0 0.00019393
12450.0 0.00019646
12470.0 0.00019933
12490.0 0.00020238
12510.0 0.00020541
12530.0 0.00020861
12550.0 0.0002119
12570.0 0.00021499
12590.0 0.00021789
12610.0 0.0002207
12630.0 0.00022316
12650.0 0.00022508
12670.0 0.00022664
12690.0 0.00022773
12710.0 0.00022824
12730.0 0.00022822
12750.0 0.00022766
12770.0 0.00022655
12790.0 0.00022498
12810.0 0.00022295
12830.0 0.00022048
12850.0 0.00021779
12870.0 0.00021489
12890.0 0.00021174
12910.0 0.00020852
12930.0 0.00020536
12950.0 0.00020212
12970.0 0.00019889
12990.0 0.00019587
13010.0 0.00019296
13030.0 0.00019008
13050.0 0.00018734
13070.0 0.00018478
13090.0 0.00018221
13110.0 0.0001797
13130.0 0.0001773
13150.0 0.00017494
13170.0 0.00017251
13190.0 0.00017017
13210.0 0.00016792
13230.0 0.00016565
13250.0 0.00016344
13270.0 0.00016138
13290.0 0.00015942
13310.0 0.00015755
13330.0 0.00015592
13350.0 0.00015453
13370.0 0.00015334
13390.0 0.00015239
13410.0 0.00015172
13430.0 0.00015125
13450.0 0.00015096
13470.0 0.00015081
13490.0 0.00015072
13510.0 0.00015066
13530.0 0.00015052
13550.0 0.00015026
13570.0 0.00014982
13590.0 0.00014914
13610.0 0.00014822
13630.0 0.00014708
13650.0 0.00014564
13670.0 0.00014397
13690.0 0.00014216
13710.0 0.00014019
13730.0 0.00013802
13750.0 0.00013592
13770.0 0.00013386
13790.0 0.00013179
13810.0 0.00012984
13830.0 0.00012809
13850.0 0.00012645
13870.0 0.00012495
13890.0 0.00012366
13910.0 0.00012254
13930.0 0.00012154
13950.0 0.00012069
13970.0 0.00011998
13990.0 0.00011934
14010.0 0.00011877
14030.0 0.00011825
14050.0 0.00011775
14070.0 0.00011723
14090.0 0.00011669
14110.0 0.00011613
14130.0 0.00011551
14150.0 0.0001148
14170.0 0.00011405
14190.0 0.00011323
14210.0 0.00011232
14230.0 0.00011137
14250.0 0.0001104
14270.0 0.00010937
14290.0 0.00010833
14310.0 0.00010737
14330.0 0.00010644
14350.0 0.00010555
14370.0 0.00010477
14390.0 0.00010411
14410.0 0.00010354
14430.0 0.00010307
14450.0 0.00010273
14470.0 0.00010248
14490.0 0.00010233
14510.0 0.00010226
14530.0 0.00010226
14550.0 0.00010233
14570.0 0.00010246
14590.0 0.00010264
14610.0 0.00010288
14630.0 0.00010321
14650.0 0.0001036
14670.0 0.00010408
14690.0 0.00010467
14710.0 0.00010537
14730.0 0.00010615
14750.0 0.00010705
14770.0 0.0001081
14790.0 0.00010925
14810.0 0.00011049
14830.0 0.00011196
14850.0 0.00011356
14870.0 0.00011525
14890.0 0.0001171
14910.0 0.00011911
14930.0 0.00012111
14950.0 0.00012304
14970.0 0.00012494
14990.0 0.00012661
15010.0 0.00012796
15030.0 0.00012904
15050.0 0.00012986
15070.0 0.00013037
15090.0 0.00013071
15110.0 0.00013092
15130.0 0.00013105
15150.0 0.00013113
15170.0 0.00013119
15190.0 0.00013124
15210.0 0.00013129
15230.0 0.00013134
15250.0 0.00013139
15270.0 0.00013144
15290.0 0.0001315
15310.0 0.00013156
15330.0 0.00013162
15350.0 0.00013169
15370.0 0.00013175
15390.0 0.00013182
15410.0 0.00013189
15430.0 0.00013196
15450.0 0.00013203
15470.0 0.0001321
15490.0 0.00013218
15510.0 0.00013226
15530.0 0.00013234
15550.0 0.00013242
15570.0 0.0001325
15590.0 0.00013258
15610.0 0.00013267
15630.0 0.00013275
15650.0 0.00013284
15670.0 0.00013293
15690.0 0.00013302
15710.0 0.00013311
15730.0 0.0001332
15750.0 0.00013329
15770.0 0.00013338
15790.0 0.00013347
15810.0 0.00013357
15830.0 0.00013366
15850.0 0.00013375
15870.0 0.00013385
15890.0 0.00013394
15910.0 0.00013404
15930.0 0.00013413
15950.0 0.00013423
15970.0 0.00013432
15990.0 0.00013442
16010.0 0.00013451
16030.0 0.0001346
16050.0 0.0001347
16070.0 0.00013479
16090.0 0.00013488
16110.0 0.00013498
16130.0 0.00013507
16150.0 0.00013516
16170.0 0.00013525
16190.0 0.00013533
16210.0 0.00013542
16230.0 0.00013551
16250.0 0.00013559
16270.0 0.00013568
16290.0 0.00013576
16310.0 0.00013584
16330.0 0.00013592
16350.0 0.000136
16370.0 0.00013607
16390.0 0.00013615
16410.0 0.00013622
16430.0 0.00013629
16450.0 0.00013635
16470.0 0.00013642
16490.0 0.00013648
16510.0 0.00013654
16530.0 0.0001366
16550.0 0.00013666
16570.0 0.00013671
16590.0 0.00013676
16610.0 0.00013681
16630.0 0.00013686
16650.0 0.0001369
16670.0 0.00013694
16690.0 0.00013697
16710.0 0.00013701
16730.0 0.00013703
16750.0 0.00013706
16770.0 0.00013708
16790.0 0.0001371
16810.0 0.00013712
16830.0 0.00013713
16850.0 0.00013714
16870.0 0.00013714
16890.0 0.00013714
16910.0 0.00013714
16930.0 0.00013713
16950.0 0.00013712
16970.0 0.0001371
16990.0 0.00013708
17010.0 0.00013706
17030.0 0.00013703
17050.0 0.00013699
17070.0 0.00013695
17090.0 0.00013691
17110.0 0.00013687
17130.0 0.00013681
17150.0 0.00013675
17170.0 0.00013669
17190.0 0.00013663
17210.0 0.00013655
17230.0 0.00013648
17250.0 0.0001364
17270.0 0.00013631
17290.0 0.00013622
17310.0 0.00013612
17330.0 0.00013602
17350.0 0.00013591
17370.0 0.0001358
17390.0 0.00013568
17410.0 0.00013556
17430.0 0.00013543
17450.0 0.0001353
17470.0 0.00013515
17490.0 0.00013501
17510.0 0.00013486
17530.0 0.00013471
17550.0 0.00013454
17570.0 0.00013438
17590.0 0.00013421
17610.0 0.00013403
17630.0 0.00013384
17650.0 0.00013366
17670.0 0.00013346
17690.0 0.00013326
17710.0 0.00013306
17730.0 0.00013285
17750.0 0.00013263
17770.0 0.00013241
17790.0 0.00013219
17810.0 0.00013196
17830.0 0.00013172
17850.0 0.00013148
17870.0 0.00013123
17890.0 0.00013097
17910.0 0.00013072
17930.0 0.00013045
17950.0 0.00013019
17970.0 0.00012991
17990.0 0.00012963
18010.0 0.00012935
18030.0 0.00012906
18050.0 0.00012877
18070.0 0.00012847
18090.0 0.00012817
18110.0 0.00012786
18130.0 0.00012755
18150.0 0.00012723
18170.0 0.00012691
18190.0 0.00012658
18210.0 0.00012625
18230.0 0.00012591
18250.0 0.00012557
18270.0 0.00012523
18290.0 0.00012488
18310.0 0.00012453
18330.0 0.00012417
18350.0 0.00012381
18370.0 0.00012345
18390.0 0.00012308
18410.0 0.00012271
18430.0 0.00012233
18450.0 0.00012195
18470.0 0.00012157
18490.0 0.00012118
18510.0 0.00012079
18530.0 0.0001204
18550.0 0.00012
18570.0 0.0001196
18590.0 0.0001192
18610.0 0.0001188
18630.0 0.00011839
18650.0 0.00011798
18670.0 0.00011756
18690.0 0.00011715
18710.0 0.00011673
18730.0 0.00011631
18750.0 0.00011588
18770.0 0.00011546
18790.0 0.00011503
18810.0 0.0001146
18830.0 0.00011417
18850.0 0.00011373
18870.0 0.0001133
18890.0 0.00011286
18910.0 0.00011242
18930.0 0.00011198
18950.0 0.00011154
18970.0 0.0001111
18990.0 0.00011065
19010.0 0.0001102
19030.0 0.00010976
19050.0 0.00010931
19070.0 0.00010886
19090.0 0.00010841
19110.0 0.00010796
19130.0 0.00010751
19150.0 0.00010706
19170.0 0.00010661
19190.0 0.00010615
19210.0 0.0001057
19230.0 0.00010525
19250.0 0.00010479
19270.0 0.00010434
19290.0 0.00010389
19310.0 0.00010343
19330.0 0.00010298
19350.0 0.00010252
19370.0 0.00010207
19390.0 0.00010162
19410.0 0.00010117
19430.0 0.00010071
19450.0 0.00010026
19470.0 9.9811e-05
19490.0 9.936e-05
19510.0 9.891e-05
19530.0 9.8462e-05
19550.0 9.8013e-05
19570.0 9.7564e-05
19590.0 9.7119e-05
19610.0 9.6674e-05
19630.0 9.6228e-05
19650.0 9.5785e-05
19670.0 9.5344e-05
19690.0 9.4902e-05
19710.0 9.4462e-05
19730.0 9.4024e-05
19750.0 9.3587e-05
19770.0 9.315e-05
19790.0 9.2716e-05
19810.0 9.2283e-05
19830.0 9.1849e-05
19850.0 9.1412e-05
19870.0 9.097e-05
19890.0 9.0511e-05
19910.0 9.0016e-05
19930.0 8.9472e-05
19950.0 8.8851e-05
19970.0 8.8106e-05
19990.0 8.7215e-05
20010.0 8.6197e-05
20030.0 8.5e-05
20050.0 8.3632e-05
20070.0 8.2174e-05
20090.0 8.064e-05
20110.0 7.8974e-05
20130.0 7.7326e-05
20150.0 7.5726e-05
20170.0 7.4115e-05
20190.0 7.2521e-05
20210.0 7.1026e-05
20230.0 6.958e-05
20250.0 6.8143e-05
20270.0 6.6789e-05
20290.0 6.5518e-05
20310.0 6.4275e-05
20330.0 6.3059e-05
20350.0 6.1959e-05
20370.0 6.0899e-05
20390.0 5.9865e-05
20410.0 5.8895e-05
20430.0 5.7996e-05
20450.0 5.7109e-05
20470.0 5.6273e-05
20490.0 5.5508e-05
20510.0 5.4786e-05
20530.0 5.4099e-05
20550.0 5.3475e-05
20570.0 5.2915e-05
20590.0 5.239e-05
20610.0 5.1918e-05
20630.0 5.1503e-05
20650.0 5.1133e-05
20670.0 5.0804e-05
20690.0 5.0527e-05
20710.0 5.0289e-05
20730.0 5.0089e-05
20750.0 4.9924e-05
20770.0 4.9785e-05
20790.0 4.9672e-05
20810.0 4.9583e-05
20830.0 4.9505e-05
20850.0 4.9436e-05
20870.0 4.9377e-05
20890.0 4.9318e-05
20910.0 4.9247e-05
20930.0 4.9169e-05
20950.0 4.9078e-05
20970.0 4.8965e-05
20990.0 4.883e-05
21010.0 4.8673e-05
21030.0 4.8487e-05
21050.0 4.8272e-05
21070.0 4.8028e-05
21090.0 4.7749e-05
21110.0 4.7445e-05
21130.0 4.7115e-05
21150.0 4.6753e-05
21170.0 4.6366e-05
21190.0 4.5965e-05
21210.0 4.5534e-05
21230.0 4.5078e-05
21250.0 4.4619e-05
21270.0 4.4148e-05
21290.0 4.3656e-05
21310.0 4.316e-05
21330.0 4.2676e-05
21350.0 4.2179e-05
21370.0 4.168e-05
21390.0 4.1198e-05
21410.0 4.0728e-05
21430.0 4.0252e-05
21450.0 3.9805e-05
21470.0 3.9386e-05
21490.0 3.8984e-05
21510.0 3.8606e-05
21530.0 3.8267e-05
21550.0 3.7958e-05
21570.0 3.7677e-05
21590.0 3.7437e-05
21610.0 3.7235e-05
21630.0 3.7069e-05
21650.0 3.6941e-05
21670.0 3.6849e-05
21690.0 3.679e-05
21710.0 3.6766e-05
21730.0 3.677e-05
21750.0 3.6793e-05
21770.0 3.6849e-05
21790.0 3.6922e-05
21810.0 3.7001e-05
21830.0 3.7092e-05
21850.0 3.7194e-05
21870.0 3.7291e-05
21890.0 3.7377e-05
21910.0 3.7464e-05
21930.0 3.754e-05
21950.0 3.7597e-05
21970.0 3.7641e-05
21990.0 3.7675e-05
22010.0 3.7684e-05
22030.0 3.7673e-05
22050.0 3.7647e-05
22070.0 3.7603e-05
22090.0 3.7539e-05
22110.0 3.7461e-05
22130.0 3.7368e-05
22150.0 3.7261e-05
22170.0 3.7142e-05
22190.0 3.701e-05
22210.0 3.6867e-05
22230.0 3.6716e-05
22250.0 3.6554e-05
22270.0 3.6381e-05
22290.0 3.6199e-05
22310.0 3.6008e-05
22330.0 3.58e-05
22350.0 3.5579e-05
22370.0 3.5348e-05
22390.0 3.5097e-05
22410.0 3.4823e-05
22430.0 3.4538e-05
22450.0 3.4234e-05
22470.0 3.3901e-05
22490.0 3.3548e-05
22510.0 3.3184e-05
22530.0 3.2786e-05
22550.0 3.2362e-05
22570.0 3.1933e-05
22590.0 3.149e-05
22610.0 3.102e-05
22630.0 3.0545e-05
22650.0 3.0081e-05
22670.0 2.9601e-05
22690.0 2.9118e-05
22710.0 2.8655e-05
22730.0 2.8202e-05
