#lamb flux
1010.0 1.0533e-08
1030.0 1.1649e-08
1050.0 1.2933e-08
1070.0 1.4379e-08
1090.0 1.6021e-08
1110.0 1.7705e-08
1130.0 1.94e-08
1150.0 2.1176e-08
1170.0 2.3008e-08
1190.0 2.4744e-08
1210.0 2.6505e-08
1230.0 2.8324e-08
1250.0 3.0106e-08
1270.0 3.1837e-08
1290.0 3.3665e-08
1310.0 3.5493e-08
1330.0 3.7245e-08
1350.0 3.9018e-08
1370.0 4.0847e-08
1390.0 4.2631e-08
1410.0 4.4362e-08
1430.0 4.6172e-08
1450.0 4.7982e-08
1470.0 4.9731e-08
1490.0 5.1499e-08
1510.0 5.3367e-08
1530.0 5.5137e-08
1550.0 5.6883e-08
1570.0 5.869e-08
1590.0 6.0499e-08
1610.0 6.2228e-08
1630.0 6.4012e-08
1650.0 6.5842e-08
1670.0 6.7614e-08
1690.0 6.9365e-08
1710.0 7.1184e-08
1730.0 7.3015e-08
1750.0 7.4738e-08
1770.0 7.6514e-08
1790.0 7.8327e-08
1810.0 8.0085e-08
1830.0 8.1815e-08
1850.0 8.3653e-08
1870.0 8.5447e-08
1890.0 8.7183e-08
1910.0 8.8958e-08
1930.0 9.0779e-08
1950.0 9.2521e-08
1970.0 9.4247e-08
1990.0 9.6041e-08
2010.0 9.7809e-08
2030.0 9.9519e-08
2050.0 1.0128e-07
2070.0 1.031e-07
2090.0 1.0481e-07
2110.0 1.0653e-07
2130.0 1.083e-07
2150.0 1.1004e-07
2170.0 1.117e-07
2190.0 1.1344e-07
2210.0 1.1518e-07
2230.0 1.1686e-07
2250.0 1.1853e-07
2270.0 1.2029e-07
2290.0 1.2199e-07
2310.0 1.2362e-07
2330.0 1.2532e-07
2350.0 1.2706e-07
2370.0 1.288e-07
2390.0 1.3068e-07
2410.0 1.3291e-07
2430.0 1.3548e-07
2450.0 1.3854e-07
2470.0 1.4247e-07
2490.0 1.4742e-07
2510.0 1.5305e-07
2530.0 1.5983e-07
2550.0 1.6831e-07
2570.0 1.7885e-07
2590.0 1.9258e-07
2610.0 2.1312e-07
2630.0 2.4245e-07
2650.0 2.8081e-07
2670.0 3.3039e-07
2690.0 3.9133e-07
2710.0 4.5638e-07
2730.0 5.2065e-07
2750.0 5.8396e-07
2770.0 6.3903e-07
2790.0 6.8275e-07
2810.0 7.1746e-07
2830.0 7.4457e-07
2850.0 7.6307e-07
2870.0 7.7666e-07
2890.0 7.8741e-07
2910.0 7.96e-07
2930.0 8.0301e-07
2950.0 8.0971e-07
2970.0 8.1625e-07
2990.0 8.2239e-07
3010.0 2.3245e-05
3030.0 2.3419e-05
3050.0 2.3587e-05
3070.0 2.3731e-05
3090.0 2.3855e-05
3110.0 2.3931e-05
3130.0 2.3928e-05
3150.0 2.3822e-05
3170.0 2.3567e-05
3190.0 2.3166e-05
3210.0 2.2658e-05
3230.0 2.2076e-05
3250.0 2.1502e-05
3270.0 2.1083e-05
3290.0 2.085e-05
3310.0 2.0888e-05
3330.0 2.119e-05
3350.0 2.1716e-05
3370.0 2.2468e-05
3390.0 2.3415e-05
3410.0 2.4446e-05
3430.0 2.5604e-05
3450.0 2.6936e-05
3470.0 2.8391e-05
3490.0 2.9933e-05
3510.0 3.1676e-05
3530.0 3.3542e-05
3550.0 3.5432e-05
3570.0 3.7403e-05
3590.0 3.9547e-05
3610.0 4.1756e-05
3630.0 4.3958e-05
3650.0 4.6242e-05
3670.0 4.8328e-05
3690.0 4.9887e-05
3710.0 5.0781e-05
3730.0 5.0811e-05
3750.0 5.0104e-05
3770.0 4.9826e-05
3790.0 4.9529e-05
3810.0 4.8312e-05
3830.0 4.9808e-05
3850.0 5.5691e-05
3870.0 5.892e-05
3890.0 5.8651e-05
3910.0 5.8902e-05
3930.0 6.0452e-05
3950.0 6.1407e-05
3970.0 5.5947e-05
3990.0 4.814e-05
4010.0 0.00014428
4030.0 0.00017482
4050.0 0.00020042
4070.0 0.0001739
4090.0 0.0001575
4110.0 0.00013898
4130.0 0.00012791
4150.0 0.00013606
4170.0 0.00013403
4190.0 0.00014286
4210.0 0.00014156
4230.0 0.00014973
4250.0 0.00017713
4270.0 0.00017921
4290.0 0.00016514
4310.0 0.0001716
4330.0 0.00018253
4350.0 0.00020466
4370.0 0.0002329
4390.0 0.00021856
4410.0 0.00016147
4430.0 0.0001367
4450.0 0.00012561
4470.0 9.641e-05
4490.0 0.00010404
4510.0 0.00015715
4530.0 0.00018124
4550.0 0.00018282
4570.0 0.00020571
4590.0 0.00023433
4610.0 0.00031605
4630.0 0.00041049
4650.0 0.00044517
4670.0 0.00041227
4690.0 0.00039338
4710.0 0.00041583
4730.0 0.00039242
4750.0 0.00029339
4770.0 0.00021521
4790.0 0.00020096
4810.0 0.00019155
4830.0 0.00017536
4850.0 0.00019243
4870.0 0.00025422
4890.0 0.0002998
4910.0 0.00026303
4930.0 0.00023275
4950.0 0.00025571
4970.0 0.00032793
4990.0 0.00044442
5010.0 0.00051125
5030.0 0.0004508
5050.0 0.000305
5070.0 0.00020101
5090.0 0.00016208
5110.0 0.00016669
5130.0 0.00019238
5150.0 0.00020843
5170.0 0.0002053
5190.0 0.00019184
5210.0 0.00020052
5230.0 0.00021079
5250.0 0.00022717
5270.0 0.00024511
5290.0 0.00027163
5310.0 0.00031617
5330.0 0.00034988
5350.0 0.00034765
5370.0 0.00036518
5390.0 0.00041905
5410.0 0.00041867
5430.0 0.00037026
5450.0 0.00034018
5470.0 0.00036121
5490.0 0.0004413
5510.0 0.00055178
5530.0 0.00063287
5550.0 0.00061168
5570.0 0.00055606
5590.0 0.0004835
5610.0 0.0004459
5630.0 0.00043239
5650.0 0.00041181
5670.0 0.00039022
5690.0 0.00034886
5710.0 0.00034014
5730.0 0.00031333
5750.0 0.00022091
5770.0 0.00017235
5790.0 0.00019531
5810.0 0.00022054
5830.0 0.00027063
5850.0 0.00032216
5870.0 0.00035744
5890.0 0.0003635
5910.0 0.00035662
5930.0 0.00033946
5950.0 0.0003459
5970.0 0.00039429
5990.0 0.00037074
6010.0 0.00031079
6030.0 0.00026257
6050.0 0.00022867
6070.0 0.00022742
6090.0 0.0002466
6110.0 0.00027574
6130.0 0.00027996
6150.0 0.00024088
6170.0 0.0002119
6190.0 0.00023846
6210.0 0.00031524
6230.0 0.00041369
6250.0 0.00044808
6270.0 0.00039157
6290.0 0.00032944
6310.0 0.00025719
6330.0 0.00019706
6350.0 0.00017577
6370.0 0.00018484
6390.0 0.00021369
6410.0 0.00026348
6430.0 0.00030768
6450.0 0.00035206
6470.0 0.00040312
6490.0 0.00048694
6510.0 0.00054446
6530.0 0.00053415
6550.0 0.00048302
6570.0 0.00041004
6590.0 0.00036974
6610.0 0.00031881
6630.0 0.00028883
6650.0 0.00027303
6670.0 0.00026524
6690.0 0.00023966
6710.0 0.00021786
6730.0 0.00015692
6750.0 0.00015557
6770.0 0.00016909
6790.0 0.00019436
6810.0 0.00017784
6830.0 0.00018313
6850.0 0.00017128
6870.0 0.00015647
6890.0 0.00015023
6910.0 0.00016009
6930.0 0.00014995
6950.0 0.00015427
6970.0 0.00016226
6990.0 0.00018418
7010.0 0.00018575
7030.0 0.0001887
7050.0 0.00017996
7070.0 0.00017147
7090.0 0.00017197
7110.0 0.00017694
7130.0 0.00019042
7150.0 0.00020224
7170.0 0.00022316
7190.0 0.00024531
7210.0 0.00024105
7230.0 0.00024781
7250.0 0.00026631
7270.0 0.00029021
7290.0 0.00034445
7310.0 0.00037376
7330.0 0.00036127
7350.0 0.00032675
7370.0 0.0002843
7390.0 0.00027581
7410.0 0.0002931
7430.0 0.00032574
7450.0 0.00035479
7470.0 0.00035153
7490.0 0.00032053
7510.0 0.00036308
7530.0 0.00035911
7550.0 0.00032277
7570.0 0.00025215
7590.0 0.00017334
7610.0 0.00014878
7630.0 0.00016904
7650.0 0.00019987
7670.0 0.00024875
7690.0 0.00027373
7710.0 0.00028526
7730.0 0.00029977
7750.0 0.00033653
7770.0 0.00034182
7790.0 0.00031398
7810.0 0.00028648
7830.0 0.00029543
7850.0 0.00028718
7870.0 0.0002633
7890.0 0.00022122
7910.0 0.00017982
7930.0 0.0001717
7950.0 0.00015643
7970.0 0.0001448
7990.0 0.00014398
8010.0 1.0663e-05
8030.0 1.0525e-05
8050.0 1.0383e-05
8070.0 1.0519e-05
8090.0 1.1302e-05
8110.0 1.1109e-05
8130.0 9.1638e-06
8150.0 8.9245e-06
8170.0 7.6872e-06
8190.0 7.2852e-06
8210.0 9.4606e-06
8230.0 1.0533e-05
8250.0 9.4934e-06
8270.0 8.2627e-06
8290.0 8.0546e-06
8310.0 6.1991e-06
8330.0 4.1782e-06
8350.0 2.9652e-06
8370.0 1.8682e-06
8390.0 3.4151e-06
8410.0 3.9795e-06
8430.0 4.9053e-06
8450.0 5.7602e-06
8470.0 7.1595e-06
8490.0 7.1091e-06
8510.0 6.9928e-06
8530.0 7.298e-06
8550.0 9.8464e-06
8570.0 1.1657e-05
8590.0 1.2577e-05
8610.0 1.5888e-05
8630.0 1.9139e-05
8650.0 2.0022e-05
8670.0 2.1277e-05
8690.0 2.1396e-05
8710.0 1.9377e-05
8730.0 1.8024e-05
8750.0 1.591e-05
8770.0 1.5096e-05
8790.0 1.4831e-05
8810.0 1.4211e-05
8830.0 1.1364e-05
8850.0 8.3193e-06
8870.0 6.3699e-06
8890.0 6.2276e-06
8910.0 7.137e-06
8930.0 8.1178e-06
8950.0 8.2733e-06
8970.0 8.3124e-06
8990.0 7.4136e-06
9010.0 7.7691e-05
9030.0 7.0397e-05
9050.0 7.0737e-05
9070.0 7.1296e-05
9090.0 7.1786e-05
9110.0 7.239e-05
9130.0 7.2857e-05
9150.0 7.322e-05
9170.0 7.3606e-05
9190.0 7.4019e-05
9210.0 7.4454e-05
9230.0 7.4913e-05
9250.0 7.5379e-05
9270.0 7.5862e-05
9290.0 7.6361e-05
9310.0 7.6862e-05
9330.0 7.7373e-05
9350.0 7.7904e-05
9370.0 7.844e-05
9390.0 7.8982e-05
9410.0 7.954e-05
9430.0 8.0114e-05
9450.0 8.0686e-05
9470.0 8.127e-05
9490.0 8.1871e-05
9510.0 8.2479e-05
9530.0 8.309e-05
9550.0 8.3723e-05
9570.0 8.4366e-05
9590.0 8.5011e-05
9610.0 8.5667e-05
9630.0 8.6341e-05
9650.0 8.702e-05
9670.0 8.7701e-05
9690.0 8.84e-05
9710.0 8.911e-05
9730.0 8.9821e-05
9750.0 9.0543e-05
9770.0 9.1286e-05
9790.0 9.2028e-05
9810.0 9.2774e-05
9830.0 9.3536e-05
9850.0 9.4307e-05
9870.0 9.5076e-05
9890.0 9.5857e-05
9910.0 9.6653e-05
9930.0 9.7449e-05
9950.0 9.8248e-05
9970.0 9.9063e-05
9990.0 9.9886e-05
10010.0 8.6675e-05
10030.0 8.7386e-05
10050.0 8.8113e-05
10070.0 8.8863e-05
10090.0 8.9571e-05
10110.0 9.0296e-05
10130.0 9.1025e-05
10150.0 9.175e-05
10170.0 9.2485e-05
10190.0 9.3232e-05
10210.0 9.3971e-05
10230.0 9.4707e-05
10250.0 9.5456e-05
10270.0 9.6203e-05
10290.0 9.6942e-05
10310.0 9.7689e-05
10330.0 9.8445e-05
10350.0 9.9187e-05
10370.0 9.9927e-05
10390.0 0.00010068
10410.0 0.00010142
10430.0 0.00010215
10450.0 0.00010289
10470.0 0.00010363
10490.0 0.00010435
10510.0 0.00010508
10530.0 0.00010581
10550.0 0.00010653
10570.0 0.00010724
10590.0 0.00010795
10610.0 0.00010866
10630.0 0.00010935
10650.0 0.00011004
10670.0 0.00011073
10690.0 0.00011141
10710.0 0.00011208
10730.0 0.00011274
10750.0 0.00011341
10770.0 0.00011405
10790.0 0.00011469
10810.0 0.00011532
10830.0 0.00011594
10850.0 0.00011652
10870.0 0.00011709
10890.0 0.00011759
10910.0 0.00011797
10930.0 0.00011819
10950.0 0.00011814
10970.0 0.00011774
10990.0 0.00011695
11010.0 0.00011564
11030.0 0.0001138
11050.0 0.00011156
11070.0 0.00010888
11090.0 0.00010565
11110.0 0.00010232
11130.0 9.8847e-05
11150.0 9.5105e-05
11170.0 9.1247e-05
11190.0 8.7505e-05
11210.0 8.3641e-05
11230.0 7.9679e-05
11250.0 7.5893e-05
11270.0 7.2257e-05
11290.0 6.8614e-05
11310.0 6.5163e-05
11330.0 6.2124e-05
11350.0 5.9254e-05
11370.0 5.6601e-05
11390.0 5.4305e-05
11410.0 5.2298e-05
11430.0 5.0432e-05
11450.0 4.8825e-05
11470.0 4.7434e-05
11490.0 4.6141e-05
11510.0 4.4895e-05
11530.0 4.3738e-05
11550.0 4.259e-05
11570.0 4.1364e-05
11590.0 4.0095e-05
11610.0 3.8803e-05
11630.0 3.7397e-05
11650.0 3.5891e-05
11670.0 3.4408e-05
11690.0 3.2903e-05
11710.0 3.1351e-05
11730.0 2.9847e-05
11750.0 2.8455e-05
11770.0 2.709e-05
11790.0 2.5811e-05
11810.0 2.4684e-05
11830.0 2.3677e-05
11850.0 2.275e-05
11870.0 2.1974e-05
11890.0 2.1328e-05
11910.0 2.0762e-05
11930.0 2.0274e-05
11950.0 1.9869e-05
11970.0 1.9506e-05
11990.0 1.9164e-05
12010.0 1.8847e-05
12030.0 1.8541e-05
12050.0 1.8225e-05
12070.0 1.7897e-05
12090.0 1.758e-05
12110.0 1.7259e-05
12130.0 1.6937e-05
12150.0 1.664e-05
12170.0 1.638e-05
12190.0 1.6156e-05
12210.0 1.6e-05
12230.0 1.5924e-05
12250.0 1.5936e-05
12270.0 1.6057e-05
12290.0 1.6284e-05
12310.0 1.661e-05
12330.0 1.7065e-05
12350.0 1.7634e-05
12370.0 1.8282e-05
12390.0 1.9029e-05
12410.0 1.9904e-05
12430.0 2.0794e-05
12450.0 2.1715e-05
12470.0 2.2694e-05
12490.0 2.3678e-05
12510.0 2.4601e-05
12530.0 2.5519e-05
12550.0 2.6405e-05
12570.0 2.7186e-05
12590.0 2.7873e-05
12610.0 2.8484e-05
12630.0 2.8972e-05
12650.0 2.9309e-05
12670.0 2.953e-05
12690.0 2.9618e-05
12710.0 2.957e-05
12730.0 2.9398e-05
12750.0 2.9092e-05
12770.0 2.8673e-05
12790.0 2.8164e-05
12810.0 2.7556e-05
12830.0 2.6853e-05
12850.0 2.6118e-05
12870.0 2.534e-05
12890.0 2.4499e-05
12910.0 2.3644e-05
12930.0 2.2801e-05
12950.0 2.1922e-05
12970.0 2.1026e-05
12990.0 2.0179e-05
13010.0 1.9343e-05
13030.0 1.8497e-05
13050.0 1.7685e-05
13070.0 1.6924e-05
13090.0 1.616e-05
13110.0 1.5421e-05
13130.0 1.474e-05
13150.0 1.4095e-05
13170.0 1.3464e-05
13190.0 1.2902e-05
13210.0 1.2407e-05
13230.0 1.1955e-05
13250.0 1.1565e-05
13270.0 1.1258e-05
13290.0 1.1019e-05
13310.0 1.0855e-05
13330.0 1.078e-05
13350.0 1.0789e-05
13370.0 1.0885e-05
13390.0 1.1075e-05
13410.0 1.1332e-05
13430.0 1.1666e-05
13450.0 1.2079e-05
13470.0 1.2537e-05
13490.0 1.3022e-05
13510.0 1.3569e-05
13530.0 1.4123e-05
13550.0 1.4654e-05
13570.0 1.5177e-05
13590.0 1.5687e-05
13610.0 1.6141e-05
13630.0 1.6537e-05
13650.0 1.6899e-05
13670.0 1.7199e-05
13690.0 1.7431e-05
13710.0 1.7611e-05
13730.0 1.7739e-05
13750.0 1.7803e-05
13770.0 1.7818e-05
13790.0 1.7785e-05
13810.0 1.7707e-05
13830.0 1.7591e-05
13850.0 1.7434e-05
13870.0 1.7235e-05
13890.0 1.7009e-05
13910.0 1.6753e-05
13930.0 1.6457e-05
13950.0 1.6135e-05
13970.0 1.5805e-05
13990.0 1.5445e-05
14010.0 1.5063e-05
14030.0 1.4681e-05
14050.0 1.4297e-05
14070.0 1.3891e-05
14090.0 1.3503e-05
14110.0 1.3137e-05
14130.0 1.2783e-05
14150.0 1.245e-05
14170.0 1.2165e-05
14190.0 1.1919e-05
14210.0 1.1711e-05
14230.0 1.1556e-05
14250.0 1.1456e-05
14270.0 1.1408e-05
14290.0 1.1418e-05
14310.0 1.1482e-05
14330.0 1.1596e-05
14350.0 1.1764e-05
14370.0 1.1974e-05
14390.0 1.2212e-05
14410.0 1.2492e-05
14430.0 1.28e-05
14450.0 1.3114e-05
14470.0 1.344e-05
14490.0 1.3787e-05
14510.0 1.4118e-05
14530.0 1.4433e-05
14550.0 1.4748e-05
14570.0 1.5051e-05
14590.0 1.5326e-05
14610.0 1.5592e-05
14630.0 1.5855e-05
14650.0 1.61e-05
14670.0 1.6337e-05
14690.0 1.6584e-05
14710.0 1.6844e-05
14730.0 1.7103e-05
14750.0 1.7391e-05
14770.0 1.7717e-05
14790.0 1.8071e-05
14810.0 1.8454e-05
14830.0 1.8909e-05
14850.0 1.9402e-05
14870.0 1.9917e-05
14890.0 2.0473e-05
14910.0 2.1063e-05
14930.0 2.163e-05
14950.0 2.216e-05
14970.0 2.2662e-05
14990.0 2.3083e-05
15010.0 2.3405e-05
15030.0 2.3643e-05
15050.0 2.3801e-05
15070.0 2.3878e-05
15090.0 2.3905e-05
15110.0 2.3897e-05
15130.0 2.3867e-05
15150.0 2.3827e-05
15170.0 2.3779e-05
15190.0 2.3728e-05
15210.0 2.3677e-05
15230.0 2.3627e-05
15250.0 2.3575e-05
15270.0 2.3523e-05
15290.0 2.3474e-05
15310.0 2.3424e-05
15330.0 2.3374e-05
15350.0 2.3325e-05
15370.0 2.3277e-05
15390.0 2.3226e-05
15410.0 2.3177e-05
15430.0 2.3129e-05
15450.0 2.308e-05
15470.0 2.3031e-05
15490.0 2.2984e-05
15510.0 2.2937e-05
15530.0 2.2889e-05
15550.0 2.2841e-05
15570.0 2.2796e-05
15590.0 2.2748e-05
15610.0 2.2699e-05
15630.0 2.2654e-05
15650.0 2.2608e-05
15670.0 2.2561e-05
15690.0 2.2514e-05
15710.0 2.247e-05
15730.0 2.2423e-05
15750.0 2.2377e-05
15770.0 2.2332e-05
15790.0 2.2287e-05
15810.0 2.224e-05
15830.0 2.2195e-05
15850.0 2.2151e-05
15870.0 2.2105e-05
15890.0 2.2059e-05
15910.0 2.2016e-05
15930.0 2.1971e-05
15950.0 2.1925e-05
15970.0 2.188e-05
15990.0 2.1837e-05
16010.0 2.1791e-05
16030.0 2.1745e-05
16050.0 2.1702e-05
16070.0 2.1658e-05
16090.0 2.1613e-05
16110.0 2.1569e-05
16130.0 2.1526e-05
16150.0 2.148e-05
16170.0 2.1434e-05
16190.0 2.1391e-05
16210.0 2.1347e-05
16230.0 2.1301e-05
16250.0 2.1257e-05
16270.0 2.1214e-05
16290.0 2.1169e-05
16310.0 2.1124e-05
16330.0 2.1081e-05
16350.0 2.1036e-05
16370.0 2.0989e-05
16390.0 2.0946e-05
16410.0 2.0902e-05
16430.0 2.0857e-05
16450.0 2.0812e-05
16470.0 2.0769e-05
16490.0 2.0723e-05
16510.0 2.0677e-05
16530.0 2.0633e-05
16550.0 2.0589e-05
16570.0 2.0542e-05
16590.0 2.0496e-05
16610.0 2.0453e-05
16630.0 2.0407e-05
16650.0 2.0361e-05
16670.0 2.0316e-05
16690.0 2.0272e-05
16710.0 2.0224e-05
16730.0 2.0178e-05
16750.0 2.0134e-05
16770.0 2.0087e-05
16790.0 2.004e-05
16810.0 1.9995e-05
16830.0 1.995e-05
16850.0 1.9902e-05
16870.0 1.9856e-05
16890.0 1.9811e-05
16910.0 1.9763e-05
16930.0 1.9715e-05
16950.0 1.9669e-05
16970.0 1.9623e-05
16990.0 1.9574e-05
17010.0 1.9527e-05
17030.0 1.9482e-05
17050.0 1.9433e-05
17070.0 1.9385e-05
17090.0 1.9338e-05
17110.0 1.9291e-05
17130.0 1.9241e-05
17150.0 1.9193e-05
17170.0 1.9146e-05
17190.0 1.9098e-05
17210.0 1.9048e-05
17230.0 1.9001e-05
17250.0 1.8953e-05
17270.0 1.8902e-05
17290.0 1.8854e-05
17310.0 1.8806e-05
17330.0 1.8756e-05
17350.0 1.8705e-05
17370.0 1.8658e-05
17390.0 1.8608e-05
17410.0 1.8558e-05
17430.0 1.8508e-05
17450.0 1.846e-05
17470.0 1.8408e-05
17490.0 1.8357e-05
17510.0 1.8308e-05
17530.0 1.8258e-05
17550.0 1.8206e-05
17570.0 1.8156e-05
17590.0 1.8106e-05
17610.0 1.8054e-05
17630.0 1.8003e-05
17650.0 1.7953e-05
17670.0 1.7902e-05
17690.0 1.7848e-05
17710.0 1.7798e-05
17730.0 1.7747e-05
17750.0 1.7695e-05
17770.0 1.7643e-05
17790.0 1.7593e-05
17810.0 1.754e-05
17830.0 1.7487e-05
17850.0 1.7435e-05
17870.0 1.7383e-05
17890.0 1.7329e-05
17910.0 1.7276e-05
17930.0 1.7225e-05
17950.0 1.7172e-05
17970.0 1.7119e-05
17990.0 1.7067e-05
18010.0 1.7015e-05
18030.0 1.696e-05
18050.0 1.6906e-05
18070.0 1.6854e-05
18090.0 1.68e-05
18110.0 1.6746e-05
18130.0 1.6693e-05
18150.0 1.664e-05
18170.0 1.6586e-05
18190.0 1.6532e-05
18210.0 1.6479e-05
18230.0 1.6424e-05
18250.0 1.6369e-05
18270.0 1.6316e-05
18290.0 1.6262e-05
18310.0 1.6207e-05
18330.0 1.6153e-05
18350.0 1.61e-05
18370.0 1.6045e-05
18390.0 1.5989e-05
18410.0 1.5936e-05
18430.0 1.5881e-05
18450.0 1.5825e-05
18470.0 1.577e-05
18490.0 1.5717e-05
18510.0 1.5661e-05
18530.0 1.5606e-05
18550.0 1.5553e-05
18570.0 1.5498e-05
18590.0 1.5441e-05
18610.0 1.5386e-05
18630.0 1.5332e-05
18650.0 1.5276e-05
18670.0 1.522e-05
18690.0 1.5166e-05
18710.0 1.5111e-05
18730.0 1.5055e-05
18750.0 1.5e-05
18770.0 1.4946e-05
18790.0 1.4888e-05
18810.0 1.4833e-05
18830.0 1.4778e-05
18850.0 1.4723e-05
18870.0 1.4666e-05
18890.0 1.4611e-05
18910.0 1.4557e-05
18930.0 1.45e-05
18950.0 1.4444e-05
18970.0 1.439e-05
18990.0 1.4334e-05
19010.0 1.4276e-05
19030.0 1.4222e-05
19050.0 1.4167e-05
19070.0 1.4111e-05
19090.0 1.4055e-05
19110.0 1.4001e-05
19130.0 1.3944e-05
19150.0 1.3888e-05
19170.0 1.3833e-05
19190.0 1.3778e-05
19210.0 1.3721e-05
19230.0 1.3664e-05
19250.0 1.3611e-05
19270.0 1.3554e-05
19290.0 1.3498e-05
19310.0 1.3444e-05
19330.0 1.3389e-05
19350.0 1.3331e-05
19370.0 1.3275e-05
19390.0 1.3221e-05
19410.0 1.3165e-05
19430.0 1.3108e-05
19450.0 1.3054e-05
19470.0 1.2999e-05
19490.0 1.2942e-05
19510.0 1.2887e-05
19530.0 1.2833e-05
19550.0 1.2776e-05
19570.0 1.2719e-05
19590.0 1.2665e-05
19610.0 1.261e-05
19630.0 1.2554e-05
19650.0 1.2499e-05
19670.0 1.2445e-05
19690.0 1.2389e-05
19710.0 1.2333e-05
19730.0 1.2278e-05
19750.0 1.2223e-05
19770.0 1.2166e-05
19790.0 1.2112e-05
19810.0 1.2058e-05
19830.0 1.2001e-05
19850.0 1.1945e-05
19870.0 1.189e-05
19890.0 1.183e-05
19910.0 1.1765e-05
19930.0 1.1695e-05
19950.0 1.1615e-05
19970.0 1.1517e-05
19990.0 1.1399e-05
20010.0 1.0141e-05
20030.0 9.9947e-06
20050.0 9.8229e-06
20070.0 9.6368e-06
20090.0 9.4366e-06
20110.0 9.2101e-06
20130.0 8.9808e-06
20150.0 8.7536e-06
20170.0 8.518e-06
20190.0 8.2791e-06
20210.0 8.0534e-06
20230.0 7.8332e-06
20250.0 7.6126e-06
20270.0 7.4079e-06
20290.0 7.221e-06
20310.0 7.0433e-06
20330.0 6.8773e-06
20350.0 6.7395e-06
20370.0 6.6172e-06
20390.0 6.5099e-06
20410.0 6.4233e-06
20430.0 6.3565e-06
20450.0 6.3036e-06
20470.0 6.2682e-06
20490.0 6.2491e-06
20510.0 6.2437e-06
20530.0 6.2514e-06
20550.0 6.2707e-06
20570.0 6.2987e-06
20590.0 6.3368e-06
20610.0 6.3828e-06
20630.0 6.4335e-06
20650.0 6.4902e-06
20670.0 6.5551e-06
20690.0 6.6212e-06
20710.0 6.6895e-06
20730.0 6.7632e-06
20750.0 6.8402e-06
20770.0 6.9159e-06
20790.0 6.9954e-06
20810.0 7.0795e-06
20830.0 7.1631e-06
20850.0 7.2472e-06
20870.0 7.3372e-06
20890.0 7.4289e-06
20910.0 7.5174e-06
20930.0 7.6092e-06
20950.0 7.7044e-06
20970.0 7.7972e-06
20990.0 7.8887e-06
21010.0 7.9849e-06
21030.0 8.079e-06
21050.0 8.1688e-06
21070.0 8.2585e-06
21090.0 8.3484e-06
21110.0 8.4304e-06
21130.0 8.5074e-06
21150.0 8.5821e-06
21170.0 8.6497e-06
21190.0 8.7078e-06
21210.0 8.7601e-06
21230.0 8.8036e-06
21250.0 8.8346e-06
21270.0 8.8543e-06
21290.0 8.8617e-06
21310.0 8.8546e-06
21330.0 8.8337e-06
21350.0 8.797e-06
21370.0 8.7432e-06
21390.0 8.6747e-06
21410.0 8.5909e-06
21430.0 8.4847e-06
21450.0 8.3655e-06
21470.0 8.2357e-06
21490.0 8.0889e-06
21510.0 7.9279e-06
21530.0 7.7643e-06
21550.0 7.5929e-06
21570.0 7.4101e-06
21590.0 7.2303e-06
21610.0 7.0566e-06
21630.0 6.8827e-06
21650.0 6.7128e-06
21670.0 6.5656e-06
21690.0 6.4298e-06
21710.0 6.3074e-06
21730.0 6.2072e-06
21750.0 6.13e-06
21770.0 6.0711e-06
21790.0 6.0372e-06
21810.0 6.0278e-06
21830.0 6.0412e-06
21850.0 6.079e-06
21870.0 6.1378e-06
21890.0 6.2139e-06
21910.0 6.3115e-06
21930.0 6.4259e-06
21950.0 6.5499e-06
21970.0 6.6873e-06
21990.0 6.8414e-06
22010.0 6.9955e-06
22030.0 7.1519e-06
22050.0 7.3163e-06
22070.0 7.4815e-06
22090.0 7.638e-06
22110.0 7.7957e-06
22130.0 7.9531e-06
22150.0 8.1002e-06
22170.0 8.2389e-06
22190.0 8.3763e-06
22210.0 8.5041e-06
22230.0 8.6167e-06
22250.0 8.7226e-06
22270.0 8.8202e-06
22290.0 8.9036e-06
22310.0 8.9752e-06
22330.0 9.0382e-06
22350.0 9.0869e-06
22370.0 9.1213e-06
22390.0 9.1428e-06
22410.0 9.1496e-06
22430.0 9.1408e-06
22450.0 9.1173e-06
22470.0 9.0766e-06
22490.0 9.0194e-06
22510.0 8.9482e-06
22530.0 8.8571e-06
22550.0 8.7462e-06
22570.0 8.6232e-06
22590.0 8.4845e-06
22610.0 8.325e-06
