#lamb flux
1010.0 2.9698e-07
1030.0 3.2846e-07
1050.0 3.6467e-07
1070.0 4.0543e-07
1090.0 4.5173e-07
1110.0 4.9922e-07
1130.0 5.4702e-07
1150.0 5.9708e-07
1170.0 6.4873e-07
1190.0 6.977e-07
1210.0 7.4733e-07
1230.0 7.9862e-07
1250.0 8.4886e-07
1270.0 8.9766e-07
1290.0 9.4923e-07
1310.0 1.0008e-06
1330.0 1.0502e-06
1350.0 1.1001e-06
1370.0 1.1517e-06
1390.0 1.202e-06
1410.0 1.2508e-06
1430.0 1.3019e-06
1450.0 1.3529e-06
1470.0 1.4022e-06
1490.0 1.4521e-06
1510.0 1.5047e-06
1530.0 1.5546e-06
1550.0 1.6039e-06
1570.0 1.6548e-06
1590.0 1.7058e-06
1610.0 1.7546e-06
1630.0 1.8049e-06
1650.0 1.8565e-06
1670.0 1.9065e-06
1690.0 1.9558e-06
1710.0 2.0071e-06
1730.0 2.0587e-06
1750.0 2.1073e-06
1770.0 2.1574e-06
1790.0 2.2085e-06
1810.0 2.2581e-06
1830.0 2.3069e-06
1850.0 2.3587e-06
1870.0 2.4093e-06
1890.0 2.4582e-06
1910.0 2.5083e-06
1930.0 2.5596e-06
1950.0 2.6087e-06
1970.0 2.6574e-06
1990.0 2.708e-06
2010.0 2.7578e-06
2030.0 2.806e-06
2050.0 2.8558e-06
2070.0 2.907e-06
2090.0 2.9553e-06
2110.0 3.0037e-06
2130.0 3.0535e-06
2150.0 3.1026e-06
2170.0 3.1496e-06
2190.0 3.1984e-06
2210.0 3.2477e-06
2230.0 3.295e-06
2250.0 3.3422e-06
2270.0 3.3916e-06
2290.0 3.4395e-06
2310.0 3.4856e-06
2330.0 3.5335e-06
2350.0 3.5827e-06
2370.0 3.6317e-06
2390.0 3.6848e-06
2410.0 3.7476e-06
2430.0 3.82e-06
2450.0 3.9064e-06
2470.0 4.0172e-06
2490.0 4.1568e-06
2510.0 4.3154e-06
2530.0 4.5065e-06
2550.0 4.7455e-06
2570.0 5.043e-06
2590.0 5.4299e-06
2610.0 6.0092e-06
2630.0 6.8362e-06
2650.0 7.9176e-06
2670.0 9.3158e-06
2690.0 1.1034e-05
2710.0 1.2868e-05
2730.0 1.468e-05
2750.0 1.6465e-05
2770.0 1.8018e-05
2790.0 1.9251e-05
2810.0 2.0229e-05
2830.0 2.0994e-05
2850.0 2.1516e-05
2870.0 2.1899e-05
2890.0 2.2202e-05
2910.0 2.2444e-05
2930.0 2.2642e-05
2950.0 2.2831e-05
2970.0 2.3015e-05
2990.0 2.3188e-05
3010.0 0.00065542
3030.0 0.00066033
3050.0 0.00066506
3070.0 0.00066912
3090.0 0.0006726
3110.0 0.00067477
3130.0 0.00067468
3150.0 0.00067168
3170.0 0.00066449
3190.0 0.00065319
3210.0 0.00063887
3230.0 0.00062247
3250.0 0.00060628
3270.0 0.00059445
3290.0 0.00058788
3310.0 0.00058895
3330.0 0.00059747
3350.0 0.00061232
3370.0 0.00063351
3390.0 0.00066022
3410.0 0.00068929
3430.0 0.00072192
3450.0 0.00075948
3470.0 0.00080051
3490.0 0.00084399
3510.0 0.00089313
3530.0 0.00094576
3550.0 0.00099904
3570.0 0.0010546
3590.0 0.0011151
3610.0 0.0011773
3630.0 0.0012394
3650.0 0.0013039
3670.0 0.0013627
3690.0 0.0014066
3710.0 0.0014318
3730.0 0.0014327
3750.0 0.0014127
3770.0 0.0014049
3790.0 0.0013965
3810.0 0.0013622
3830.0 0.0014044
3850.0 0.0015703
3870.0 0.0016613
3890.0 0.0016537
3910.0 0.0016608
3930.0 0.0017045
3950.0 0.0017314
3970.0 0.0015775
3990.0 0.0013574
4010.0 0.0040682
4030.0 0.0049292
4050.0 0.005651
4070.0 0.0049032
4090.0 0.0044408
4110.0 0.0039186
4130.0 0.0036067
4150.0 0.0038364
4170.0 0.003779
4190.0 0.0040282
4210.0 0.0039913
4230.0 0.0042217
4250.0 0.0049944
4270.0 0.0050531
4290.0 0.0046564
4310.0 0.0048383
4330.0 0.0051465
4350.0 0.0057705
4370.0 0.006567
4390.0 0.0061624
4410.0 0.004553
4430.0 0.0038543
4450.0 0.0035417
4470.0 0.0027184
4490.0 0.0029335
4510.0 0.0044311
4530.0 0.0051104
4550.0 0.0051547
4570.0 0.0058003
4590.0 0.0066071
4610.0 0.0089115
4630.0 0.011574
4650.0 0.012552
4670.0 0.011624
4690.0 0.011092
4710.0 0.011725
4730.0 0.011065
4750.0 0.0082724
4770.0 0.0060681
4790.0 0.0056664
4810.0 0.005401
4830.0 0.0049445
4850.0 0.0054258
4870.0 0.007168
4890.0 0.0084531
4910.0 0.0074165
4930.0 0.0065626
4950.0 0.00721
4970.0 0.0092463
4990.0 0.012531
5010.0 0.014415
5030.0 0.012711
5050.0 0.0085998
5070.0 0.0056676
5090.0 0.00457
5110.0 0.0046999
5130.0 0.0054244
5150.0 0.0058769
5170.0 0.0057887
5190.0 0.0054092
5210.0 0.0056538
5230.0 0.0059434
5250.0 0.0064054
5270.0 0.0069109
5290.0 0.0076588
5310.0 0.0089145
5330.0 0.0098651
5350.0 0.0098021
5370.0 0.010296
5390.0 0.011815
5410.0 0.011804
5430.0 0.010439
5450.0 0.0095913
5470.0 0.010184
5490.0 0.012442
5510.0 0.015557
5530.0 0.017843
5550.0 0.017246
5570.0 0.015678
5590.0 0.013632
5610.0 0.012572
5630.0 0.012191
5650.0 0.01161
5670.0 0.011002
5690.0 0.0098356
5710.0 0.0095899
5730.0 0.0088337
5750.0 0.0062282
5770.0 0.0048591
5790.0 0.0055064
5810.0 0.0062177
5830.0 0.0076299
5850.0 0.0090826
5870.0 0.010077
5890.0 0.010248
5910.0 0.010054
5930.0 0.0095702
5950.0 0.0097519
5970.0 0.011116
5990.0 0.010452
6010.0 0.0087619
6030.0 0.0074025
6050.0 0.0064467
6070.0 0.0064114
6090.0 0.0069521
6110.0 0.0077736
6130.0 0.0078927
6150.0 0.0067909
6170.0 0.0059739
6190.0 0.0067228
6210.0 0.0088874
6230.0 0.011663
6250.0 0.012632
6270.0 0.011039
6290.0 0.0092878
6310.0 0.0072507
6330.0 0.0055554
6350.0 0.0049553
6370.0 0.005211
6390.0 0.0060242
6410.0 0.0074282
6430.0 0.0086741
6450.0 0.0099253
6470.0 0.011365
6490.0 0.013728
6510.0 0.01535
6530.0 0.015059
6550.0 0.013617
6570.0 0.01156
6590.0 0.010424
6610.0 0.008988
6630.0 0.0081427
6650.0 0.0076972
6670.0 0.0074777
6690.0 0.0067565
6710.0 0.0061418
6730.0 0.0044238
6750.0 0.0043858
6770.0 0.004767
6790.0 0.0054793
6810.0 0.0050137
6830.0 0.0051627
6850.0 0.0048288
6870.0 0.0044111
6890.0 0.0042353
6910.0 0.0045133
6930.0 0.0042273
6950.0 0.0043492
6970.0 0.0045746
6990.0 0.0051925
7010.0 0.0052368
7030.0 0.0053199
7050.0 0.0050734
7070.0 0.0048341
7090.0 0.0048482
7110.0 0.0049885
7130.0 0.0053683
7150.0 0.0057016
7170.0 0.0062913
7190.0 0.0069159
7210.0 0.0067958
7230.0 0.0069862
7250.0 0.0075078
7270.0 0.0081817
7290.0 0.0097108
7310.0 0.010537
7330.0 0.010185
7350.0 0.0092117
7370.0 0.0080151
7390.0 0.0077756
7410.0 0.0082631
7430.0 0.0091834
7450.0 0.010002
7470.0 0.0099105
7490.0 0.0090365
7510.0 0.010236
7530.0 0.010124
7550.0 0.0090997
7570.0 0.0071086
7590.0 0.0048869
7610.0 0.0041944
7630.0 0.0047657
7650.0 0.0056348
7670.0 0.0070129
7690.0 0.0077171
7710.0 0.0080422
7730.0 0.0084514
7750.0 0.0094876
7770.0 0.0096368
7790.0 0.0088519
7810.0 0.0080768
7830.0 0.008329
7850.0 0.0080966
7870.0 0.0074232
7890.0 0.0062369
7910.0 0.0050698
7930.0 0.0048409
7950.0 0.0044102
7970.0 0.0040824
7990.0 0.0040591
8010.0 0.00030063
8030.0 0.00029672
8050.0 0.00029272
8070.0 0.00029656
8090.0 0.00031864
8110.0 0.00031321
8130.0 0.00025836
8150.0 0.00025162
8170.0 0.00021673
8190.0 0.0002054
8210.0 0.00026673
8230.0 0.00029697
8250.0 0.00026766
8270.0 0.00023296
8290.0 0.00022709
8310.0 0.00017478
8330.0 0.0001178
8350.0 8.3603e-05
8370.0 5.2673e-05
8390.0 9.6286e-05
8410.0 0.0001122
8430.0 0.0001383
8450.0 0.00016241
8470.0 0.00020186
8490.0 0.00020044
8510.0 0.00019716
8530.0 0.00020577
8550.0 0.00027762
8570.0 0.00032866
8590.0 0.00035462
8610.0 0.00044796
8630.0 0.00053964
8650.0 0.00056452
8670.0 0.00059992
8690.0 0.00060328
8710.0 0.00054635
8730.0 0.00050819
8750.0 0.00044858
8770.0 0.00042563
8790.0 0.00041816
8810.0 0.00040069
8830.0 0.00032042
8850.0 0.00023457
8870.0 0.00017961
8890.0 0.00017559
8910.0 0.00020123
8930.0 0.00022889
8950.0 0.00023327
8970.0 0.00023437
8990.0 0.00020903
9010.0 0.0021906
9030.0 0.0019849
9050.0 0.0019945
9070.0 0.0020103
9090.0 0.0020241
9110.0 0.0020411
9130.0 0.0020543
9150.0 0.0020645
9170.0 0.0020754
9190.0 0.002087
9210.0 0.0020993
9230.0 0.0021122
9250.0 0.0021254
9270.0 0.002139
9290.0 0.0021531
9310.0 0.0021672
9330.0 0.0021816
9350.0 0.0021966
9370.0 0.0022117
9390.0 0.002227
9410.0 0.0022427
9430.0 0.0022589
9450.0 0.002275
9470.0 0.0022915
9490.0 0.0023084
9510.0 0.0023256
9530.0 0.0023428
9550.0 0.0023606
9570.0 0.0023788
9590.0 0.002397
9610.0 0.0024155
9630.0 0.0024345
9650.0 0.0024536
9670.0 0.0024728
9690.0 0.0024925
9710.0 0.0025125
9730.0 0.0025326
9750.0 0.0025529
9770.0 0.0025739
9790.0 0.0025948
9810.0 0.0026159
9830.0 0.0026373
9850.0 0.0026591
9870.0 0.0026808
9890.0 0.0027028
9910.0 0.0027252
9930.0 0.0027477
9950.0 0.0027702
9970.0 0.0027932
9990.0 0.0028164
10010.0 0.0024439
10030.0 0.0024639
10050.0 0.0024844
10070.0 0.0025056
10090.0 0.0025256
10110.0 0.002546
10130.0 0.0025665
10150.0 0.002587
10170.0 0.0026077
10190.0 0.0026288
10210.0 0.0026496
10230.0 0.0026704
10250.0 0.0026915
10270.0 0.0027126
10290.0 0.0027334
10310.0 0.0027544
10330.0 0.0027757
10350.0 0.0027967
10370.0 0.0028175
10390.0 0.0028386
10410.0 0.0028596
10430.0 0.0028802
10450.0 0.002901
10470.0 0.0029219
10490.0 0.0029424
10510.0 0.0029627
10530.0 0.0029834
10550.0 0.0030038
10570.0 0.0030237
10590.0 0.0030437
10610.0 0.0030638
10630.0 0.0030833
10650.0 0.0031026
10670.0 0.0031222
10690.0 0.0031414
10710.0 0.0031601
10730.0 0.003179
10750.0 0.0031978
10770.0 0.0032159
10790.0 0.0032338
10810.0 0.0032517
10830.0 0.003269
10850.0 0.0032855
10870.0 0.0033015
10890.0 0.0033155
10910.0 0.0033263
10930.0 0.0033324
10950.0 0.003331
10970.0 0.0033197
10990.0 0.0032976
11010.0 0.0032605
11030.0 0.0032087
11050.0 0.0031455
11070.0 0.0030699
11090.0 0.002979
11110.0 0.0028851
11130.0 0.0027871
11150.0 0.0026816
11170.0 0.0025728
11190.0 0.0024673
11210.0 0.0023583
11230.0 0.0022466
11250.0 0.0021399
11270.0 0.0020374
11290.0 0.0019346
11310.0 0.0018373
11330.0 0.0017517
11350.0 0.0016707
11370.0 0.0015959
11390.0 0.0015312
11410.0 0.0014746
11430.0 0.001422
11450.0 0.0013767
11470.0 0.0013375
11490.0 0.001301
11510.0 0.0012659
11530.0 0.0012333
11550.0 0.0012009
11570.0 0.0011663
11590.0 0.0011305
11610.0 0.0010941
11630.0 0.0010544
11650.0 0.001012
11670.0 0.00097016
11690.0 0.00092773
11710.0 0.00088397
11730.0 0.00084156
11750.0 0.00080232
11770.0 0.00076383
11790.0 0.00072776
11810.0 0.000696
11830.0 0.0006676
11850.0 0.00064145
11870.0 0.00061957
11890.0 0.00060138
11910.0 0.00058539
11930.0 0.00057166
11950.0 0.00056022
11970.0 0.00055
11990.0 0.00054034
12010.0 0.0005314
12030.0 0.00052278
12050.0 0.00051388
12070.0 0.00050462
12090.0 0.00049569
12110.0 0.00048663
12130.0 0.00047754
12150.0 0.00046917
12170.0 0.00046186
12190.0 0.00045554
12210.0 0.00045113
12230.0 0.000449
12250.0 0.00044934
12270.0 0.00045273
12290.0 0.00045913
12310.0 0.00046832
12330.0 0.00048118
12350.0 0.00049722
12370.0 0.00051548
12390.0 0.00053654
12410.0 0.00056122
12430.0 0.0005863
12450.0 0.00061227
12470.0 0.00063989
12490.0 0.00066762
12510.0 0.00069365
12530.0 0.00071953
12550.0 0.0007445
12570.0 0.00076655
12590.0 0.0007859
12610.0 0.00080315
12630.0 0.0008169
12650.0 0.00082638
12670.0 0.00083262
12690.0 0.00083512
12710.0 0.00083375
12730.0 0.00082891
12750.0 0.00082029
12770.0 0.00080845
12790.0 0.00079411
12810.0 0.00077697
12830.0 0.00075715
12850.0 0.00073641
12870.0 0.00071449
12890.0 0.00069077
12910.0 0.00066666
12930.0 0.0006429
12950.0 0.0006181
12970.0 0.00059286
12990.0 0.00056898
13010.0 0.00054539
13030.0 0.00052155
13050.0 0.00049864
13070.0 0.00047719
13090.0 0.00045565
13110.0 0.00043482
13130.0 0.00041562
13150.0 0.00039743
13170.0 0.00037962
13190.0 0.00036377
13210.0 0.00034983
13230.0 0.00033708
13250.0 0.0003261
13270.0 0.00031744
13290.0 0.0003107
13310.0 0.00030606
13330.0 0.00030395
13350.0 0.0003042
13370.0 0.00030692
13390.0 0.00031228
13410.0 0.00031953
13430.0 0.00032894
13450.0 0.00034057
13470.0 0.00035349
13490.0 0.00036716
13510.0 0.00038258
13530.0 0.00039822
13550.0 0.00041318
13570.0 0.00042794
13590.0 0.00044232
13610.0 0.00045511
13630.0 0.00046628
13650.0 0.00047648
13670.0 0.00048494
13690.0 0.00049149
13710.0 0.00049655
13730.0 0.00050017
13750.0 0.00050198
13770.0 0.00050239
13790.0 0.00050148
13810.0 0.00049926
13830.0 0.00049599
13850.0 0.00049156
13870.0 0.00048597
13890.0 0.00047958
13910.0 0.00047237
13930.0 0.00046404
13950.0 0.00045493
13970.0 0.00044562
13990.0 0.00043549
14010.0 0.00042471
14030.0 0.00041395
14050.0 0.00040312
14070.0 0.00039168
14090.0 0.00038072
14110.0 0.00037042
14130.0 0.00036043
14150.0 0.00035103
14170.0 0.00034301
14190.0 0.00033607
14210.0 0.00033019
14230.0 0.00032583
14250.0 0.00032302
14270.0 0.00032165
14290.0 0.00032194
14310.0 0.00032374
14330.0 0.00032696
14350.0 0.0003317
14370.0 0.00033761
14390.0 0.00034432
14410.0 0.00035222
14430.0 0.0003609
14450.0 0.00036976
14470.0 0.00037896
14490.0 0.00038874
14510.0 0.00039809
14530.0 0.00040697
14550.0 0.00041584
14570.0 0.00042437
14590.0 0.00043212
14610.0 0.00043963
14630.0 0.00044705
14650.0 0.00045397
14670.0 0.00046065
14690.0 0.00046761
14710.0 0.00047493
14730.0 0.00048225
14750.0 0.00049036
14770.0 0.00049956
14790.0 0.00050954
14810.0 0.00052034
14830.0 0.00053315
14850.0 0.00054706
14870.0 0.00056158
14890.0 0.00057725
14910.0 0.00059389
14930.0 0.00060988
14950.0 0.00062483
14970.0 0.00063898
14990.0 0.00065085
15010.0 0.00065993
15030.0 0.00066665
15050.0 0.00067109
15070.0 0.00067326
15090.0 0.00067402
15110.0 0.0006738
15130.0 0.00067296
15150.0 0.00067182
15170.0 0.00067047
15190.0 0.00066903
15210.0 0.00066761
15230.0 0.00066619
15250.0 0.00066472
15270.0 0.00066326
15290.0 0.00066189
15310.0 0.00066047
15330.0 0.00065904
15350.0 0.00065767
15370.0 0.00065631
15390.0 0.00065487
15410.0 0.00065349
15430.0 0.00065215
15450.0 0.00065078
15470.0 0.00064938
15490.0 0.00064806
15510.0 0.00064674
15530.0 0.00064537
15550.0 0.00064404
15570.0 0.00064275
15590.0 0.0006414
15610.0 0.00064004
15630.0 0.00063875
15650.0 0.00063745
15670.0 0.00063612
15690.0 0.00063482
15710.0 0.00063357
15730.0 0.00063225
15750.0 0.00063094
15770.0 0.00062968
15790.0 0.00062841
15810.0 0.00062708
15830.0 0.0006258
15850.0 0.00062456
15870.0 0.00062328
15890.0 0.00062199
15910.0 0.00062076
15930.0 0.0006195
15950.0 0.0006182
15970.0 0.00061694
15990.0 0.00061571
16010.0 0.00061443
16030.0 0.00061313
16050.0 0.00061192
16070.0 0.00061068
16090.0 0.00060939
16110.0 0.00060815
16130.0 0.00060694
16150.0 0.00060564
16170.0 0.00060437
16190.0 0.00060315
16210.0 0.0006019
16230.0 0.00060061
16250.0 0.00059938
16270.0 0.00059816
16290.0 0.00059688
16310.0 0.00059561
16330.0 0.00059439
16350.0 0.00059314
16370.0 0.00059182
16390.0 0.00059059
16410.0 0.00058936
16430.0 0.00058807
16450.0 0.0005868
16470.0 0.00058559
16490.0 0.00058431
16510.0 0.00058301
16530.0 0.00058176
16550.0 0.00058051
16570.0 0.0005792
16590.0 0.00057791
16610.0 0.00057668
16630.0 0.0005754
16650.0 0.0005741
16670.0 0.00057284
16690.0 0.00057159
16710.0 0.00057024
16730.0 0.00056895
16750.0 0.00056769
16770.0 0.00056638
16790.0 0.00056505
16810.0 0.00056378
16830.0 0.0005625
16850.0 0.00056117
16870.0 0.00055986
16890.0 0.00055859
16910.0 0.00055724
16930.0 0.00055588
16950.0 0.00055459
16970.0 0.00055328
16990.0 0.00055192
17010.0 0.0005506
17030.0 0.00054931
17050.0 0.00054794
17070.0 0.00054658
17090.0 0.00054526
17110.0 0.00054393
17130.0 0.00054252
17150.0 0.00054117
17170.0 0.00053985
17190.0 0.00053847
17210.0 0.00053709
17230.0 0.00053577
17250.0 0.0005344
17270.0 0.00053297
17290.0 0.00053161
17310.0 0.00053025
17330.0 0.00052884
17350.0 0.00052741
17370.0 0.00052607
17390.0 0.00052468
17410.0 0.00052325
17430.0 0.00052186
17450.0 0.00052049
17470.0 0.00051903
17490.0 0.0005176
17510.0 0.00051621
17530.0 0.00051479
17550.0 0.00051333
17570.0 0.00051193
17590.0 0.00051053
17610.0 0.00050906
17630.0 0.00050762
17650.0 0.00050621
17670.0 0.00050476
17690.0 0.00050325
17710.0 0.00050183
17730.0 0.0005004
17750.0 0.00049892
17770.0 0.00049745
17790.0 0.00049604
17810.0 0.00049455
17830.0 0.00049305
17850.0 0.0004916
17870.0 0.00049014
17890.0 0.00048862
17910.0 0.00048712
17930.0 0.00048569
17950.0 0.00048419
17970.0 0.00048268
17990.0 0.00048122
18010.0 0.00047975
18030.0 0.00047819
18050.0 0.00047669
18070.0 0.00047522
18090.0 0.0004737
18110.0 0.00047216
18130.0 0.00047069
18150.0 0.00046919
18170.0 0.00046765
18190.0 0.00046613
18210.0 0.00046465
18230.0 0.0004631
18250.0 0.00046154
18270.0 0.00046005
18290.0 0.00045853
18310.0 0.00045697
18330.0 0.00045545
18350.0 0.00045396
18370.0 0.00045239
18390.0 0.00045084
18410.0 0.00044933
18430.0 0.00044779
18450.0 0.0004462
18470.0 0.00044466
18490.0 0.00044316
18510.0 0.00044159
18530.0 0.00044003
18550.0 0.00043852
18570.0 0.00043697
18590.0 0.00043537
18610.0 0.00043383
18630.0 0.0004323
18650.0 0.00043072
18670.0 0.00042913
18690.0 0.00042763
18710.0 0.00042607
18730.0 0.00042448
18750.0 0.00042294
18770.0 0.00042142
18790.0 0.0004198
18810.0 0.00041822
18830.0 0.00041669
18850.0 0.00041512
18870.0 0.00041352
18890.0 0.00041198
18910.0 0.00041045
18930.0 0.00040885
18950.0 0.00040728
18970.0 0.00040574
18990.0 0.00040417
19010.0 0.00040254
19030.0 0.000401
19050.0 0.00039946
19070.0 0.00039786
19090.0 0.00039629
19110.0 0.00039477
19130.0 0.00039318
19150.0 0.00039158
19170.0 0.00039003
19190.0 0.00038848
19210.0 0.00038686
19230.0 0.00038528
19250.0 0.00038376
19270.0 0.00038218
19290.0 0.00038059
19310.0 0.00037906
19330.0 0.00037751
19350.0 0.00037588
19370.0 0.00037432
19390.0 0.00037278
19410.0 0.00037119
19430.0 0.0003696
19450.0 0.00036807
19470.0 0.00036652
19490.0 0.00036492
19510.0 0.00036336
19530.0 0.00036184
19550.0 0.00036024
19570.0 0.00035864
19590.0 0.00035711
19610.0 0.00035556
19630.0 0.00035397
19650.0 0.00035242
19670.0 0.0003509
19690.0 0.00034931
19710.0 0.00034773
19730.0 0.0003462
19750.0 0.00034465
19770.0 0.00034304
19790.0 0.0003415
19810.0 0.00033998
19830.0 0.00033839
19850.0 0.0003368
19870.0 0.00033524
19890.0 0.00033357
19910.0 0.00033173
19930.0 0.00032976
19950.0 0.00032751
19970.0 0.00032474
19990.0 0.0003214
20010.0 0.00028595
20030.0 0.00028181
20050.0 0.00027697
20070.0 0.00027172
20090.0 0.00026607
20110.0 0.00025969
20130.0 0.00025322
20150.0 0.00024682
20170.0 0.00024017
20190.0 0.00023344
20210.0 0.00022707
20230.0 0.00022087
20250.0 0.00021465
20270.0 0.00020887
20290.0 0.0002036
20310.0 0.00019859
20330.0 0.00019391
20350.0 0.00019003
20370.0 0.00018658
20390.0 0.00018355
20410.0 0.00018111
20430.0 0.00017923
20450.0 0.00017774
20470.0 0.00017674
20490.0 0.0001762
20510.0 0.00017605
20530.0 0.00017626
20550.0 0.00017681
20570.0 0.0001776
20590.0 0.00017867
20610.0 0.00017997
20630.0 0.0001814
20650.0 0.000183
20670.0 0.00018483
20690.0 0.00018669
20710.0 0.00018862
20730.0 0.0001907
20750.0 0.00019287
20770.0 0.000195
20790.0 0.00019724
20810.0 0.00019961
20830.0 0.00020197
20850.0 0.00020434
20870.0 0.00020688
20890.0 0.00020947
20910.0 0.00021196
20930.0 0.00021455
20950.0 0.00021723
20970.0 0.00021985
20990.0 0.00022243
21010.0 0.00022514
21030.0 0.0002278
21050.0 0.00023033
21070.0 0.00023286
21090.0 0.00023539
21110.0 0.0002377
21130.0 0.00023988
21150.0 0.00024198
21170.0 0.00024389
21190.0 0.00024553
21210.0 0.000247
21230.0 0.00024823
21250.0 0.0002491
21270.0 0.00024966
21290.0 0.00024986
21310.0 0.00024966
21330.0 0.00024908
21350.0 0.00024804
21370.0 0.00024652
21390.0 0.00024459
21410.0 0.00024223
21430.0 0.00023923
21450.0 0.00023588
21470.0 0.00023222
21490.0 0.00022808
21510.0 0.00022353
21530.0 0.00021892
21550.0 0.00021409
21570.0 0.00020894
21590.0 0.00020387
21610.0 0.00019897
21630.0 0.00019407
21650.0 0.00018928
21670.0 0.00018512
21690.0 0.00018129
21710.0 0.00017784
21730.0 0.00017502
21750.0 0.00017284
21770.0 0.00017118
21790.0 0.00017023
21810.0 0.00016996
21830.0 0.00017034
21850.0 0.0001714
21870.0 0.00017306
21890.0 0.00017521
21910.0 0.00017796
21930.0 0.00018119
21950.0 0.00018468
21970.0 0.00018855
21990.0 0.0001929
22010.0 0.00019724
22030.0 0.00020166
22050.0 0.00020629
22070.0 0.00021095
22090.0 0.00021536
22110.0 0.00021981
22130.0 0.00022425
22150.0 0.00022839
22170.0 0.0002323
22190.0 0.00023618
22210.0 0.00023978
22230.0 0.00024296
22250.0 0.00024594
22270.0 0.00024869
22290.0 0.00025105
22310.0 0.00025306
22330.0 0.00025484
22350.0 0.00025621
22370.0 0.00025718
22390.0 0.00025779
22410.0 0.00025798
22430.0 0.00025774
22450.0 0.00025707
22470.0 0.00025592
22490.0 0.00025431
22510.0 0.0002523
22530.0 0.00024973
22550.0 0.00024661
22570.0 0.00024314
22590.0 0.00023923
22610.0 0.00023473
22630.0 0.00022986
22650.0 0.00022483
22670.0 0.00021926
22690.0 0.00021332
22710.0 0.00020733
22730.0 0.00020115
22750.0 0.00019445
22770.0 0.00018791
22790.0 0.00018152
22810.0 0.00017496
22830.0 0.00016841
22850.0 0.00016229
22870.0 0.00015628
22890.0 0.0001503
22910.0 0.0001448
22930.0 0.00013976
22950.0 0.00013495
22970.0 0.0001305
22990.0 0.00012682
23010.0 0.00012355
23030.0 0.00012075
