#lamb flux
1010.0 2.6248e-06
1030.0 2.8693e-06
1050.0 3.1518e-06
1070.0 3.4711e-06
1090.0 3.8349e-06
1110.0 4.2104e-06
1130.0 4.5912e-06
1150.0 4.993e-06
1170.0 5.4109e-06
1190.0 5.8123e-06
1210.0 6.2233e-06
1230.0 6.6524e-06
1250.0 7.0789e-06
1270.0 7.4997e-06
1290.0 7.9488e-06
1310.0 8.4042e-06
1330.0 8.8497e-06
1350.0 9.3067e-06
1370.0 9.7845e-06
1390.0 1.0259e-05
1410.0 1.073e-05
1430.0 1.1226e-05
1450.0 1.1729e-05
1470.0 1.2226e-05
1490.0 1.2734e-05
1510.0 1.3273e-05
1530.0 1.3794e-05
1550.0 1.4314e-05
1570.0 1.4853e-05
1590.0 1.5396e-05
1610.0 1.592e-05
1630.0 1.6458e-05
1650.0 1.7007e-05
1670.0 1.7538e-05
1690.0 1.8059e-05
1710.0 1.8591e-05
1730.0 1.9117e-05
1750.0 1.9605e-05
1770.0 2.0093e-05
1790.0 2.0575e-05
1810.0 2.1026e-05
1830.0 2.145e-05
1850.0 2.1881e-05
1870.0 2.2277e-05
1890.0 2.2632e-05
1910.0 2.2971e-05
1930.0 2.3292e-05
1950.0 2.3564e-05
1970.0 2.3801e-05
1990.0 2.4023e-05
2010.0 2.4207e-05
2030.0 2.4344e-05
2050.0 2.4463e-05
2070.0 2.4561e-05
2090.0 2.4604e-05
2110.0 2.4617e-05
2130.0 2.4613e-05
2150.0 2.4574e-05
2170.0 2.4493e-05
2190.0 2.4401e-05
2210.0 2.429e-05
2230.0 2.4143e-05
2250.0 2.3977e-05
2270.0 2.3809e-05
2290.0 2.3616e-05
2310.0 2.3397e-05
2330.0 2.3178e-05
2350.0 2.2952e-05
2370.0 2.2706e-05
2390.0 2.2457e-05
2410.0 2.2215e-05
2430.0 2.1953e-05
2450.0 2.1673e-05
2470.0 2.138e-05
2490.0 2.1062e-05
2510.0 2.0712e-05
2530.0 2.0364e-05
2550.0 2.0074e-05
2570.0 1.9922e-05
2590.0 2.0006e-05
2610.0 2.0525e-05
2630.0 2.1575e-05
2650.0 2.3108e-05
2670.0 2.5167e-05
2690.0 2.7699e-05
2710.0 3.0337e-05
2730.0 3.289e-05
2750.0 3.5424e-05
2770.0 3.7694e-05
2790.0 3.9624e-05
2810.0 4.1391e-05
2830.0 4.3146e-05
2850.0 4.4725e-05
2870.0 4.6288e-05
2890.0 4.7958e-05
2910.0 4.9665e-05
2930.0 5.1319e-05
2950.0 5.3087e-05
2970.0 5.4938e-05
2990.0 5.6751e-05
3010.0 0.00012976
3030.0 0.00013408
3050.0 0.0001385
3070.0 0.00014272
3090.0 0.00014714
3110.0 0.00015163
3130.0 0.00015588
3150.0 0.00015992
3170.0 0.00016393
3190.0 0.00016738
3210.0 0.00017002
3230.0 0.00017244
3250.0 0.00016962
3270.0 0.00017149
3290.0 0.00016988
3310.0 0.00018465
3330.0 0.00019821
3350.0 0.00021301
3370.0 0.00023007
3390.0 0.00024929
3410.0 0.00026928
3430.0 0.00029075
3450.0 0.00031447
3470.0 0.00033963
3490.0 0.00036591
3510.0 0.0003937
3530.0 0.00042337
3550.0 0.00046155
3570.0 0.00050562
3590.0 0.00054219
3610.0 0.00058321
3630.0 0.00059866
3650.0 0.00061087
3670.0 0.00061844
3690.0 0.00063579
3710.0 0.00065547
3730.0 0.00064464
3750.0 0.00062558
3770.0 0.00059942
3790.0 0.00056892
3810.0 0.0005303
3830.0 0.00046905
3850.0 0.00029304
3870.0 0.00040715
3890.0 0.0005551
3910.0 0.00068492
3930.0 0.00078984
3950.0 0.00083849
3970.0 0.00087421
3990.0 0.0010503
4010.0 0.00099295
4030.0 0.0008696
4050.0 0.0007714
4070.0 0.00069446
4090.0 0.00081359
4110.0 0.00086746
4130.0 0.00087474
4150.0 0.00086369
4170.0 0.00081241
4190.0 0.00076758
4210.0 0.0009062
4230.0 0.0010266
4250.0 0.0010456
4270.0 0.0010086
4290.0 0.0010275
4310.0 0.0010907
4330.0 0.0012379
4350.0 0.001329
4370.0 0.0013103
4390.0 0.0011049
4410.0 0.00094592
4430.0 0.00080198
4450.0 0.00069708
4470.0 0.0007251
4490.0 0.00090447
4510.0 0.00098026
4530.0 0.0010771
4550.0 0.001159
4570.0 0.0014346
4590.0 0.0020855
4610.0 0.0027243
4630.0 0.0027315
4650.0 0.0025582
4670.0 0.0027536
4690.0 0.0031054
4710.0 0.0026251
4730.0 0.0019047
4750.0 0.0014808
4770.0 0.0013842
4790.0 0.0014123
4810.0 0.0013127
4830.0 0.0014273
4850.0 0.0017415
4870.0 0.0021343
4890.0 0.0019464
4910.0 0.0016629
4930.0 0.0017919
4950.0 0.0023578
4970.0 0.0031094
4990.0 0.003218
5010.0 0.0028133
5030.0 0.0021613
5050.0 0.0015448
5070.0 0.0012767
5090.0 0.001191
5110.0 0.0011924
5130.0 0.0012458
5150.0 0.0012252
5170.0 0.0012546
5190.0 0.0011993
5210.0 0.001221
5230.0 0.0013164
5250.0 0.0014214
5270.0 0.0017607
5290.0 0.0020531
5310.0 0.0020391
5330.0 0.0021005
5350.0 0.002395
5370.0 0.002608
5390.0 0.0024053
5410.0 0.0020482
5430.0 0.0019284
5450.0 0.0022271
5470.0 0.0028972
5490.0 0.0036076
5510.0 0.0039359
5530.0 0.0039741
5550.0 0.0037633
5570.0 0.003538
5590.0 0.0034327
5610.0 0.0034821
5630.0 0.0035377
5650.0 0.0035313
5670.0 0.0035238
5690.0 0.003435
5710.0 0.0030105
5730.0 0.0025324
5750.0 0.0021531
5770.0 0.0022011
5790.0 0.0024112
5810.0 0.0026001
5830.0 0.0026909
5850.0 0.0026652
5870.0 0.002456
5890.0 0.0021457
5910.0 0.0021378
5930.0 0.0023621
5950.0 0.0023993
5970.0 0.0021778
5990.0 0.001877
6010.0 0.0015314
6030.0 0.0012851
6050.0 0.0012947
6070.0 0.0014939
6090.0 0.0015747
6110.0 0.0014002
6130.0 0.0013004
6150.0 0.0014147
6170.0 0.0017072
6190.0 0.0020328
6210.0 0.0021629
6230.0 0.00207
6250.0 0.0019007
6270.0 0.0016384
6290.0 0.0013585
6310.0 0.0011359
6330.0 0.0010476
6350.0 0.0011072
6370.0 0.0011677
6390.0 0.0012368
6410.0 0.0014223
6430.0 0.0017919
6450.0 0.0022585
6470.0 0.0025196
6490.0 0.0024697
6510.0 0.0024311
6530.0 0.0025199
6550.0 0.0025479
6570.0 0.0025908
6590.0 0.0026008
6610.0 0.0025546
6630.0 0.0025831
6650.0 0.0025705
6670.0 0.0024409
6690.0 0.0021644
6710.0 0.001839
6730.0 0.0018074
6750.0 0.0019603
6770.0 0.0021113
6790.0 0.0021642
6810.0 0.0021452
6830.0 0.0021103
6850.0 0.002067
6870.0 0.0019413
6890.0 0.0018493
6910.0 0.0017554
6930.0 0.0017103
6950.0 0.0018446
6970.0 0.0019814
6990.0 0.0020771
7010.0 0.0020881
7030.0 0.001964
7050.0 0.0017056
7070.0 0.0013841
7090.0 0.0011798
7110.0 0.0011529
7130.0 0.0012348
7150.0 0.0012287
7170.0 0.0011142
7190.0 0.0011038
7210.0 0.0012226
7230.0 0.001418
7250.0 0.0016122
7270.0 0.001684
7290.0 0.0015593
7310.0 0.0013775
7330.0 0.0012642
7350.0 0.0012483
7370.0 0.0012859
7390.0 0.0013364
7410.0 0.0014269
7430.0 0.0016399
7450.0 0.0019108
7470.0 0.0021635
7490.0 0.0022644
7510.0 0.0021846
7530.0 0.0018278
7550.0 0.0015023
7570.0 0.0012572
7590.0 0.0011144
7610.0 0.0011617
7630.0 0.0013467
7650.0 0.0015404
7670.0 0.0017266
7690.0 0.0018655
7710.0 0.0019804
7730.0 0.0020912
7750.0 0.0021956
7770.0 0.0022471
7790.0 0.0022383
7810.0 0.0022719
7830.0 0.0023548
7850.0 0.0023322
7870.0 0.0022543
7890.0 0.0021075
7910.0 0.0019719
7930.0 0.0018936
7950.0 0.0018688
7970.0 0.0018442
7990.0 0.001848
8010.0 0.0018851
8030.0 0.0018937
8050.0 0.0019326
8070.0 0.0019083
8090.0 0.0019044
8110.0 0.0018249
8130.0 0.0018117
8150.0 0.0017663
8170.0 0.0017155
8190.0 0.0016891
8210.0 0.0016992
8230.0 0.0016121
8250.0 0.0015233
8270.0 0.0013344
8290.0 0.0010722
8310.0 0.00081481
8330.0 0.00062006
8350.0 0.00055421
8370.0 0.00063755
8390.0 0.00075424
8410.0 0.00083382
8430.0 0.00090504
8450.0 0.0009511
8470.0 0.00099768
8490.0 0.0011076
8510.0 0.0012438
8530.0 0.0014463
8550.0 0.0016859
8570.0 0.0019036
8590.0 0.0020784
8610.0 0.002215
8630.0 0.0022957
8650.0 0.0023049
8670.0 0.002307
8690.0 0.0023864
8710.0 0.002454
8730.0 0.0025188
8750.0 0.0024815
8770.0 0.0024938
8790.0 0.0024617
8810.0 0.0022948
8830.0 0.002217
8850.0 0.0020842
8870.0 0.0019809
8890.0 0.0019059
8910.0 0.00194
8930.0 0.0018317
8950.0 0.0017528
8970.0 0.0017212
8990.0 0.0016863
9010.0 0.0016423
9030.0 0.0016021
9050.0 0.0015919
9070.0 0.001587
9090.0 0.0015825
9110.0 0.0015781
9130.0 0.0015734
9150.0 0.0015687
9170.0 0.0015623
9190.0 0.0015545
9210.0 0.0015607
9230.0 0.0015527
9250.0 0.0015462
9270.0 0.0015402
9290.0 0.0015345
9310.0 0.001529
9330.0 0.0015235
9350.0 0.0015182
9370.0 0.0015129
9390.0 0.0015075
9410.0 0.0015021
9430.0 0.0014966
9450.0 0.0014902
9470.0 0.0014841
9490.0 0.0014793
9510.0 0.0014741
9530.0 0.0014688
9550.0 0.0014633
9570.0 0.0014578
9590.0 0.0014522
9610.0 0.0014466
9630.0 0.001441
9650.0 0.0014353
9670.0 0.0014296
9690.0 0.0014239
9710.0 0.0014182
9730.0 0.0014125
9750.0 0.0014068
9770.0 0.0014011
9790.0 0.0013954
9810.0 0.0013896
9830.0 0.0013839
9850.0 0.0013782
9870.0 0.0013724
9890.0 0.0013666
9910.0 0.0013609
9930.0 0.001355
9950.0 0.0013395
9970.0 0.0013366
9990.0 0.0013332
10010.0 0.0013294
10030.0 0.0013249
10050.0 0.0013196
10070.0 0.001314
10090.0 0.0013088
10110.0 0.001303
10130.0 0.0012975
10150.0 0.0012919
10170.0 0.001286
10190.0 0.0012797
10210.0 0.0012739
10230.0 0.0012683
10250.0 0.0012622
10270.0 0.0012562
10290.0 0.0012506
10310.0 0.0012446
10330.0 0.0012383
10350.0 0.0012324
10370.0 0.0012265
10390.0 0.0012203
10410.0 0.0012141
10430.0 0.0012083
10450.0 0.0012021
10470.0 0.0011957
10490.0 0.0011897
10510.0 0.0011836
10530.0 0.0011769
10550.0 0.0011705
10570.0 0.0011644
10590.0 0.0011579
10610.0 0.0011512
10630.0 0.0011449
10650.0 0.0011385
10670.0 0.0011316
10690.0 0.0011249
10710.0 0.0011184
10730.0 0.0011115
10750.0 0.0011043
10770.0 0.0010977
10790.0 0.0010908
10810.0 0.0010836
10830.0 0.0010765
10850.0 0.0010697
10870.0 0.0010621
10890.0 0.0010543
10910.0 0.0010467
10930.0 0.0010385
10950.0 0.0010293
10970.0 0.0010196
10990.0 0.0010094
11010.0 0.00093603
11030.0 0.00092353
11050.0 0.00091159
11070.0 0.00089956
11090.0 0.00088681
11110.0 0.0008752
11130.0 0.00086411
11150.0 0.00085279
11170.0 0.00084169
11190.0 0.00083146
11210.0 0.00082102
11230.0 0.00081029
11250.0 0.0008001
11270.0 0.00079021
11290.0 0.00077984
11310.0 0.00076958
11330.0 0.00076024
11350.0 0.00075072
11370.0 0.00074109
11390.0 0.00073202
11410.0 0.00072325
11430.0 0.00071386
11450.0 0.0007047
11470.0 0.00069583
11490.0 0.00068654
11510.0 0.00067659
11530.0 0.00066688
11550.0 0.00065692
11570.0 0.000646
11590.0 0.00063477
11610.0 0.00062357
11630.0 0.00061143
11650.0 0.00059852
11670.0 0.000586
11690.0 0.00057328
11710.0 0.0005599
11730.0 0.0005467
11750.0 0.00053421
11770.0 0.00052136
11790.0 0.00050865
11810.0 0.00049682
11830.0 0.00048548
11850.0 0.00047398
11870.0 0.00046347
11890.0 0.00045391
11910.0 0.00044454
11930.0 0.0004356
11950.0 0.00042757
11970.0 0.00041992
11990.0 0.00041233
12010.0 0.0004054
12030.0 0.00039903
12050.0 0.00039278
12070.0 0.00038675
12090.0 0.00038152
12110.0 0.00037656
12130.0 0.00037183
12150.0 0.00036767
12170.0 0.00036411
12190.0 0.00036079
12210.0 0.00035812
12230.0 0.00035619
12250.0 0.0003549
12270.0 0.00035429
12290.0 0.00035454
12310.0 0.00035559
12330.0 0.00035752
12350.0 0.00036035
12370.0 0.00036398
12390.0 0.00036849
12410.0 0.00037406
12430.0 0.00038015
12450.0 0.0003868
12470.0 0.00039419
12490.0 0.00040198
12510.0 0.00040973
12530.0 0.00041778
12550.0 0.00042594
12570.0 0.00043365
12590.0 0.00044093
12610.0 0.00044795
12630.0 0.00045427
12650.0 0.00045957
12670.0 0.00046419
12690.0 0.00046795
12710.0 0.00047068
12730.0 0.0004725
12750.0 0.00047338
12770.0 0.00047331
12790.0 0.00047243
12810.0 0.00047073
12830.0 0.00046821
12850.0 0.00046524
12870.0 0.00046179
12890.0 0.00045775
12910.0 0.00045344
12930.0 0.00044906
12950.0 0.00044429
12970.0 0.00043929
12990.0 0.00043446
13010.0 0.00042957
13030.0 0.00042444
13050.0 0.00041935
13070.0 0.00041442
13090.0 0.00040923
13110.0 0.00040393
13130.0 0.0003988
13150.0 0.00039367
13170.0 0.00038831
13190.0 0.00038326
13210.0 0.00037856
13230.0 0.000374
13250.0 0.00036979
13270.0 0.00036624
13290.0 0.00036321
13310.0 0.00036073
13330.0 0.00035908
13350.0 0.00035817
13370.0 0.00035795
13390.0 0.00035843
13410.0 0.00035941
13430.0 0.00036079
13450.0 0.00036242
13470.0 0.00036402
13490.0 0.00036539
13510.0 0.00036643
13530.0 0.00036685
13550.0 0.00036653
13570.0 0.00036539
13590.0 0.00036331
13610.0 0.00036042
13630.0 0.00035684
13650.0 0.00035237
13670.0 0.00034732
13690.0 0.00034201
13710.0 0.00033634
13730.0 0.00033024
13750.0 0.00032451
13770.0 0.00031896
13790.0 0.00031349
13810.0 0.00030839
13830.0 0.00030387
13850.0 0.00029961
13870.0 0.00029571
13890.0 0.00029236
13910.0 0.00028943
13930.0 0.00028675
13950.0 0.00028445
13970.0 0.00028253
13990.0 0.0002808
14010.0 0.00027928
14030.0 0.00027796
14050.0 0.00027679
14070.0 0.00027567
14090.0 0.00027465
14110.0 0.00027367
14130.0 0.00027268
14150.0 0.00027164
14170.0 0.00027059
14190.0 0.00026948
14210.0 0.00026828
14230.0 0.00026704
14250.0 0.00026578
14270.0 0.00026447
14290.0 0.00026315
14310.0 0.00026192
14330.0 0.00026075
14350.0 0.00025965
14370.0 0.00025867
14390.0 0.00025784
14410.0 0.0002571
14430.0 0.00025649
14450.0 0.00025598
14470.0 0.00025555
14490.0 0.00025519
14510.0 0.00025486
14530.0 0.00025455
14550.0 0.00025426
14570.0 0.000254
14590.0 0.00025377
14610.0 0.00025359
14630.0 0.00025352
14650.0 0.00025356
14670.0 0.00025375
14690.0 0.00025417
14710.0 0.00025486
14730.0 0.00025574
14750.0 0.00025694
14770.0 0.00025852
14790.0 0.0002604
14810.0 0.00026258
14830.0 0.00026534
14850.0 0.00026846
14870.0 0.00027183
14890.0 0.0002756
14910.0 0.00027973
14930.0 0.00028379
14950.0 0.00028763
14970.0 0.00029133
14990.0 0.00029442
15010.0 0.00029672
15030.0 0.00029833
15050.0 0.00029927
15070.0 0.0002995
15090.0 0.00029928
15110.0 0.00029876
15130.0 0.00029804
15150.0 0.00029721
15170.0 0.00029632
15190.0 0.00029539
15210.0 0.00029446
15230.0 0.00029352
15250.0 0.00029257
15270.0 0.00029162
15290.0 0.00029068
15310.0 0.00028973
15330.0 0.00028877
15350.0 0.00028782
15370.0 0.00028687
15390.0 0.00028591
15410.0 0.00028495
15430.0 0.000284
15450.0 0.00028304
15470.0 0.00028207
15490.0 0.00028112
15510.0 0.00028016
15530.0 0.0002792
15550.0 0.00027823
15570.0 0.00027728
15590.0 0.00027631
15610.0 0.00027535
15630.0 0.00027439
15650.0 0.00027343
15670.0 0.00027246
15690.0 0.0002715
15710.0 0.00027055
15730.0 0.00026959
15750.0 0.00026863
15770.0 0.00026767
15790.0 0.00026672
15810.0 0.00026575
15830.0 0.0002648
15850.0 0.00026385
15870.0 0.0002629
15890.0 0.00026194
15910.0 0.000261
15930.0 0.00026005
15950.0 0.00025909
15970.0 0.00025815
15990.0 0.00025721
16010.0 0.00025626
16030.0 0.00025532
16050.0 0.00025438
16070.0 0.00025345
16090.0 0.00025251
16110.0 0.00025158
16130.0 0.00025065
16150.0 0.00024971
16170.0 0.00024878
16190.0 0.00024786
16210.0 0.00024694
16230.0 0.00024601
16250.0 0.0002451
16270.0 0.00024419
16290.0 0.00024327
16310.0 0.00024236
16330.0 0.00024146
16350.0 0.00024055
16370.0 0.00023964
16390.0 0.00023874
16410.0 0.00023785
16430.0 0.00023695
16450.0 0.00023606
16470.0 0.00023517
16490.0 0.00023429
16510.0 0.0002334
16530.0 0.00023252
16550.0 0.00023165
16570.0 0.00023077
16590.0 0.00022989
16610.0 0.00022903
16630.0 0.00022817
16650.0 0.0002273
16670.0 0.00022645
16690.0 0.00022559
16710.0 0.00022474
16730.0 0.00022389
16750.0 0.00022305
16770.0 0.0002222
16790.0 0.00022136
16810.0 0.00022053
16830.0 0.0002197
16850.0 0.00021887
16870.0 0.00021804
16890.0 0.00021722
16910.0 0.0002164
16930.0 0.00021558
16950.0 0.00021477
16970.0 0.00021397
16990.0 0.00021316
17010.0 0.00021236
17030.0 0.00021157
17050.0 0.00021077
17070.0 0.00020998
17090.0 0.00020919
17110.0 0.00020841
17130.0 0.00020763
17150.0 0.00020685
17170.0 0.00020608
17190.0 0.00020531
17210.0 0.00020455
17230.0 0.00020379
17250.0 0.00020303
17270.0 0.00020227
17290.0 0.00020152
17310.0 0.00020078
17330.0 0.00020003
17350.0 0.00019929
17370.0 0.00019856
17390.0 0.00019783
17410.0 0.0001971
17430.0 0.00019637
17450.0 0.00019566
17470.0 0.00019493
17490.0 0.00019422
17510.0 0.00019351
17530.0 0.00019281
17550.0 0.0001921
17570.0 0.0001914
17590.0 0.00019071
17610.0 0.00019001
17630.0 0.00018933
17650.0 0.00018864
17670.0 0.00018796
17690.0 0.00018728
17710.0 0.00018661
17730.0 0.00018594
17750.0 0.00018527
17770.0 0.00018461
17790.0 0.00018395
17810.0 0.0001833
17830.0 0.00018264
17850.0 0.00018199
17870.0 0.00018135
17890.0 0.0001807
17910.0 0.00018007
17930.0 0.00017944
17950.0 0.0001788
17970.0 0.00017817
17990.0 0.00017755
18010.0 0.00017693
18030.0 0.00017631
18050.0 0.0001757
18070.0 0.00017509
18090.0 0.00017448
18110.0 0.00017388
18130.0 0.00017328
18150.0 0.00017269
18170.0 0.00017209
18190.0 0.0001715
18210.0 0.00017092
18230.0 0.00017033
18250.0 0.00016975
18270.0 0.00016918
18290.0 0.0001686
18310.0 0.00016803
18330.0 0.00016747
18350.0 0.00016691
18370.0 0.00016634
18390.0 0.00016579
18410.0 0.00016524
18430.0 0.00016469
18450.0 0.00016413
18470.0 0.00016359
18490.0 0.00016305
18510.0 0.00016252
18530.0 0.00016198
18550.0 0.00016145
18570.0 0.00016092
18590.0 0.0001604
18610.0 0.00015987
18630.0 0.00015936
18650.0 0.00015884
18670.0 0.00015833
18690.0 0.00015782
18710.0 0.00015731
18730.0 0.00015681
18750.0 0.00015631
18770.0 0.00015581
18790.0 0.00015531
18810.0 0.00015482
18830.0 0.00015433
18850.0 0.00015385
18870.0 0.00015336
18890.0 0.00015288
18910.0 0.00015241
18930.0 0.00015193
18950.0 0.00015146
18970.0 0.00015099
18990.0 0.00015053
19010.0 0.00015006
19030.0 0.0001496
19050.0 0.00014914
19070.0 0.00014869
19090.0 0.00014823
19110.0 0.00014779
19130.0 0.00014734
19150.0 0.00014689
19170.0 0.00014645
19190.0 0.00014601
19210.0 0.00014557
19230.0 0.00014514
19250.0 0.00014471
19270.0 0.00014428
19290.0 0.00014385
19310.0 0.00014343
19330.0 0.00014301
19350.0 0.00014259
19370.0 0.00014217
19390.0 0.00014176
19410.0 0.00014135
19430.0 0.00014093
19450.0 0.00014053
19470.0 0.00014013
19490.0 0.00013972
19510.0 0.00013932
19530.0 0.00013893
19550.0 0.00013853
19570.0 0.00013814
19590.0 0.00013775
19610.0 0.00013736
19630.0 0.00013697
19650.0 0.00013659
19670.0 0.00013621
19690.0 0.00013583
19710.0 0.00013545
19730.0 0.00013508
19750.0 0.00013471
19770.0 0.00013433
19790.0 0.00013397
19810.0 0.0001336
19830.0 0.00013323
19850.0 0.00013286
19870.0 0.00013248
19890.0 0.00013208
19910.0 0.00013163
19930.0 0.00013111
19950.0 0.00013048
19970.0 0.00012967
19990.0 0.00012866
20010.0 0.00012747
20030.0 0.00012601
20050.0 0.00012431
20070.0 0.00012246
20090.0 0.00012049
20110.0 0.00011831
20130.0 0.00011614
20150.0 0.00011402
20170.0 0.00011186
20190.0 0.0001097
20210.0 0.00010768
20230.0 0.00010572
20250.0 0.00010375
20270.0 0.00010191
20290.0 0.00010019
20310.0 9.8511e-05
20330.0 9.688e-05
20350.0 9.544e-05
20370.0 9.4075e-05
20390.0 9.2769e-05
20410.0 9.1585e-05
20430.0 9.0529e-05
20450.0 8.952e-05
20470.0 8.8618e-05
20490.0 8.7842e-05
20510.0 8.7156e-05
20530.0 8.6552e-05
20550.0 8.6057e-05
20570.0 8.5662e-05
20590.0 8.5344e-05
20610.0 8.5111e-05
20630.0 8.4958e-05
20650.0 8.4873e-05
20670.0 8.4858e-05
20690.0 8.4896e-05
20710.0 8.4977e-05
20730.0 8.5102e-05
20750.0 8.526e-05
20770.0 8.5425e-05
20790.0 8.5606e-05
20810.0 8.5799e-05
20830.0 8.5977e-05
20850.0 8.6135e-05
20870.0 8.6284e-05
20890.0 8.64e-05
20910.0 8.6468e-05
20930.0 8.6498e-05
20950.0 8.6482e-05
20970.0 8.641e-05
20990.0 8.6286e-05
21010.0 8.6103e-05
21030.0 8.5862e-05
21050.0 8.5569e-05
21070.0 8.5218e-05
21090.0 8.4804e-05
21110.0 8.4357e-05
21130.0 8.3873e-05
21150.0 8.3337e-05
21170.0 8.2774e-05
21190.0 8.2204e-05
21210.0 8.1599e-05
21230.0 8.097e-05
21250.0 8.036e-05
21270.0 7.9753e-05
21290.0 7.9137e-05
21310.0 7.8539e-05
21330.0 7.7983e-05
21350.0 7.7433e-05
21370.0 7.6907e-05
21390.0 7.6427e-05
21410.0 7.5986e-05
21430.0 7.5565e-05
21450.0 7.5203e-05
21470.0 7.4893e-05
21490.0 7.4627e-05
21510.0 7.4412e-05
21530.0 7.4254e-05
21550.0 7.4149e-05
21570.0 7.4101e-05
21590.0 7.4111e-05
21610.0 7.4172e-05
21630.0 7.4293e-05
21650.0 7.4478e-05
21670.0 7.4696e-05
21690.0 7.4965e-05
21710.0 7.5289e-05
21730.0 7.5645e-05
21750.0 7.6019e-05
21770.0 7.6449e-05
21790.0 7.6899e-05
21810.0 7.7346e-05
21830.0 7.7806e-05
21850.0 7.8286e-05
21870.0 7.8746e-05
21890.0 7.9177e-05
21910.0 7.9613e-05
21930.0 8.0024e-05
21950.0 8.0391e-05
21970.0 8.0733e-05
21990.0 8.1056e-05
22010.0 8.1319e-05
22030.0 8.1537e-05
22050.0 8.1719e-05
22070.0 8.1852e-05
22090.0 8.193e-05
22110.0 8.1965e-05
22130.0 8.1951e-05
22150.0 8.1884e-05
22170.0 8.1769e-05
22190.0 8.16e-05
22210.0 8.1379e-05
22230.0 8.1115e-05
22250.0 8.0799e-05
22270.0 8.0427e-05
22290.0 8.0017e-05
22310.0 7.9566e-05
22330.0 7.9046e-05
22350.0 7.8487e-05
22370.0 7.7899e-05
22390.0 7.7257e-05
22410.0 7.6551e-05
22430.0 7.5837e-05
22450.0 7.5091e-05
22470.0 7.4283e-05
22490.0 7.3452e-05
22510.0 7.262e-05
22530.0 7.1731e-05
22550.0 7.0805e-05
22570.0 6.9901e-05
22590.0 6.8988e-05
22610.0 6.8042e-05
22630.0 6.7108e-05
22650.0 6.622e-05
22670.0 6.5313e-05
22690.0 6.4416e-05
22710.0 6.3571e-05
22730.0 6.2757e-05
22750.0 6.1932e-05
22770.0 6.1174e-05
22790.0 6.0473e-05
22810.0 5.9792e-05
22830.0 5.9145e-05
22850.0 5.8564e-05
22870.0 5.8015e-05
22890.0 5.7486e-05
22910.0 5.7007e-05
22930.0 5.6571e-05
22950.0 5.6154e-05
