#lamb flux
1010.0 1.2182e-06
1030.0 1.2232e-06
1050.0 1.2287e-06
1070.0 1.2576e-06
1090.0 1.3367e-06
1110.0 1.3983e-06
1130.0 1.4422e-06
1150.0 1.4774e-06
1170.0 1.5031e-06
1190.0 1.5106e-06
1210.0 1.5123e-06
1230.0 1.5118e-06
1250.0 1.5054e-06
1270.0 1.4939e-06
1290.0 1.4864e-06
1310.0 1.4784e-06
1330.0 1.4679e-06
1350.0 1.4607e-06
1370.0 1.459e-06
1390.0 1.4598e-06
1410.0 1.4643e-06
1430.0 1.4786e-06
1450.0 1.5009e-06
1470.0 1.5306e-06
1490.0 1.572e-06
1510.0 1.6292e-06
1530.0 1.6975e-06
1550.0 1.7812e-06
1570.0 1.885e-06
1590.0 2.0096e-06
1610.0 2.1546e-06
1630.0 2.3286e-06
1650.0 2.5336e-06
1670.0 2.769e-06
1690.0 3.0396e-06
1710.0 3.3535e-06
1730.0 3.7126e-06
1750.0 4.1143e-06
1770.0 4.5709e-06
1790.0 5.0865e-06
1810.0 5.6583e-06
1830.0 6.2901e-06
1850.0 6.9957e-06
1870.0 7.7643e-06
1890.0 8.5934e-06
1910.0 9.4905e-06
1930.0 1.0455e-05
1950.0 1.1467e-05
1970.0 1.2526e-05
1990.0 1.3637e-05
2010.0 1.4776e-05
2030.0 1.5926e-05
2050.0 1.7094e-05
2070.0 1.8266e-05
2090.0 1.9403e-05
2110.0 2.0506e-05
2130.0 2.1576e-05
2150.0 2.2584e-05
2170.0 2.3509e-05
2190.0 2.4372e-05
2210.0 2.5156e-05
2230.0 2.5836e-05
2250.0 2.6425e-05
2270.0 2.6939e-05
2290.0 2.7351e-05
2310.0 2.7659e-05
2330.0 2.7897e-05
2350.0 2.8062e-05
2370.0 2.8143e-05
2390.0 2.8169e-05
2410.0 2.8167e-05
2430.0 2.8121e-05
2450.0 2.8047e-05
2470.0 2.7983e-05
2490.0 2.7944e-05
2510.0 2.7918e-05
2530.0 2.7986e-05
2550.0 2.8247e-05
2570.0 2.878e-05
2590.0 2.9693e-05
2610.0 3.1301e-05
2630.0 3.3657e-05
2650.0 3.6631e-05
2670.0 4.0316e-05
2690.0 4.4669e-05
2710.0 4.9191e-05
2730.0 5.3696e-05
2750.0 5.8427e-05
2770.0 6.3081e-05
2790.0 6.7537e-05
2810.0 7.2099e-05
2830.0 7.7027e-05
2850.0 8.1829e-05
2870.0 8.6767e-05
2890.0 9.2084e-05
2910.0 9.76e-05
2930.0 0.0001031
2950.0 0.00010901
2970.0 0.00011528
2990.0 0.00012162
3010.0 0.00012816
3030.0 0.00013516
3050.0 0.00014238
3070.0 0.00014942
3090.0 0.0001566
3110.0 0.00016358
3130.0 0.00016982
3150.0 0.00017516
3170.0 0.00017942
3190.0 0.00018239
3210.0 0.00018453
3230.0 0.0001863
3250.0 0.00018839
3270.0 0.00019157
3290.0 0.00019626
3310.0 0.00020286
3330.0 0.00021117
3350.0 0.00022066
3370.0 0.00023116
3390.0 0.00024195
3410.0 0.00025293
3430.0 0.00027514
3450.0 0.00029158
3470.0 0.00030609
3490.0 0.00031078
3510.0 0.00030671
3530.0 0.00034753
3550.0 0.00041343
3570.0 0.00045453
3590.0 0.00048572
3610.0 0.00048981
3630.0 0.00046462
3650.0 0.00049935
3670.0 0.0005973
3690.0 0.00067118
3710.0 0.0007008
3730.0 0.00071739
3750.0 0.00075472
3770.0 0.00075644
3790.0 0.00072501
3810.0 0.00068238
3830.0 0.00063649
3850.0 0.00063471
3870.0 0.00067348
3890.0 0.00071151
3910.0 0.00074095
3930.0 0.00074985
3950.0 0.00080018
3970.0 0.00085485
3990.0 0.00082355
4010.0 0.00073564
4030.0 0.00065334
4050.0 0.00062892
4070.0 0.00065474
4090.0 0.00066004
4110.0 0.0006415
4130.0 0.0006334
4150.0 0.0006502
4170.0 0.00071773
4190.0 0.00077723
4210.0 0.00075289
4230.0 0.00070277
4250.0 0.00067576
4270.0 0.0006604
4290.0 0.00067213
4310.0 0.00069226
4330.0 0.00065927
4350.0 0.00057994
4370.0 0.00051338
4390.0 0.0004677
4410.0 0.00043175
4430.0 0.00043191
4450.0 0.00046981
4470.0 0.00050801
4490.0 0.00055286
4510.0 0.00062543
4530.0 0.00076512
4550.0 0.00092349
4570.0 0.0010186
4590.0 0.0010892
4610.0 0.0011712
4630.0 0.0012108
4650.0 0.0011279
4670.0 0.00094626
4690.0 0.0008043
4710.0 0.00075554
4730.0 0.00073034
4750.0 0.00065446
4770.0 0.00059384
4790.0 0.00061672
4810.0 0.00067021
4830.0 0.00066732
4850.0 0.00061518
4870.0 0.00060256
4890.0 0.00062864
4910.0 0.00065766
4930.0 0.00065691
4950.0 0.00063872
4970.0 0.0006084
4990.0 0.00055921
5010.0 0.0005136
5030.0 0.0004877
5050.0 0.00047572
5070.0 0.00046765
5090.0 0.00046015
5110.0 0.00045948
5130.0 0.00046655
5150.0 0.00049276
5170.0 0.00054415
5190.0 0.00060657
5210.0 0.00067236
5230.0 0.00071304
5250.0 0.00073458
5270.0 0.00077303
5290.0 0.00081054
5310.0 0.00082014
5330.0 0.00079031
5350.0 0.00075545
5370.0 0.00075624
5390.0 0.0007978
5410.0 0.00083807
5430.0 0.00085257
5450.0 0.00084845
5470.0 0.00082453
5490.0 0.00079489
5510.0 0.00078021
5530.0 0.00078431
5550.0 0.00079676
5570.0 0.00080531
5590.0 0.00078217
5610.0 0.00073823
5630.0 0.00069506
5650.0 0.00066123
5670.0 0.00064072
5690.0 0.00061537
5710.0 0.00059609
5730.0 0.00060538
5750.0 0.00060464
5770.0 0.00059256
5790.0 0.00059834
5810.0 0.0006127
5830.0 0.00062623
5850.0 0.00063146
5870.0 0.00061896
5890.0 0.00059303
5910.0 0.00056324
5930.0 0.00052063
5950.0 0.0004902
5970.0 0.00048994
5990.0 0.00050581
6010.0 0.00051166
6030.0 0.00049358
6050.0 0.00048617
6070.0 0.00050492
6090.0 0.00052994
6110.0 0.00053925
6130.0 0.00052082
6150.0 0.00049047
6170.0 0.00047051
6190.0 0.00045076
6210.0 0.00042965
6230.0 0.00041359
6250.0 0.00040866
6270.0 0.00041923
6290.0 0.00043821
6310.0 0.0004626
6330.0 0.00048937
6350.0 0.0005116
6370.0 0.00052156
6390.0 0.0005226
6410.0 0.00052807
6430.0 0.00053455
6450.0 0.00053634
6470.0 0.00054323
6490.0 0.00055154
6510.0 0.00055383
6530.0 0.0005479
6550.0 0.0005324
6570.0 0.00051284
6590.0 0.00049789
6610.0 0.00048683
6630.0 0.00047713
6650.0 0.00046071
6670.0 0.00044125
6690.0 0.00042669
6710.0 0.00041766
6730.0 0.00041488
6750.0 0.00040979
6770.0 0.00040157
6790.0 0.00039534
6810.0 0.00039036
6830.0 0.00038933
6850.0 0.00038963
6870.0 0.00038662
6890.0 0.00038419
6910.0 0.00037615
6930.0 0.00036736
6950.0 0.00036533
6970.0 0.00035917
6990.0 0.00034797
7010.0 0.00034264
7030.0 0.00033834
7050.0 0.00033073
7070.0 0.0003217
7090.0 0.00031528
7110.0 0.00031859
7130.0 0.00033099
7150.0 0.00034515
7170.0 0.00035429
7190.0 0.00035163
7210.0 0.00034481
7230.0 0.00034034
7250.0 0.00033583
7270.0 0.00033292
7290.0 0.00032863
7310.0 0.00032651
7330.0 0.00033218
7350.0 0.00033869
7370.0 0.00034214
7390.0 0.00033879
7410.0 0.00033051
7430.0 0.00032649
7450.0 0.00032282
7470.0 0.00030711
7490.0 0.00029567
7510.0 0.00028316
7530.0 0.00027387
7550.0 0.0002725
7570.0 0.00027551
7590.0 0.00027369
7610.0 0.00027077
7630.0 0.00026942
7650.0 0.00026812
7670.0 0.00027302
7690.0 0.00028274
7710.0 0.00029427
7730.0 0.00030298
7750.0 0.00031146
7770.0 0.00031556
7790.0 0.00031453
7810.0 0.00030953
7830.0 0.00031258
7850.0 0.00031189
7870.0 0.00030155
7890.0 0.00029048
7910.0 0.00028104
7930.0 0.00027147
7950.0 0.00026474
7970.0 0.00026354
7990.0 0.00026661
8010.0 0.00026348
8030.0 0.00026023
8050.0 0.00025558
8070.0 0.00025048
8090.0 0.00024519
8110.0 0.00024531
8130.0 0.000247
8150.0 0.00024639
8170.0 0.00024439
8190.0 0.00023913
8210.0 0.00022684
8230.0 0.00021135
8250.0 0.00020176
8270.0 0.00019561
8290.0 0.0001917
8310.0 0.0001921
8330.0 0.000195
8350.0 0.00019063
8370.0 0.00018605
8390.0 0.00018927
8410.0 0.00019774
8430.0 0.0002102
8450.0 0.00022227
8470.0 0.00022704
8490.0 0.00023073
8510.0 0.0002316
8530.0 0.00023268
8550.0 0.00023521
8570.0 0.00023625
8590.0 0.00023721
8610.0 0.00024356
8630.0 0.00024599
8650.0 0.00024065
8670.0 0.00024031
8690.0 0.00024197
8710.0 0.00024139
8730.0 0.00023914
8750.0 0.00023222
8770.0 0.00022903
8790.0 0.00022714
8810.0 0.00022423
8830.0 0.00021143
8850.0 0.0001944
8870.0 0.00018192
8890.0 0.00017481
8910.0 0.00016438
8930.0 0.00015291
8950.0 0.00014703
8970.0 0.00014615
8990.0 0.00014681
9010.0 0.00014603
9030.0 0.000145
9050.0 0.00014405
9070.0 0.00014317
9090.0 0.0001423
9110.0 0.00014144
9130.0 0.00014058
9150.0 0.00013972
9170.0 0.00013886
9190.0 0.00013801
9210.0 0.00013715
9230.0 0.00013631
9250.0 0.00013547
9270.0 0.00013463
9290.0 0.0001338
9310.0 0.00013297
9330.0 0.00013214
9350.0 0.00013132
9370.0 0.00013049
9390.0 0.00012968
9410.0 0.00012886
9430.0 0.00012805
9450.0 0.00012721
9470.0 0.00012639
9490.0 0.00012563
9510.0 0.00012484
9530.0 0.00012407
9550.0 0.00012328
9570.0 0.0001225
9590.0 0.00012173
9610.0 0.00012096
9630.0 0.00012019
9650.0 0.00011943
9670.0 0.00011867
9690.0 0.00011791
9710.0 0.00011716
9730.0 0.00011641
9750.0 0.00011567
9770.0 0.00011493
9790.0 0.00011419
9810.0 0.00011346
9830.0 0.00011271
9850.0 0.00011189
9870.0 0.00011119
9890.0 0.00011051
9910.0 0.00010981
9930.0 0.0001091
9950.0 0.00010842
9970.0 0.00010772
9990.0 0.000107
10010.0 0.0001062
10030.0 0.00010547
10050.0 0.00010482
10070.0 0.00010418
10090.0 0.00010352
10110.0 0.00010282
10130.0 0.00010197
10150.0 0.00010132
10170.0 0.00010071
10190.0 0.00010005
10210.0 9.941e-05
10230.0 9.8767e-05
10250.0 9.8092e-05
10270.0 9.7419e-05
10290.0 9.677e-05
10310.0 9.6097e-05
10330.0 9.5405e-05
10350.0 9.4745e-05
10370.0 9.4089e-05
10390.0 9.3409e-05
10410.0 9.2735e-05
10430.0 9.2092e-05
10450.0 9.1425e-05
10470.0 9.0746e-05
10490.0 9.0091e-05
10510.0 8.9439e-05
10530.0 8.8749e-05
10550.0 8.8077e-05
10570.0 8.743e-05
10590.0 8.6762e-05
10610.0 8.6082e-05
10630.0 8.5429e-05
10650.0 8.4774e-05
10670.0 8.4086e-05
10690.0 8.3415e-05
10710.0 8.276e-05
10730.0 8.2082e-05
10750.0 8.1384e-05
10770.0 8.0728e-05
10790.0 8.0063e-05
10810.0 7.9374e-05
10830.0 7.8698e-05
10850.0 7.8044e-05
10870.0 7.7348e-05
10890.0 7.6656e-05
10910.0 7.5993e-05
10930.0 7.533e-05
10950.0 7.4651e-05
10970.0 7.4001e-05
10990.0 7.339e-05
11010.0 7.4846e-05
11030.0 7.4287e-05
11050.0 7.3752e-05
11070.0 7.3214e-05
11090.0 7.2641e-05
11110.0 7.2092e-05
11130.0 7.1546e-05
11150.0 7.0979e-05
11170.0 7.0411e-05
11190.0 6.9875e-05
11210.0 6.9335e-05
11230.0 6.8796e-05
11250.0 6.8292e-05
11270.0 6.7815e-05
11290.0 6.7342e-05
11310.0 6.6892e-05
11330.0 6.6488e-05
11350.0 6.6094e-05
11370.0 6.571e-05
11390.0 6.5352e-05
11410.0 6.5009e-05
11430.0 6.4655e-05
11450.0 6.4309e-05
11470.0 6.3969e-05
11490.0 6.3614e-05
11510.0 6.3236e-05
11530.0 6.2855e-05
11550.0 6.2458e-05
11570.0 6.2024e-05
11590.0 6.1567e-05
11610.0 6.1099e-05
11630.0 6.0588e-05
11650.0 6.0038e-05
11670.0 5.9486e-05
11690.0 5.8913e-05
11710.0 5.8302e-05
11730.0 5.7682e-05
11750.0 5.7073e-05
11770.0 5.6435e-05
11790.0 5.5784e-05
11810.0 5.5152e-05
11830.0 5.4523e-05
11850.0 5.3869e-05
11870.0 5.324e-05
11890.0 5.2639e-05
11910.0 5.2032e-05
11930.0 5.1433e-05
11950.0 5.0869e-05
11970.0 5.0316e-05
11990.0 4.9761e-05
12010.0 4.9239e-05
12030.0 4.8747e-05
12050.0 4.8262e-05
12070.0 4.7792e-05
12090.0 4.7369e-05
12110.0 4.6965e-05
12130.0 4.6578e-05
12150.0 4.6226e-05
12170.0 4.591e-05
12190.0 4.5611e-05
12210.0 4.5349e-05
12230.0 4.5128e-05
12250.0 4.494e-05
12270.0 4.4785e-05
12290.0 4.4669e-05
12310.0 4.4586e-05
12330.0 4.4535e-05
12350.0 4.4514e-05
12370.0 4.4515e-05
12390.0 4.4537e-05
12410.0 4.4581e-05
12430.0 4.4629e-05
12450.0 4.468e-05
12470.0 4.4733e-05
12490.0 4.4778e-05
12510.0 4.4806e-05
12530.0 4.4819e-05
12550.0 4.481e-05
12570.0 4.477e-05
12590.0 4.4699e-05
12610.0 4.4592e-05
12630.0 4.4444e-05
12650.0 4.4263e-05
12670.0 4.404e-05
12690.0 4.3774e-05
12710.0 4.3479e-05
12730.0 4.3154e-05
12750.0 4.2783e-05
12770.0 4.2393e-05
12790.0 4.199e-05
12810.0 4.1563e-05
12830.0 4.1114e-05
12850.0 4.0674e-05
12870.0 4.0231e-05
12890.0 3.9772e-05
12910.0 3.932e-05
12930.0 3.8883e-05
12950.0 3.8435e-05
12970.0 3.7985e-05
12990.0 3.7559e-05
13010.0 3.7138e-05
13030.0 3.6712e-05
13050.0 3.6299e-05
13070.0 3.5906e-05
13090.0 3.5509e-05
13110.0 3.5118e-05
13130.0 3.475e-05
13150.0 3.4394e-05
13170.0 3.4036e-05
13190.0 3.3704e-05
13210.0 3.3396e-05
13230.0 3.3096e-05
13250.0 3.2809e-05
13270.0 3.2548e-05
13290.0 3.2297e-05
13310.0 3.2052e-05
13330.0 3.1823e-05
13350.0 3.1607e-05
13370.0 3.1391e-05
13390.0 3.1176e-05
13410.0 3.0972e-05
13430.0 3.0766e-05
13450.0 3.0554e-05
13470.0 3.0343e-05
13490.0 3.0133e-05
13510.0 2.9909e-05
13530.0 2.9683e-05
13550.0 2.9459e-05
13570.0 2.923e-05
13590.0 2.8991e-05
13610.0 2.8756e-05
13630.0 2.8524e-05
13650.0 2.8282e-05
13670.0 2.8041e-05
13690.0 2.7807e-05
13710.0 2.7569e-05
13730.0 2.7321e-05
13750.0 2.7086e-05
13770.0 2.6852e-05
13790.0 2.6611e-05
13810.0 2.637e-05
13830.0 2.6138e-05
13850.0 2.5898e-05
13870.0 2.5652e-05
13890.0 2.5413e-05
13910.0 2.5174e-05
13930.0 2.4924e-05
13950.0 2.4675e-05
13970.0 2.4435e-05
13990.0 2.4188e-05
14010.0 2.3935e-05
14030.0 2.3689e-05
14050.0 2.3445e-05
14070.0 2.3186e-05
14090.0 2.2934e-05
14110.0 2.269e-05
14130.0 2.2442e-05
14150.0 2.2192e-05
14170.0 2.1957e-05
14190.0 2.1728e-05
14210.0 2.1499e-05
14230.0 2.1281e-05
14250.0 2.1079e-05
14270.0 2.0879e-05
14290.0 2.0687e-05
14310.0 2.0516e-05
14330.0 2.0354e-05
14350.0 2.0198e-05
14370.0 2.0055e-05
14390.0 1.9926e-05
14410.0 1.98e-05
14430.0 1.9681e-05
14450.0 1.9572e-05
14470.0 1.9469e-05
14490.0 1.9365e-05
14510.0 1.927e-05
14530.0 1.918e-05
14550.0 1.909e-05
14570.0 1.9002e-05
14590.0 1.892e-05
14610.0 1.8838e-05
14630.0 1.8754e-05
14650.0 1.8676e-05
14670.0 1.8601e-05
14690.0 1.8528e-05
14710.0 1.8458e-05
14730.0 1.8399e-05
14750.0 1.8345e-05
14770.0 1.8301e-05
14790.0 1.8269e-05
14810.0 1.8252e-05
14830.0 1.825e-05
14850.0 1.8267e-05
14870.0 1.8303e-05
14890.0 1.8357e-05
14910.0 1.843e-05
14930.0 1.8514e-05
14950.0 1.8604e-05
14970.0 1.8699e-05
14990.0 1.8786e-05
15010.0 1.8862e-05
15030.0 1.8925e-05
15050.0 1.8973e-05
15070.0 1.9008e-05
15090.0 1.9032e-05
15110.0 1.905e-05
15130.0 1.9064e-05
15150.0 1.9076e-05
15170.0 1.9087e-05
15190.0 1.9097e-05
15210.0 1.9108e-05
15230.0 1.912e-05
15250.0 1.9132e-05
15270.0 1.9145e-05
15290.0 1.9159e-05
15310.0 1.9173e-05
15330.0 1.9187e-05
15350.0 1.9203e-05
15370.0 1.9219e-05
15390.0 1.9235e-05
15410.0 1.9252e-05
15430.0 1.927e-05
15450.0 1.9288e-05
15470.0 1.9307e-05
15490.0 1.9326e-05
15510.0 1.9347e-05
15530.0 1.9367e-05
15550.0 1.9387e-05
15570.0 1.9409e-05
15590.0 1.9431e-05
15610.0 1.9453e-05
15630.0 1.9476e-05
15650.0 1.95e-05
15670.0 1.9523e-05
15690.0 1.9548e-05
15710.0 1.9573e-05
15730.0 1.9598e-05
15750.0 1.9623e-05
15770.0 1.965e-05
15790.0 1.9677e-05
15810.0 1.9703e-05
15830.0 1.973e-05
15850.0 1.9758e-05
15870.0 1.9786e-05
15890.0 1.9814e-05
15910.0 1.9844e-05
15930.0 1.9873e-05
15950.0 1.9902e-05
15970.0 1.9932e-05
15990.0 1.9963e-05
16010.0 1.9993e-05
16030.0 2.0023e-05
16050.0 2.0055e-05
16070.0 2.0086e-05
16090.0 2.0117e-05
16110.0 2.0149e-05
16130.0 2.0182e-05
16150.0 2.0213e-05
16170.0 2.0245e-05
16190.0 2.0279e-05
16210.0 2.0312e-05
16230.0 2.0344e-05
16250.0 2.0377e-05
16270.0 2.0411e-05
16290.0 2.0444e-05
16310.0 2.0478e-05
16330.0 2.0512e-05
16350.0 2.0546e-05
16370.0 2.0579e-05
16390.0 2.0613e-05
16410.0 2.0648e-05
16430.0 2.0681e-05
16450.0 2.0715e-05
16470.0 2.075e-05
16490.0 2.0784e-05
16510.0 2.0818e-05
16530.0 2.0852e-05
16550.0 2.0886e-05
16570.0 2.092e-05
16590.0 2.0953e-05
16610.0 2.0988e-05
16630.0 2.1021e-05
16650.0 2.1055e-05
16670.0 2.1089e-05
16690.0 2.1122e-05
16710.0 2.1155e-05
16730.0 2.1188e-05
16750.0 2.1221e-05
16770.0 2.1253e-05
16790.0 2.1285e-05
16810.0 2.1318e-05
16830.0 2.135e-05
16850.0 2.1381e-05
16870.0 2.1413e-05
16890.0 2.1444e-05
16910.0 2.1475e-05
16930.0 2.1504e-05
16950.0 2.1535e-05
16970.0 2.1565e-05
16990.0 2.1594e-05
17010.0 2.1623e-05
17030.0 2.1652e-05
17050.0 2.168e-05
17070.0 2.1707e-05
17090.0 2.1735e-05
17110.0 2.1762e-05
17130.0 2.1788e-05
17150.0 2.1814e-05
17170.0 2.184e-05
17190.0 2.1864e-05
17210.0 2.1888e-05
17230.0 2.1913e-05
17250.0 2.1936e-05
17270.0 2.1958e-05
17290.0 2.198e-05
17310.0 2.2002e-05
17330.0 2.2022e-05
17350.0 2.2042e-05
17370.0 2.2062e-05
17390.0 2.2081e-05
17410.0 2.2099e-05
17430.0 2.2117e-05
17450.0 2.2134e-05
17470.0 2.2149e-05
17490.0 2.2164e-05
17510.0 2.218e-05
17530.0 2.2194e-05
17550.0 2.2206e-05
17570.0 2.2219e-05
17590.0 2.2231e-05
17610.0 2.2241e-05
17630.0 2.2251e-05
17650.0 2.226e-05
17670.0 2.2269e-05
17690.0 2.2275e-05
17710.0 2.2282e-05
17730.0 2.2288e-05
17750.0 2.2292e-05
17770.0 2.2296e-05
17790.0 2.23e-05
17810.0 2.2301e-05
17830.0 2.2302e-05
17850.0 2.2302e-05
17870.0 2.2302e-05
17890.0 2.2299e-05
17910.0 2.2296e-05
17930.0 2.2293e-05
17950.0 2.2288e-05
17970.0 2.2282e-05
17990.0 2.2276e-05
18010.0 2.2269e-05
18030.0 2.2259e-05
18050.0 2.2249e-05
18070.0 2.2239e-05
18090.0 2.2227e-05
18110.0 2.2214e-05
18130.0 2.2201e-05
18150.0 2.2186e-05
18170.0 2.217e-05
18190.0 2.2153e-05
18210.0 2.2135e-05
18230.0 2.2115e-05
18250.0 2.2094e-05
18270.0 2.2074e-05
18290.0 2.2052e-05
18310.0 2.2028e-05
18330.0 2.2003e-05
18350.0 2.1978e-05
18370.0 2.1951e-05
18390.0 2.1923e-05
18410.0 2.1895e-05
18430.0 2.1865e-05
18450.0 2.1833e-05
18470.0 2.1801e-05
18490.0 2.1768e-05
18510.0 2.1733e-05
18530.0 2.1698e-05
18550.0 2.1662e-05
18570.0 2.1624e-05
18590.0 2.1585e-05
18610.0 2.1545e-05
18630.0 2.1505e-05
18650.0 2.1462e-05
18670.0 2.1419e-05
18690.0 2.1375e-05
18710.0 2.133e-05
18730.0 2.1283e-05
18750.0 2.1236e-05
18770.0 2.1189e-05
18790.0 2.1138e-05
18810.0 2.1088e-05
18830.0 2.1037e-05
18850.0 2.0984e-05
18870.0 2.093e-05
18890.0 2.0876e-05
18910.0 2.0821e-05
18930.0 2.0764e-05
18950.0 2.0706e-05
18970.0 2.0648e-05
18990.0 2.0588e-05
19010.0 2.0527e-05
19030.0 2.0466e-05
19050.0 2.0404e-05
19070.0 2.034e-05
19090.0 2.0275e-05
19110.0 2.0211e-05
19130.0 2.0144e-05
19150.0 2.0077e-05
19170.0 2.0009e-05
19190.0 1.994e-05
19210.0 1.987e-05
19230.0 1.9799e-05
19250.0 1.9728e-05
19270.0 1.9656e-05
19290.0 1.9582e-05
19310.0 1.9509e-05
19330.0 1.9435e-05
19350.0 1.9358e-05
19370.0 1.9282e-05
19390.0 1.9205e-05
19410.0 1.9127e-05
19430.0 1.9048e-05
19450.0 1.8969e-05
19470.0 1.8889e-05
19490.0 1.8808e-05
19510.0 1.8726e-05
19530.0 1.8645e-05
19550.0 1.8561e-05
19570.0 1.8477e-05
19590.0 1.8394e-05
19610.0 1.8309e-05
19630.0 1.8223e-05
19650.0 1.8138e-05
19670.0 1.8052e-05
19690.0 1.7964e-05
19710.0 1.7876e-05
19730.0 1.7789e-05
19750.0 1.77e-05
19770.0 1.761e-05
19790.0 1.752e-05
19810.0 1.7431e-05
19830.0 1.7339e-05
19850.0 1.7247e-05
19870.0 1.7155e-05
19890.0 1.7059e-05
19910.0 1.6957e-05
19930.0 1.685e-05
19950.0 1.6733e-05
19970.0 1.6599e-05
19990.0 1.6447e-05
20010.0 1.6279e-05
20030.0 1.6087e-05
20050.0 1.5873e-05
20070.0 1.5646e-05
20090.0 1.5408e-05
20110.0 1.515e-05
20130.0 1.4893e-05
20150.0 1.464e-05
20170.0 1.4383e-05
20190.0 1.4125e-05
20210.0 1.3879e-05
20230.0 1.3638e-05
20250.0 1.3396e-05
20270.0 1.3166e-05
20290.0 1.2947e-05
20310.0 1.2733e-05
20330.0 1.2524e-05
20350.0 1.2333e-05
20370.0 1.2151e-05
20390.0 1.1974e-05
20410.0 1.181e-05
20430.0 1.1658e-05
20450.0 1.1512e-05
20470.0 1.1375e-05
20490.0 1.1249e-05
20510.0 1.1132e-05
20530.0 1.1021e-05
20550.0 1.0919e-05
20570.0 1.0826e-05
20590.0 1.0737e-05
20610.0 1.0654e-05
20630.0 1.0577e-05
20650.0 1.0505e-05
20670.0 1.0435e-05
20690.0 1.037e-05
20710.0 1.0306e-05
20730.0 1.0244e-05
20750.0 1.0183e-05
20770.0 1.0122e-05
20790.0 1.006e-05
20810.0 9.996e-06
20830.0 9.9303e-06
20850.0 9.862e-06
20870.0 9.79e-06
20890.0 9.714e-06
20910.0 9.6348e-06
20930.0 9.5511e-06
20950.0 9.4622e-06
20970.0 9.3698e-06
20990.0 9.274e-06
21010.0 9.1719e-06
21030.0 9.0665e-06
21050.0 8.9591e-06
21070.0 8.8478e-06
21090.0 8.7316e-06
21110.0 8.6162e-06
21130.0 8.4998e-06
21150.0 8.3801e-06
21170.0 8.2603e-06
21190.0 8.1429e-06
21210.0 8.0234e-06
21230.0 7.9033e-06
21250.0 7.7874e-06
21270.0 7.6733e-06
21290.0 7.559e-06
21310.0 7.4477e-06
21330.0 7.3415e-06
21350.0 7.2359e-06
21370.0 7.1323e-06
21390.0 7.0333e-06
21410.0 6.9373e-06
21430.0 6.8412e-06
21450.0 6.7496e-06
21470.0 6.6617e-06
21490.0 6.575e-06
21510.0 6.4901e-06
21530.0 6.4087e-06
21550.0 6.329e-06
21570.0 6.2497e-06
21590.0 6.1728e-06
21610.0 6.098e-06
21630.0 6.0236e-06
21650.0 5.9496e-06
21670.0 5.8786e-06
21690.0 5.8081e-06
21710.0 5.7377e-06
21730.0 5.6687e-06
21750.0 5.6012e-06
21770.0 5.5327e-06
21790.0 5.4649e-06
21810.0 5.3985e-06
21830.0 5.3322e-06
21850.0 5.2651e-06
21870.0 5.1989e-06
21890.0 5.1337e-06
21910.0 5.0673e-06
21930.0 5.0009e-06
21950.0 4.9355e-06
21970.0 4.8695e-06
21990.0 4.802e-06
22010.0 4.736e-06
22030.0 4.6704e-06
22050.0 4.6039e-06
22070.0 4.5376e-06
22090.0 4.4731e-06
22110.0 4.4082e-06
22130.0 4.3431e-06
22150.0 4.2797e-06
22170.0 4.2175e-06
22190.0 4.1548e-06
22210.0 4.0933e-06
22230.0 4.0343e-06
22250.0 3.9757e-06
22270.0 3.9176e-06
22290.0 3.8616e-06
22310.0 3.8069e-06
22330.0 3.7521e-06
22350.0 3.6987e-06
22370.0 3.647e-06
22390.0 3.5955e-06
22410.0 3.5441e-06
22430.0 3.4945e-06
22450.0 3.4455e-06
22470.0 3.3961e-06
22490.0 3.3474e-06
22510.0 3.2997e-06
22530.0 3.2514e-06
22550.0 3.2028e-06
22570.0 3.1554e-06
22590.0 3.1082e-06
22610.0 3.0605e-06
22630.0 3.0134e-06
