#lamb flux
1010.0 3.8031e-05
1030.0 3.9983e-05
1050.0 4.2233e-05
1070.0 4.4766e-05
1090.0 4.7645e-05
1110.0 5.06e-05
1130.0 5.3579e-05
1150.0 5.6702e-05
1170.0 5.9927e-05
1190.0 6.2992e-05
1210.0 6.6102e-05
1230.0 6.9322e-05
1250.0 7.2483e-05
1270.0 7.556e-05
1290.0 7.8816e-05
1310.0 8.2077e-05
1330.0 8.5214e-05
1350.0 8.8394e-05
1370.0 9.1683e-05
1390.0 9.4901e-05
1410.0 9.8034e-05
1430.0 0.00010132
1450.0 0.00010461
1470.0 0.0001078
1490.0 0.00011104
1510.0 0.00011446
1530.0 0.00011771
1550.0 0.00012094
1570.0 0.00012428
1590.0 0.00012762
1610.0 0.00013084
1630.0 0.00013415
1650.0 0.00013755
1670.0 0.00014084
1690.0 0.0001441
1710.0 0.00014748
1730.0 0.00015088
1750.0 0.00015407
1770.0 0.00015736
1790.0 0.00016071
1810.0 0.00016395
1830.0 0.00016712
1850.0 0.00017048
1870.0 0.00017375
1890.0 0.0001769
1910.0 0.00018011
1930.0 0.00018339
1950.0 0.00018652
1970.0 0.00018961
1990.0 0.00019282
2010.0 0.00019597
2030.0 0.00019902
2050.0 0.00020217
2070.0 0.00020542
2090.0 0.0002085
2110.0 0.0002116
2130.0 0.00021482
2150.0 0.00021803
2170.0 0.00022114
2190.0 0.00022442
2210.0 0.00022778
2230.0 0.00023108
2250.0 0.00023445
2270.0 0.00023803
2290.0 0.00024161
2310.0 0.00024517
2330.0 0.00024893
2350.0 0.00025283
2370.0 0.00025673
2390.0 0.0002608
2410.0 0.00026516
2430.0 0.00026955
2450.0 0.00027397
2470.0 0.00027848
2490.0 0.00028294
2510.0 0.00028711
2530.0 0.00029139
2550.0 0.00029647
2570.0 0.00030342
2590.0 0.00031379
2610.0 0.00033087
2630.0 0.0003567
2650.0 0.00039123
2670.0 0.00043581
2690.0 0.00049029
2710.0 0.00054899
2730.0 0.00060861
2750.0 0.00067024
2770.0 0.00072923
2790.0 0.00078366
2810.0 0.00083635
2830.0 0.00088982
2850.0 0.00094074
2870.0 0.00099208
2890.0 0.0010462
2910.0 0.0011019
2930.0 0.0011572
2950.0 0.0012155
2970.0 0.0012763
2990.0 0.0013368
3010.0 0.0026601
3030.0 0.0027819
3050.0 0.0029047
3070.0 0.0030212
3090.0 0.0031349
3110.0 0.0032356
3130.0 0.0033078
3150.0 0.0033379
3170.0 0.0033003
3190.0 0.0031797
3210.0 0.002974
3230.0 0.0027239
3250.0 0.0027269
3270.0 0.0020269
3290.0 0.0022756
3310.0 0.001635
3330.0 0.0017595
3350.0 0.0019818
3370.0 0.0022161
3390.0 0.0024559
3410.0 0.0026947
3430.0 0.0029383
3450.0 0.0031803
3470.0 0.0034098
3490.0 0.0035762
3510.0 0.0038805
3530.0 0.0045359
3550.0 0.0051666
3570.0 0.0057905
3590.0 0.0071085
3610.0 0.0069085
3630.0 0.0074655
3650.0 0.0073314
3670.0 0.0079742
3690.0 0.0087085
3710.0 0.0092142
3730.0 0.010631
3750.0 0.011077
3770.0 0.01122
3790.0 0.010672
3810.0 0.0094098
3830.0 0.0086506
3850.0 0.0076065
3870.0 0.0082905
3890.0 0.009433
3910.0 0.011123
3930.0 0.012905
3950.0 0.014022
3970.0 0.015953
3990.0 0.016414
4010.0 0.015958
4030.0 0.016212
4050.0 0.014878
4070.0 0.014242
4090.0 0.013865
4110.0 0.013228
4130.0 0.014274
4150.0 0.01376
4170.0 0.013741
4190.0 0.013473
4210.0 0.014444
4230.0 0.013846
4250.0 0.01493
4270.0 0.01489
4290.0 0.014958
4310.0 0.015965
4330.0 0.017002
4350.0 0.017124
4370.0 0.016772
4390.0 0.015976
4410.0 0.014138
4430.0 0.011776
4450.0 0.010866
4470.0 0.011188
4490.0 0.011181
4510.0 0.012656
4530.0 0.013883
4550.0 0.016383
4570.0 0.021216
4590.0 0.025936
4610.0 0.02838
4630.0 0.032556
4650.0 0.03561
4670.0 0.035854
4690.0 0.032707
4710.0 0.030376
4730.0 0.026979
4750.0 0.022124
4770.0 0.018688
4790.0 0.016653
4810.0 0.018174
4830.0 0.020188
4850.0 0.022671
4870.0 0.02166
4890.0 0.024788
4910.0 0.025892
4930.0 0.028246
4950.0 0.033117
4970.0 0.035214
4990.0 0.037094
5010.0 0.03432
5030.0 0.028809
5050.0 0.023495
5070.0 0.018653
5090.0 0.016798
5110.0 0.016502
5130.0 0.016227
5150.0 0.016989
5170.0 0.016427
5190.0 0.017327
5210.0 0.017624
5230.0 0.018909
5250.0 0.022105
5270.0 0.023968
5290.0 0.025971
5310.0 0.029183
5330.0 0.031518
5350.0 0.032199
5370.0 0.032176
5390.0 0.031434
5410.0 0.030785
5430.0 0.031124
5450.0 0.03478
5470.0 0.040701
5490.0 0.046421
5510.0 0.051725
5530.0 0.052932
5550.0 0.052281
5570.0 0.050793
5590.0 0.049402
5610.0 0.048718
5630.0 0.048621
5650.0 0.048723
5670.0 0.047953
5690.0 0.044527
5710.0 0.040553
5730.0 0.036114
5750.0 0.033679
5770.0 0.031751
5790.0 0.032296
5810.0 0.033867
5830.0 0.034914
5850.0 0.033707
5870.0 0.031901
5890.0 0.031153
5910.0 0.030115
5930.0 0.029342
5950.0 0.028485
5970.0 0.02719
5990.0 0.023889
6010.0 0.020696
6030.0 0.018909
6050.0 0.018292
6070.0 0.017864
6090.0 0.017844
6110.0 0.018209
6130.0 0.018379
6150.0 0.019479
6170.0 0.021558
6190.0 0.023751
6210.0 0.024924
6230.0 0.025262
6250.0 0.023235
6270.0 0.02052
6290.0 0.017636
6310.0 0.015417
6330.0 0.014248
6350.0 0.013842
6370.0 0.014534
6390.0 0.016295
6410.0 0.019148
6430.0 0.022851
6450.0 0.025955
6470.0 0.028305
6490.0 0.030321
6510.0 0.031151
6530.0 0.030927
6550.0 0.031072
6570.0 0.031402
6590.0 0.03101
6610.0 0.031324
6630.0 0.030757
6650.0 0.029783
6670.0 0.02806
6690.0 0.025677
6710.0 0.024647
6730.0 0.023325
6750.0 0.023316
6770.0 0.023948
6790.0 0.02478
6810.0 0.025227
6830.0 0.024751
6850.0 0.023741
6870.0 0.022997
6890.0 0.021914
6910.0 0.02088
6930.0 0.021402
6950.0 0.021675
6970.0 0.022551
6990.0 0.023435
7010.0 0.023231
7030.0 0.021863
7050.0 0.019564
7070.0 0.017395
7090.0 0.015411
7110.0 0.014345
7130.0 0.013782
7150.0 0.013416
7170.0 0.013879
7190.0 0.014184
7210.0 0.014954
7230.0 0.016593
7250.0 0.017768
7270.0 0.018193
7290.0 0.017955
7310.0 0.017136
7330.0 0.016072
7350.0 0.01552
7370.0 0.015621
7390.0 0.016438
7410.0 0.018166
7430.0 0.020276
7450.0 0.022883
7470.0 0.024859
7490.0 0.025818
7510.0 0.024862
7530.0 0.022859
7550.0 0.020032
7570.0 0.017113
7590.0 0.015906
7610.0 0.016035
7630.0 0.017171
7650.0 0.019535
7670.0 0.021861
7690.0 0.023988
7710.0 0.025934
7730.0 0.027514
7750.0 0.028852
7770.0 0.029511
7790.0 0.030568
7810.0 0.031298
7830.0 0.031264
7850.0 0.031453
7870.0 0.030415
7890.0 0.029547
7910.0 0.02793
7930.0 0.027266
7950.0 0.026318
7970.0 0.026577
7990.0 0.026387
8010.0 0.026021
8030.0 0.02612
8050.0 0.027004
8070.0 0.026544
8090.0 0.026621
8110.0 0.02572
8130.0 0.025642
8150.0 0.024898
8170.0 0.024246
8190.0 0.02397
8210.0 0.024194
8230.0 0.022462
8250.0 0.02094
8270.0 0.018309
8290.0 0.014878
8310.0 0.011842
8330.0 0.0092132
8350.0 0.008044
8370.0 0.0088668
8390.0 0.0099789
8410.0 0.010984
8430.0 0.012512
8450.0 0.013257
8470.0 0.013911
8490.0 0.015564
8510.0 0.017252
8530.0 0.020053
8550.0 0.023657
8570.0 0.026838
8590.0 0.029381
8610.0 0.031764
8630.0 0.033774
8650.0 0.03418
8670.0 0.034374
8690.0 0.035576
8710.0 0.035987
8730.0 0.036511
8750.0 0.035573
8770.0 0.035693
8790.0 0.035229
8810.0 0.032801
8830.0 0.032194
8850.0 0.030459
8870.0 0.029236
8890.0 0.027709
8910.0 0.028702
8930.0 0.026902
8950.0 0.026087
8970.0 0.025834
8990.0 0.025191
9010.0 0.024982
9030.0 0.024258
9050.0 0.024117
9070.0 0.024058
9090.0 0.023998
9110.0 0.023942
9130.0 0.023878
9150.0 0.02381
9170.0 0.023705
9190.0 0.023548
9210.0 0.023696
9230.0 0.023572
9250.0 0.023475
9270.0 0.023382
9290.0 0.023292
9310.0 0.023205
9330.0 0.023118
9350.0 0.02303
9370.0 0.022942
9390.0 0.022853
9410.0 0.022762
9430.0 0.022669
9450.0 0.02257
9470.0 0.022471
9490.0 0.022382
9510.0 0.022289
9530.0 0.022194
9550.0 0.022097
9570.0 0.021999
9590.0 0.021901
9610.0 0.021802
9630.0 0.021702
9650.0 0.021601
9670.0 0.0215
9690.0 0.021399
9710.0 0.021298
9730.0 0.021196
9750.0 0.021095
9770.0 0.020993
9790.0 0.020891
9810.0 0.020789
9830.0 0.020688
9850.0 0.020586
9870.0 0.020485
9890.0 0.020383
9910.0 0.020282
9930.0 0.02018
9950.0 0.01997
9970.0 0.019902
9990.0 0.019828
10010.0 0.019752
10030.0 0.019666
10050.0 0.019572
10070.0 0.01947
10090.0 0.019381
10110.0 0.019285
10130.0 0.019192
10150.0 0.019099
10170.0 0.019003
10190.0 0.018903
10210.0 0.018809
10230.0 0.018717
10250.0 0.018622
10270.0 0.018527
10290.0 0.018438
10310.0 0.018345
10330.0 0.018249
10350.0 0.018159
10370.0 0.01807
10390.0 0.017977
10410.0 0.017885
10430.0 0.0178
10450.0 0.01771
10470.0 0.017619
10490.0 0.017533
10510.0 0.017447
10530.0 0.017355
10550.0 0.017267
10570.0 0.017183
10590.0 0.017096
10610.0 0.017008
10630.0 0.016925
10650.0 0.016841
10670.0 0.016753
10690.0 0.016667
10710.0 0.016585
10730.0 0.0165
10750.0 0.016411
10770.0 0.01633
10790.0 0.016247
10810.0 0.016161
10830.0 0.016077
10850.0 0.015996
10870.0 0.015907
10890.0 0.015815
10910.0 0.015723
10930.0 0.015622
10950.0 0.015502
10970.0 0.015368
10990.0 0.01522
11010.0 0.014078
11030.0 0.013895
11050.0 0.013706
11070.0 0.013503
11090.0 0.013277
11110.0 0.013061
11130.0 0.012848
11150.0 0.012626
11170.0 0.012405
11190.0 0.012199
11210.0 0.011989
11230.0 0.011774
11250.0 0.011572
11270.0 0.011378
11290.0 0.01118
11310.0 0.010989
11330.0 0.010819
11350.0 0.010652
11370.0 0.010489
11390.0 0.010341
11410.0 0.010205
11430.0 0.010065
11450.0 0.009934
11470.0 0.0098124
11490.0 0.0096888
11510.0 0.009559
11530.0 0.0094342
11550.0 0.0093064
11570.0 0.0091653
11590.0 0.0090182
11610.0 0.0088697
11630.0 0.0087053
11650.0 0.0085267
11670.0 0.008351
11690.0 0.0081695
11710.0 0.0079759
11730.0 0.0077826
11750.0 0.0075988
11770.0 0.0074084
11790.0 0.0072195
11810.0 0.0070442
11830.0 0.0068768
11850.0 0.0067077
11870.0 0.0065549
11890.0 0.0064178
11910.0 0.006285
11930.0 0.0061599
11950.0 0.0060499
11970.0 0.0059463
11990.0 0.0058445
12010.0 0.005753
12030.0 0.0056699
12050.0 0.0055884
12070.0 0.0055094
12090.0 0.0054416
12110.0 0.0053766
12130.0 0.0053136
12150.0 0.005258
12170.0 0.0052103
12190.0 0.0051647
12210.0 0.0051279
12230.0 0.0051024
12250.0 0.0050863
12270.0 0.0050809
12290.0 0.0050897
12310.0 0.0051122
12330.0 0.0051492
12350.0 0.005202
12370.0 0.0052686
12390.0 0.0053499
12410.0 0.0054486
12430.0 0.0055556
12450.0 0.0056712
12470.0 0.0057972
12490.0 0.0059283
12510.0 0.0060571
12530.0 0.0061887
12550.0 0.0063199
12570.0 0.0064429
12590.0 0.0065582
12610.0 0.0066682
12630.0 0.0067676
12650.0 0.0068529
12670.0 0.0069287
12690.0 0.0069933
12710.0 0.0070451
12730.0 0.0070856
12750.0 0.0071148
12770.0 0.0071326
12790.0 0.0071407
12810.0 0.0071384
12830.0 0.0071257
12850.0 0.0071064
12870.0 0.0070799
12890.0 0.0070442
12910.0 0.0070028
12930.0 0.0069581
12950.0 0.0069052
12970.0 0.0068455
12990.0 0.0067853
13010.0 0.0067206
13030.0 0.0066486
13050.0 0.006574
13070.0 0.0064995
13090.0 0.0064177
13110.0 0.0063322
13130.0 0.0062483
13150.0 0.0061636
13170.0 0.0060744
13190.0 0.0059913
13210.0 0.0059154
13230.0 0.0058425
13250.0 0.0057774
13270.0 0.0057251
13290.0 0.0056827
13310.0 0.0056508
13330.0 0.0056333
13350.0 0.0056281
13370.0 0.0056337
13390.0 0.0056494
13410.0 0.0056715
13430.0 0.0056978
13450.0 0.0057253
13470.0 0.0057498
13490.0 0.0057685
13510.0 0.0057789
13530.0 0.0057775
13550.0 0.005764
13570.0 0.005737
13590.0 0.0056951
13610.0 0.0056419
13630.0 0.0055798
13650.0 0.0055054
13670.0 0.0054243
13690.0 0.0053417
13710.0 0.0052554
13730.0 0.0051647
13750.0 0.005081
13770.0 0.0050011
13790.0 0.0049228
13810.0 0.00485
13830.0 0.0047852
13850.0 0.0047234
13870.0 0.0046656
13890.0 0.0046144
13910.0 0.0045677
13930.0 0.0045231
13950.0 0.0044822
13970.0 0.0044462
13990.0 0.0044117
14010.0 0.0043792
14030.0 0.00435
14050.0 0.004323
14070.0 0.0042968
14090.0 0.0042733
14110.0 0.0042522
14130.0 0.0042324
14150.0 0.0042141
14170.0 0.004198
14190.0 0.0041833
14210.0 0.0041699
14230.0 0.0041583
14250.0 0.0041484
14270.0 0.0041401
14290.0 0.0041338
14310.0 0.0041294
14330.0 0.0041268
14350.0 0.0041264
14370.0 0.0041275
14390.0 0.0041296
14410.0 0.0041331
14430.0 0.0041372
14450.0 0.0041408
14470.0 0.004144
14490.0 0.0041468
14510.0 0.0041478
14530.0 0.004147
14550.0 0.0041452
14570.0 0.0041422
14590.0 0.0041382
14610.0 0.0041341
14630.0 0.0041309
14650.0 0.004129
14670.0 0.0041291
14690.0 0.0041329
14710.0 0.0041415
14730.0 0.0041536
14750.0 0.0041717
14770.0 0.004197
14790.0 0.004228
14810.0 0.0042645
14830.0 0.0043116
14850.0 0.0043649
14870.0 0.0044218
14890.0 0.0044846
14910.0 0.0045526
14930.0 0.0046176
14950.0 0.0046774
14970.0 0.0047332
14990.0 0.0047776
15010.0 0.0048076
15030.0 0.0048255
15050.0 0.0048318
15070.0 0.0048261
15090.0 0.0048131
15110.0 0.004795
15130.0 0.0047736
15150.0 0.0047505
15170.0 0.0047263
15190.0 0.0047016
15210.0 0.0046768
15230.0 0.004652
15250.0 0.0046269
15270.0 0.0046018
15290.0 0.004577
15310.0 0.004552
15330.0 0.004527
15350.0 0.0045021
15370.0 0.0044773
15390.0 0.0044522
15410.0 0.0044273
15430.0 0.0044025
15450.0 0.0043776
15470.0 0.0043527
15490.0 0.0043281
15510.0 0.0043035
15530.0 0.0042787
15550.0 0.0042542
15570.0 0.0042298
15590.0 0.0042052
15610.0 0.0041807
15630.0 0.0041565
15650.0 0.0041323
15670.0 0.0041081
15690.0 0.004084
15710.0 0.0040602
15730.0 0.0040362
15750.0 0.0040124
15770.0 0.0039887
15790.0 0.0039652
15810.0 0.0039415
15830.0 0.0039181
15850.0 0.003895
15870.0 0.0038718
15890.0 0.0038487
15910.0 0.0038258
15930.0 0.003803
15950.0 0.0037802
15970.0 0.0037576
15990.0 0.0037353
16010.0 0.0037129
16030.0 0.0036906
16050.0 0.0036686
16070.0 0.0036467
16090.0 0.0036248
16110.0 0.0036032
16130.0 0.0035818
16150.0 0.0035602
16170.0 0.0035389
16190.0 0.0035179
16210.0 0.0034969
16230.0 0.003476
16250.0 0.0034553
16270.0 0.0034349
16290.0 0.0034144
16310.0 0.0033941
16330.0 0.0033741
16350.0 0.0033541
16370.0 0.0033341
16390.0 0.0033145
16410.0 0.003295
16430.0 0.0032756
16450.0 0.0032564
16470.0 0.0032374
16490.0 0.0032185
16510.0 0.0031996
16530.0 0.003181
16550.0 0.0031626
16570.0 0.0031442
16590.0 0.0031259
16610.0 0.003108
16630.0 0.0030901
16650.0 0.0030724
16670.0 0.0030549
16690.0 0.0030375
16710.0 0.0030201
16730.0 0.003003
16750.0 0.0029861
16770.0 0.0029692
16790.0 0.0029524
16810.0 0.002936
16830.0 0.0029197
16850.0 0.0029034
16870.0 0.0028873
16890.0 0.0028714
16910.0 0.0028556
16930.0 0.0028398
16950.0 0.0028244
16970.0 0.0028091
16990.0 0.0027938
17010.0 0.0027787
17030.0 0.0027639
17050.0 0.002749
17070.0 0.0027343
17090.0 0.0027199
17110.0 0.0027056
17130.0 0.0026912
17150.0 0.0026771
17170.0 0.0026633
17190.0 0.0026494
17210.0 0.0026357
17230.0 0.0026222
17250.0 0.0026088
17270.0 0.0025954
17290.0 0.0025823
17310.0 0.0025693
17330.0 0.0025564
17350.0 0.0025435
17370.0 0.002531
17390.0 0.0025185
17410.0 0.0025061
17430.0 0.0024939
17450.0 0.0024818
17470.0 0.0024697
17490.0 0.0024578
17510.0 0.0024461
17530.0 0.0024344
17550.0 0.0024228
17570.0 0.0024115
17590.0 0.0024003
17610.0 0.002389
17630.0 0.002378
17650.0 0.0023671
17670.0 0.0023563
17690.0 0.0023454
17710.0 0.0023349
17730.0 0.0023245
17750.0 0.002314
17770.0 0.0023038
17790.0 0.0022937
17810.0 0.0022836
17830.0 0.0022736
17850.0 0.0022638
17870.0 0.0022541
17890.0 0.0022444
17910.0 0.0022348
17930.0 0.0022255
17950.0 0.0022161
17970.0 0.0022068
17990.0 0.0021978
18010.0 0.0021888
18030.0 0.0021797
18050.0 0.0021709
18070.0 0.0021622
18090.0 0.0021535
18110.0 0.0021449
18130.0 0.0021365
18150.0 0.0021281
18170.0 0.0021198
18190.0 0.0021116
18210.0 0.0021035
18230.0 0.0020954
18250.0 0.0020874
18270.0 0.0020796
18290.0 0.0020719
18310.0 0.0020641
18330.0 0.0020565
18350.0 0.0020491
18370.0 0.0020416
18390.0 0.0020341
18410.0 0.0020269
18430.0 0.0020197
18450.0 0.0020125
18470.0 0.0020054
18490.0 0.0019985
18510.0 0.0019916
18530.0 0.0019847
18550.0 0.001978
18570.0 0.0019713
18590.0 0.0019646
18610.0 0.0019581
18630.0 0.0019516
18650.0 0.0019452
18670.0 0.0019388
18690.0 0.0019326
18710.0 0.0019264
18730.0 0.0019202
18750.0 0.0019141
18770.0 0.0019081
18790.0 0.0019021
18810.0 0.0018962
18830.0 0.0018904
18850.0 0.0018846
18870.0 0.0018788
18890.0 0.0018732
18910.0 0.0018677
18930.0 0.0018621
18950.0 0.0018566
18970.0 0.0018512
18990.0 0.0018458
19010.0 0.0018404
19030.0 0.0018352
19050.0 0.00183
19070.0 0.0018248
19090.0 0.0018197
19110.0 0.0018148
19130.0 0.0018097
19150.0 0.0018047
19170.0 0.0017998
19190.0 0.001795
19210.0 0.0017901
19230.0 0.0017854
19250.0 0.0017807
19270.0 0.001776
19290.0 0.0017714
19310.0 0.0017669
19330.0 0.0017624
19350.0 0.0017578
19370.0 0.0017533
19390.0 0.001749
19410.0 0.0017446
19430.0 0.0017402
19450.0 0.001736
19470.0 0.0017318
19490.0 0.0017276
19510.0 0.0017234
19530.0 0.0017193
19550.0 0.0017152
19570.0 0.0017111
19590.0 0.0017072
19610.0 0.0017032
19630.0 0.0016992
19650.0 0.0016953
19670.0 0.0016915
19690.0 0.0016876
19710.0 0.0016838
19730.0 0.0016801
19750.0 0.0016764
19770.0 0.0016726
19790.0 0.0016689
19810.0 0.0016653
19830.0 0.0016617
19850.0 0.001658
19870.0 0.0016542
19890.0 0.0016502
19910.0 0.0016455
19930.0 0.0016401
19950.0 0.0016335
19970.0 0.0016247
19990.0 0.0016134
20010.0 0.0016
20030.0 0.0015834
20050.0 0.0015635
20070.0 0.0015418
20090.0 0.0015184
20110.0 0.0014921
20130.0 0.0014655
20150.0 0.0014392
20170.0 0.0014121
20190.0 0.0013847
20210.0 0.0013589
20230.0 0.0013336
20250.0 0.0013082
20270.0 0.0012845
20290.0 0.0012625
20310.0 0.0012414
20330.0 0.0012214
20350.0 0.0012043
20370.0 0.0011888
20390.0 0.0011748
20410.0 0.0011631
20430.0 0.0011537
20450.0 0.0011457
20470.0 0.0011399
20490.0 0.0011361
20510.0 0.0011341
20530.0 0.0011338
20550.0 0.0011351
20570.0 0.0011377
20590.0 0.0011417
20610.0 0.0011468
20630.0 0.0011525
20650.0 0.0011589
20670.0 0.0011662
20690.0 0.0011734
20710.0 0.0011805
20730.0 0.0011877
20750.0 0.0011946
20770.0 0.0012007
20790.0 0.0012063
20810.0 0.0012113
20830.0 0.0012152
20850.0 0.0012181
20870.0 0.0012201
20890.0 0.001221
20910.0 0.0012207
20930.0 0.0012193
20950.0 0.0012168
20970.0 0.0012134
20990.0 0.0012091
21010.0 0.0012037
21030.0 0.0011975
21050.0 0.0011908
21070.0 0.0011835
21090.0 0.0011754
21110.0 0.0011673
21130.0 0.001159
21150.0 0.0011504
21170.0 0.0011419
21190.0 0.0011338
21210.0 0.0011257
21230.0 0.0011178
21250.0 0.0011107
21270.0 0.0011041
21290.0 0.0010981
21310.0 0.0010928
21330.0 0.0010885
21350.0 0.001085
21370.0 0.0010822
21390.0 0.0010805
21410.0 0.0010797
21430.0 0.0010798
21450.0 0.0010808
21470.0 0.0010826
21490.0 0.0010853
21510.0 0.0010888
21530.0 0.0010929
21550.0 0.0010977
21570.0 0.0011033
21590.0 0.0011093
21610.0 0.0011157
21630.0 0.0011227
21650.0 0.0011304
21670.0 0.0011379
21690.0 0.0011458
21710.0 0.0011542
21730.0 0.0011626
21750.0 0.0011709
21770.0 0.0011799
21790.0 0.0011889
21810.0 0.0011976
21830.0 0.0012065
21850.0 0.0012156
21870.0 0.0012245
21890.0 0.0012329
21910.0 0.0012416
21930.0 0.00125
21950.0 0.0012579
21970.0 0.0012656
21990.0 0.0012733
22010.0 0.0012802
22030.0 0.0012864
22050.0 0.0012923
22070.0 0.0012975
22090.0 0.0013017
22110.0 0.0013052
22130.0 0.0013079
22150.0 0.0013095
22170.0 0.0013102
22190.0 0.0013097
22210.0 0.0013081
22230.0 0.0013054
22250.0 0.0013015
22270.0 0.0012963
22290.0 0.0012902
22310.0 0.001283
22330.0 0.0012743
22350.0 0.0012646
22370.0 0.0012542
22390.0 0.0012427
22410.0 0.0012299
22430.0 0.0012169
22450.0 0.0012034
22470.0 0.0011888
22490.0 0.0011739
22510.0 0.0011592
22530.0 0.0011436
22550.0 0.0011275
22570.0 0.0011122
22590.0 0.0010969
22610.0 0.0010813
22630.0 0.0010662
22650.0 0.0010521
22670.0 0.0010379
22690.0 0.0010241
22710.0 0.0010112
22730.0 0.00099904
22750.0 0.00098679
22770.0 0.00097566
22790.0 0.00096546
22810.0 0.00095557
22830.0 0.00094621
22850.0 0.00093782
22870.0 0.00092986
22890.0 0.00092213
22910.0 0.00091512
22930.0 0.00090869
22950.0 0.00090249
22970.0 0.00089655
22990.0 0.00089137
23010.0 0.00088641
23030.0 0.00088165
23050.0 0.0008773
23070.0 0.00087334
23090.0 0.00086939
23110.0 0.00086574
23130.0 0.00086243
23150.0 0.00085927
23170.0 0.00085619
23190.0 0.00085337
23210.0 0.00085078
23230.0 0.00084824
23250.0 0.00084588
23270.0 0.00084378
23290.0 0.00084185
23310.0 0.00084007
23330.0 0.00083866
23350.0 0.00083755
23370.0 0.00083672
23390.0 0.00083622
23410.0 0.00083608
23430.0 0.00083624
23450.0 0.00083673
23470.0 0.00083749
23490.0 0.00083847
23510.0 0.00083971
23530.0 0.0008411
23550.0 0.00084253
23570.0 0.00084406
23590.0 0.00084565
23610.0 0.00084719
23630.0 0.00084871
23650.0 0.0008503
23670.0 0.00085185
23690.0 0.00085339
23710.0 0.00085506
23730.0 0.00085694
23750.0 0.00085897
23770.0 0.00086132
23790.0 0.00086422
23810.0 0.00086766
23830.0 0.00087162
23850.0 0.00087655
23870.0 0.00088249
23890.0 0.0008891
23910.0 0.00089667
23930.0 0.00090549
23950.0 0.00091511
23970.0 0.00092516
23990.0 0.00093634
24010.0 0.00094821
24030.0 0.00096007
24050.0 0.00097217
