#lamb flux
2300 2.9859e-11
2310 2.934e-11
2320 2.8764e-11
2330 2.83e-11
2340 2.7958e-11
2350 2.7637e-11
2360 2.7036e-11
2370 2.6396e-11
2380 2.5574e-11
2390 2.4859e-11
2400 2.4297e-11
2410 2.3981e-11
2420 2.4e-11
2430 2.4379e-11
2440 2.5239e-11
2450 2.66e-11
2460 2.845e-11
2470 3.0734e-11
2480 3.3326e-11
2490 3.6129e-11
2500 3.9177e-11
2510 4.249e-11
2520 4.6101e-11
2530 4.994e-11
2540 5.4046e-11
2550 5.8356e-11
2560 6.287e-11
2570 6.7503e-11
2580 7.2274e-11
2590 7.7117e-11
2600 8.2124e-11
2610 8.7322e-11
2620 9.2743e-11
2630 9.8425e-11
2640 1.0432e-10
2650 1.1042e-10
2660 1.1675e-10
2670 1.2339e-10
2680 1.3026e-10
2690 1.3756e-10
2700 1.4529e-10
2710 1.5343e-10
2720 1.6206e-10
2730 1.7107e-10
2740 1.8055e-10
2750 1.9052e-10
2760 2.0095e-10
2770 2.118e-10
2780 2.2305e-10
2790 2.3461e-10
2800 2.4643e-10
2810 2.584e-10
2820 2.7073e-10
2830 2.8277e-10
2840 2.9438e-10
2850 3.0558e-10
2860 3.1608e-10
2870 3.261e-10
2880 3.3633e-10
2890 3.4629e-10
2900 3.5619e-10
2910 3.657e-10
2920 3.7544e-10
2930 3.8504e-10
2940 3.9447e-10
2950 4.0413e-10
2960 4.1403e-10
2970 4.2446e-10
2980 4.3562e-10
2990 4.4757e-10
3000 4.6051e-10
3010 4.7467e-10
3020 4.8991e-10
3030 5.066e-10
3040 5.248e-10
3050 5.444e-10
3060 5.6555e-10
3070 5.8809e-10
3080 6.1197e-10
3090 6.3714e-10
3100 6.6397e-10
3110 6.9224e-10
3120 7.2219e-10
3130 7.5358e-10
3140 7.8677e-10
3150 8.2126e-10
3160 8.572e-10
3170 8.9407e-10
3180 9.319e-10
3190 9.707e-10
3200 1.0105e-09
3210 1.0518e-09
3220 1.0943e-09
3230 1.1384e-09
3240 1.1841e-09
3250 1.2322e-09
3260 1.2825e-09
3270 1.3348e-09
3280 1.4383e-09
3290 1.7014e-09
3300 2.0117e-09
3310 2.3766e-09
3320 2.8061e-09
3330 3.3113e-09
3340 3.9052e-09
3350 4.605e-09
3360 5.4297e-09
3370 6.3994e-09
3380 7.5382e-09
3390 8.8725e-09
3400 1.0431e-08
3410 1.2251e-08
3420 1.4366e-08
3430 1.6819e-08
3440 1.9657e-08
3450 2.2933e-08
3460 2.6712e-08
3470 3.1065e-08
3480 3.6072e-08
3490 4.1821e-08
3500 4.841e-08
3510 5.5949e-08
3520 6.4572e-08
3530 7.4411e-08
3540 8.5626e-08
3550 9.839e-08
3560 1.1291e-07
3570 1.2938e-07
3580 1.4801e-07
3590 1.6906e-07
3600 1.9276e-07
3610 2.1945e-07
3620 2.4949e-07
3630 2.8323e-07
3640 3.2109e-07
3650 3.6357e-07
3660 4.1104e-07
3670 4.6412e-07
3680 5.2341e-07
3690 5.8952e-07
3700 6.6321e-07
3710 7.4539e-07
3720 8.3697e-07
3730 9.3897e-07
3740 1.0524e-06
3750 1.1784e-06
3760 1.3181e-06
3770 1.4729e-06
3780 1.6444e-06
3790 1.8337e-06
3800 2.0425e-06
3810 2.272e-06
3820 2.5239e-06
3830 2.8004e-06
3840 3.1038e-06
3850 3.4367e-06
3860 3.8021e-06
3870 4.2026e-06
3880 4.642e-06
3890 5.1246e-06
3900 5.6539e-06
3910 6.2366e-06
3920 6.8741e-06
3930 7.5686e-06
3940 8.341e-06
3950 9.1891e-06
3960 1.0115e-05
3970 1.1124e-05
3980 1.2226e-05
3990 1.3425e-05
4000 1.4727e-05
4010 1.614e-05
4020 1.7671e-05
4030 1.9327e-05
4040 2.1116e-05
4050 2.3043e-05
4060 2.5117e-05
4070 2.7344e-05
4080 2.9732e-05
4090 3.2291e-05
4100 3.5023e-05
4110 3.7934e-05
4120 4.103e-05
4130 4.4334e-05
4140 4.7913e-05
4150 5.1717e-05
4160 5.5746e-05
4170 5.9988e-05
4180 6.4463e-05
4190 6.9187e-05
4200 7.4175e-05
4210 7.9439e-05
4220 8.4996e-05
4230 9.087e-05
4240 9.7074e-05
4250 0.00010366
4260 0.00011071
4270 0.00011812
4280 0.00012593
4290 0.00013411
4300 0.00014268
4310 0.00015164
4320 0.00016102
4330 0.00017085
4340 0.00018119
4350 0.00019201
4360 0.00020332
4370 0.00021515
4380 0.0002275
4390 0.00024039
4400 0.00025382
4410 0.00026782
4420 0.00028237
4430 0.00029749
4440 0.0003132
4450 0.00032947
4460 0.00034633
4470 0.00036377
4480 0.0003818
4490 0.00040041
4500 0.00041962
4510 0.00043938
4520 0.00045971
4530 0.00048059
4540 0.00050198
4550 0.00052385
4560 0.0005462
4570 0.00056904
4580 0.00059239
4590 0.00061623
4600 0.00064061
4610 0.00066552
4620 0.00069098
4630 0.00071697
4640 0.00074348
4650 0.0007705
4660 0.00079801
4670 0.000826
4680 0.0008544
4690 0.00088323
4700 0.0009124
4710 0.00094186
4720 0.0009716
4730 0.0010016
4740 0.0010318
4750 0.0010623
4760 0.0010929
4770 0.0011237
4780 0.0011546
4790 0.0011856
4800 0.0012167
4810 0.0012479
4820 0.0012792
4830 0.0013106
4840 0.001342
4850 0.0013735
4860 0.0014049
4870 0.0014364
4880 0.0014678
4890 0.0014991
4900 0.0015303
4910 0.0015612
4920 0.0015917
4930 0.001622
4940 0.0016518
4950 0.0016818
4960 0.0017119
4970 0.0017419
4980 0.0017718
4990 0.0018015
5000 0.001831
5010 0.0018603
5020 0.0018892
5030 0.001918
5040 0.0019464
5050 0.0019746
5060 0.0020026
5070 0.0020302
5080 0.0020576
5090 0.0020845
5100 0.0021111
5110 0.0021372
5120 0.0021629
5130 0.0021878
5140 0.0022121
5150 0.0022358
5160 0.0022589
5170 0.0022814
5180 0.0023034
5190 0.0023248
5200 0.0023455
5210 0.0023656
5220 0.002385
5230 0.0024038
5240 0.0024219
5250 0.0024392
5260 0.0024556
5270 0.0024711
5280 0.0024855
5290 0.0024988
5300 0.0025111
5310 0.0025226
5320 0.0025333
5330 0.0025433
5340 0.0025526
5350 0.0025608
5360 0.0025681
5370 0.0025744
5380 0.0025793
5390 0.0025835
5400 0.0025869
5410 0.0025892
5420 0.0025908
5430 0.0025913
5440 0.0025911
5450 0.00259
5460 0.0025883
5470 0.0025857
5480 0.0025827
5490 0.0025793
5500 0.0025759
5510 0.002572
5520 0.0025685
5530 0.0025658
5540 0.0025626
5550 0.0025599
5560 0.0025571
5570 0.0025543
5580 0.0025511
5590 0.0025478
5600 0.0025442
5610 0.0025403
5620 0.0025367
5630 0.0025327
5640 0.0025286
5650 0.0025247
5660 0.0025215
5670 0.0025184
5680 0.002516
5690 0.0025137
5700 0.0025115
5710 0.002509
5720 0.0025064
5730 0.0025034
5740 0.0024999
5750 0.0024959
5760 0.0024914
5770 0.0024865
5780 0.0024814
5790 0.0024762
5800 0.0024709
5810 0.0024653
5820 0.0024598
5830 0.0024543
5840 0.0024488
5850 0.0024434
5860 0.0024382
5870 0.0024328
5880 0.0024274
5890 0.002422
5900 0.0024168
5910 0.0024118
5920 0.0024067
5930 0.0024017
5940 0.0023965
5950 0.0023913
5960 0.002386
5970 0.0023805
5980 0.0023747
5990 0.0023685
6000 0.0023619
6010 0.0023546
6020 0.0023468
6030 0.0023384
6040 0.0023293
6050 0.0023199
6060 0.0023097
6070 0.0022991
6080 0.0022891
6090 0.0022788
6100 0.0022686
6110 0.0022584
6120 0.0022482
6130 0.0022384
6140 0.0022291
6150 0.0022202
6160 0.0022122
6170 0.0022049
6180 0.0021979
6190 0.0021918
6200 0.0021862
6210 0.0021811
6220 0.002176
6230 0.0021715
6240 0.0021678
6250 0.0021648
6260 0.0021623
6270 0.0021603
6280 0.0021582
6290 0.0021563
6300 0.0021545
6310 0.0021525
6320 0.0021504
6330 0.0021479
6340 0.002145
6350 0.0021418
6360 0.0021381
6370 0.0021342
6380 0.0021301
6390 0.0021257
6400 0.002121
6410 0.0021161
6420 0.0021106
6430 0.002105
6440 0.002099
6450 0.0020928
6460 0.0020864
6470 0.0020799
6480 0.0020737
6490 0.0020676
6500 0.002062
6510 0.0020569
6520 0.0020518
6530 0.0020471
6540 0.0020426
6550 0.0020379
6560 0.0020333
6570 0.0020291
6580 0.0020252
6590 0.0020219
6600 0.0020186
6610 0.0020159
6620 0.0020129
6630 0.0020098
6640 0.0020067
6650 0.0020029
6660 0.0019983
6670 0.0019935
6680 0.0019878
6690 0.0019816
6700 0.0019752
6710 0.0019685
6720 0.0019617
6730 0.0019549
6740 0.0019479
6750 0.0019413
6760 0.0019348
6770 0.0019276
6780 0.0019203
6790 0.0019127
6800 0.0019051
6810 0.0018971
6820 0.0018892
6830 0.0018806
6840 0.0018719
6850 0.0018633
6860 0.0018544
6870 0.001845
6880 0.0018355
6890 0.0018251
6900 0.0018154
6910 0.0018063
6920 0.0017972
6930 0.0017883
6940 0.00178
6950 0.0017717
6960 0.0017637
6970 0.0017558
6980 0.0017489
6990 0.001743
7000 0.0017382
7010 0.0017349
7020 0.0017326
7030 0.0017308
7040 0.0017295
7050 0.0017289
7060 0.001729
7070 0.0017296
7080 0.0017302
7090 0.0017318
7100 0.0017342
7110 0.0017384
7120 0.001744
7130 0.0017503
7140 0.0017587
7150 0.0017685
7160 0.0017788
7170 0.0017905
7180 0.0018026
7190 0.0018152
7200 0.0018282
7210 0.0018402
7220 0.0018524
7230 0.0018654
7240 0.0018776
7250 0.0018893
7260 0.0019008
7270 0.0019113
7280 0.0019209
7290 0.0019302
7300 0.0019394
7310 0.0019475
7320 0.0019548
7330 0.001962
7340 0.001969
7350 0.0019759
7360 0.001983
7370 0.0019901
7380 0.0019974
7390 0.0020047
7400 0.0020126
7410 0.0020212
7420 0.0020306
7430 0.00204
7440 0.0020497
7450 0.0020602
7460 0.0020724
7470 0.0020872
7480 0.0021033
7490 0.0021205
7500 0.0021386
7510 0.0021578
7520 0.0021778
7530 0.0021979
7540 0.0022182
7550 0.0022375
7560 0.0022563
7570 0.0022761
7580 0.0022962
7590 0.002318
7600 0.00234
7610 0.0023631
7620 0.0023863
7630 0.0024099
7640 0.0024336
7650 0.0024568
7660 0.002479
7670 0.0025026
7680 0.0025258
7690 0.0025487
7700 0.0025712
7710 0.0025941
7720 0.0026167
7730 0.0026391
7740 0.0026615
7750 0.0026834
7760 0.0027047
7770 0.0027258
7780 0.0027469
7790 0.0027677
7800 0.0027885
7810 0.0028093
7820 0.0028304
7830 0.0028518
7840 0.0028735
7850 0.0028963
7860 0.0029201
7870 0.0029442
7880 0.0029687
7890 0.0029932
7900 0.0030184
7910 0.0030436
7920 0.0030684
7930 0.0030934
7940 0.003119
7950 0.0031449
7960 0.0031706
7970 0.0031954
7980 0.0032205
7990 0.0032442
8000 0.0032683
8010 0.0032939
8020 0.0033194
8030 0.0033449
8040 0.0033698
8050 0.0033947
8060 0.0034191
8070 0.0034436
8080 0.0034686
8090 0.0034941
8100 0.0035193
8110 0.0035439
8120 0.003568
8130 0.0035919
8140 0.0036156
8150 0.0036389
8160 0.0036621
8170 0.003685
8180 0.003708
8190 0.0037309
8200 0.0037536
8210 0.0037765
8220 0.0037996
8230 0.0038225
8240 0.0038453
8250 0.0038661
8260 0.0038849
8270 0.0039022
8280 0.003918
8290 0.0039326
8300 0.0039461
8310 0.0039588
8320 0.0039707
8330 0.0039816
8340 0.0039916
8350 0.0040005
8360 0.0040085
8370 0.0040151
8380 0.0040207
8390 0.0040254
8400 0.0040293
8410 0.0040324
8420 0.0040347
8430 0.0040366
8440 0.0040378
8450 0.004038
8460 0.0040375
8470 0.0040358
8480 0.0040331
8490 0.0040293
8500 0.0040247
8510 0.0040192
8520 0.004013
8530 0.0040061
8540 0.0039987
8550 0.0039908
8560 0.0039825
8570 0.003974
8580 0.0039653
8590 0.0039565
8600 0.0039478
8610 0.0039392
8620 0.0039302
8630 0.0039212
8640 0.0039116
8650 0.0039017
8660 0.0038913
8670 0.0038801
8680 0.0038683
8690 0.003856
8700 0.0038432
8710 0.00383
8720 0.0038166
8730 0.0038032
8740 0.0037897
8750 0.003776
8760 0.0037622
8770 0.0037484
8780 0.0037346
8790 0.003721
8800 0.0037074
8810 0.003694
8820 0.0036809
8830 0.0036679
8840 0.0036552
8850 0.0036426
8860 0.0036309
8870 0.00362
8880 0.0036098
8890 0.0036
8900 0.0035904
8910 0.0035812
8920 0.0035715
8930 0.0035621
8940 0.0035525
8950 0.0035424
8960 0.0035319
8970 0.0035212
8980 0.0035098
8990 0.0034978
9000 0.0034853
9010 0.0034724
9020 0.0034589
9030 0.0034451
9040 0.0034311
9050 0.00373955
9060 0.003724023
9070 0.003708495
9080 0.003692968
9090 0.003677441
9100 0.003661913
9110 0.003646386
9120 0.003630859
9130 0.003615332
9140 0.003599804
9150 0.003584277
9160 0.00356875
9170 0.003553222
9180 0.003537695
9190 0.003522168
9200 0.00350664
9210 0.003491113
9220 0.003475586
9230 0.003460058
9240 0.003444531
9250 0.003429004
9260 0.003413476
9270 0.003397949
9280 0.003382422
9290 0.003366895
9300 0.003351367
9310 0.00333584
9320 0.003320313
9330 0.003304785
9340 0.003289258
9350 0.003273731
9360 0.003258203
9370 0.003242676
9380 0.003227149
9390 0.003211621
9400 0.003196094
9410 0.003180567
9420 0.00316504
9430 0.003149512
9440 0.003133985
9450 0.003118458
9460 0.00310293
9470 0.003087403
9480 0.003071876
9490 0.003056348
9500 0.003040821
9510 0.003025294
9520 0.003009766
9530 0.002994239
9540 0.002978712
9550 0.002963185
9560 0.002947657
9570 0.00293213
9580 0.002916603
9590 0.002901075
9600 0.002885548
9610 0.002870021
9620 0.002854493
9630 0.002838966
9640 0.002823439
9650 0.002807911
9660 0.002792384
9670 0.002776857
9680 0.002761329
9690 0.002745802
9700 0.002730275
9710 0.002714748
9720 0.00269922
9730 0.002683693
9740 0.002668166
9750 0.002652638
9760 0.002637111
9770 0.002621584
9780 0.002606056
9790 0.002590529
9800 0.002575002
9810 0.002559474
9820 0.002543947
9830 0.00252842
9840 0.002512893
9850 0.002497365
9860 0.002481838
9870 0.002466311
9880 0.002450783
9890 0.002435256
9900 0.002419729
9910 0.002404201
9920 0.002388674
9930 0.002373147
9940 0.002357619
9950 0.002342092
9960 0.002326565
9970 0.002311038
9980 0.00229551
9990 0.002279983
10000 0.002264456
10010 0.002248928
10020 0.002233401
10030 0.002217874
10040 0.002202346
10050 0.002186819
10060 0.002171292
10070 0.002155764
10080 0.002140237
10090 0.00212471
10100 0.002109182
10110 0.002093655
10120 0.002078128
10130 0.002062601
10140 0.002047073
10150 0.002031546
10160 0.002016019
10170 0.002000491
10180 0.001984964
10190 0.001969437
10200 0.001953909
10210 0.001938382
10220 0.001922855
10230 0.001907327
10240 0.0018918
10250 0.001876273
10260 0.001860746
10270 0.001845218
10280 0.001829691
10290 0.001814164
10300 0.001798636
10310 0.001783109
10320 0.001767582
10330 0.001752054
10340 0.001736527
10350 0.001721
10360 0.001705472
10370 0.001689945
10380 0.001674418
10390 0.001658891
10400 0.001643363
10410 0.001627836
10420 0.001612309
10430 0.001596781
10440 0.001581254
10450 0.001565727
10460 0.001550199
10470 0.001534672
10480 0.001519145
10490 0.001503617
10500 0.00148809
10510 0.001472563
10520 0.001457035
10530 0.001441508
10540 0.001425981
10550 0.001410454
10560 0.001394926
10570 0.001379399
10580 0.001363872
10590 0.001348344
10600 0.001332817
10610 0.00131729
10620 0.001301762
10630 0.001286235
10640 0.001270708
10650 0.00125518
10660 0.001239653
10670 0.001224126
10680 0.001208599
10690 0.001193071
10700 0.001177544
10710 0.001162017
10720 0.001146489
10730 0.001130962
10740 0.001115435
10750 0.001099907
10760 0.00108438
10770 0.001068853
10780 0.001053325
10790 0.001037798
10800 0.001022271
10810 0.001006743
10820 0.0009912162
10830 0.0009756889
10840 0.0009601616
10850 0.0009446343
10860 0.0009291069
10870 0.0009135796
10880 0.0008980523
10890 0.000882525
10900 0.0008669977
10910 0.0008514704
10920 0.0008359431
10930 0.0008204158
10940 0.0008048885
10950 0.0007893612
10960 0.0007738338
10970 0.0007583065
10980 0.0007427792
10990 0.0007272519
11000 0.0007117246
11010 0.0006961973
11020 0.00068067
11030 0.0006651427
11040 0.0006496154
11050 0.0006340881
11060 0.0006185608
11070 0.0006030334
11080 0.0005875061
11090 0.0005719788
11100 0.0005564515
11110 0.0005409242
11120 0.0005253969
11130 0.0005098696
11140 0.0004943423
11150 0.000478815
11160 0.0004632877
11170 0.0004477603
11180 0.000432233
11190 0.0004167057
11200 0.0004011784
11210 0.0003856511
11220 0.0003701238
11230 0.0003545965
11240 0.0003390692
11250 0.0003235419
11260 0.0003080146
11270 0.0002924872
11280 0.0002769599
11290 0.0002614326
11300 0.0002459053
11310 0.000230378
11320 0.0002148507
11330 0.0001993234
11340 0.0001837961
11350 0.0001682688
11360 0.0001527415
11370 0.0001372142
11380 0.0001216868
11390 0.0001061595
11400 9.063222e-05
11410 7.510491e-05
11420 5.95776e-05
11430 4.405029e-05
11440 2.852298e-05
11450 1.299567e-05
11460 0.0
11470 0.0
11480 0.0
11490 0.0
11500 0.0
11510 0.0
11520 0.0
11530 0.0
11540 0.0
11550 0.0
11560 0.0
11570 0.0
11580 0.0
11590 0.0
11600 0.0
11610 0.0
11620 0.0
11630 0.0
11640 0.0
11650 0.0
11660 0.0
11670 0.0
11680 0.0
11690 0.0
11700 0.0
11710 0.0
11720 0.0
11730 0.0
11740 0.0
11750 0.0
11760 0.0
11770 0.0
11780 0.0
11790 0.0
11800 0.0
11810 0.0
11820 0.0
11830 0.0
11840 0.0
11850 0.0
11860 0.0
11870 0.0
11880 0.0
11890 0.0
11900 0.0
11910 0.0
11920 0.0
11930 0.0
11940 0.0
11950 0.0
11960 0.0
11970 0.0
11980 0.0
11990 0.0
