#lamb flux
2530 2.5619e-06
2540 2.75e-06
2550 2.9448e-06
2560 3.146e-06
2570 3.3491e-06
2580 3.555e-06
2590 3.7601e-06
2600 3.969e-06
2610 4.183e-06
2620 4.4033e-06
2630 4.6317e-06
2640 4.8652e-06
2650 5.1041e-06
2660 5.3484e-06
2670 5.602e-06
2680 5.8609e-06
2690 6.1339e-06
2700 6.4205e-06
2710 6.7195e-06
2720 7.0325e-06
2730 7.3552e-06
2740 7.6916e-06
2750 8.0421e-06
2760 8.4045e-06
2770 8.7771e-06
2780 9.1584e-06
2790 9.5443e-06
2800 9.9325e-06
2810 1.0318e-05
2820 1.0711e-05
2830 1.1082e-05
2840 1.143e-05
2850 1.1753e-05
2860 1.2042e-05
2870 1.2305e-05
2880 1.2571e-05
2890 1.282e-05
2900 1.306e-05
2910 1.3281e-05
2920 1.3506e-05
2930 1.372e-05
2940 1.3923e-05
2950 1.4128e-05
2960 1.4336e-05
2970 1.4558e-05
2980 1.4798e-05
2990 1.5059e-05
3000 1.5347e-05
3010 1.5668e-05
3020 1.6016e-05
3030 1.6403e-05
3040 1.6829e-05
3050 1.7289e-05
3060 1.7786e-05
3070 1.8332e-05
3080 1.8914e-05
3090 1.9522e-05
3100 2.0167e-05
3110 2.0841e-05
3120 2.1549e-05
3130 2.2282e-05
3140 2.3049e-05
3150 2.3833e-05
3160 2.4637e-05
3170 2.5444e-05
3180 2.6251e-05
3190 2.7056e-05
3200 2.7858e-05
3210 2.8683e-05
3220 2.963e-05
3230 3.0587e-05
3240 3.1557e-05
3250 3.2552e-05
3260 3.3559e-05
3270 3.4566e-05
3280 3.5572e-05
3290 3.6568e-05
3300 3.7567e-05
3310 3.8567e-05
3320 3.9583e-05
3330 4.0623e-05
3340 4.1811e-05
3350 4.3114e-05
3360 4.4488e-05
3370 4.5927e-05
3380 4.7429e-05
3390 4.8988e-05
3400 5.059e-05
3410 5.2244e-05
3420 5.393e-05
3430 5.5635e-05
3440 5.7436e-05
3450 5.9269e-05
3460 6.1132e-05
3470 6.3028e-05
3480 6.4956e-05
3490 6.6919e-05
3500 6.8911e-05
3510 7.0938e-05
3520 7.3024e-05
3530 7.5146e-05
3540 7.7309e-05
3550 7.9515e-05
3560 8.1772e-05
3570 8.4066e-05
3580 8.6388e-05
3590 8.8736e-05
3600 9.1091e-05
3610 9.3475e-05
3620 9.5899e-05
3630 9.835e-05
3640 0.00010084
3650 0.00010338
3660 0.00010594
3670 0.00010855
3680 0.0001112
3690 0.0001139
3700 0.00011665
3710 0.00011947
3720 0.00012238
3730 0.00012538
3740 0.00012846
3750 0.00013161
3760 0.00013485
3770 0.00013817
3780 0.00014156
3790 0.00014502
3800 0.00014853
3810 0.00015207
3820 0.00015563
3830 0.00015923
3840 0.00016289
3850 0.00016661
3860 0.00017043
3870 0.00017434
3880 0.00017837
3890 0.00018255
3900 0.00018688
3910 0.00019144
3920 0.00019612
3930 0.00020088
3940 0.00020581
3950 0.00021093
3960 0.00021616
3970 0.00022148
3980 0.00022695
3990 0.00023251
4000 0.00023814
4010 0.00024386
4020 0.00024964
4030 0.00025548
4040 0.00026134
4050 0.00026722
4060 0.0002731
4070 0.00027896
4080 0.00028478
4090 0.0002906
4100 0.00029633
4110 0.00030197
4120 0.0003075
4130 0.00031296
4140 0.00031834
4150 0.00032361
4160 0.00032873
4170 0.00033357
4180 0.00033824
4190 0.00034277
4200 0.00034719
4210 0.00035153
4220 0.00035582
4230 0.00036012
4240 0.00036442
4250 0.00036888
4260 0.00037339
4270 0.0003778
4280 0.00038224
4290 0.00038657
4300 0.00039083
4310 0.000395
4320 0.00039916
4330 0.00040332
4340 0.00040751
4350 0.00041174
4360 0.000416
4370 0.00042029
4380 0.00042462
4390 0.00042899
4400 0.00043338
4410 0.00043781
4420 0.00044224
4430 0.00044669
4440 0.00045116
4450 0.0004556
4460 0.00046004
4470 0.00046447
4480 0.00046889
4490 0.00047327
4500 0.00047764
4510 0.00048195
4520 0.00048622
4530 0.00049042
4540 0.00049453
4550 0.00049853
4560 0.00050242
4570 0.00050623
4580 0.00050998
4590 0.00051367
4600 0.00051735
4610 0.00052101
4620 0.00052468
4630 0.00052835
4640 0.000532
4650 0.00053566
4660 0.00053929
4670 0.00054292
4680 0.00054651
4690 0.00055006
4700 0.00055354
4710 0.00055694
4720 0.00056027
4730 0.00056351
4740 0.00056669
4750 0.00056977
4760 0.0005728
4770 0.00057575
4780 0.00057861
4790 0.00058138
4800 0.0005841
4810 0.00058677
4820 0.0005894
4830 0.00059198
4840 0.00059452
4850 0.00059703
4860 0.00059949
4870 0.00060192
4880 0.00060431
4890 0.00060664
4900 0.00060889
4910 0.00061105
4920 0.00061309
4930 0.00061503
4940 0.00061687
4950 0.00061879
4960 0.00062078
4970 0.00062279
4980 0.00062481
4990 0.00062681
5000 0.0006288
5010 0.00063076
5020 0.00063269
5030 0.0006346
5040 0.00063651
5050 0.0006384
5060 0.00064027
5070 0.00064214
5080 0.000644
5090 0.00064581
5100 0.00064757
5110 0.0006493
5120 0.00065099
5130 0.00065255
5140 0.00065401
5150 0.00065538
5160 0.00065667
5170 0.0006579
5180 0.00065909
5190 0.0006602
5200 0.00066123
5210 0.00066217
5220 0.00066302
5230 0.0006638
5240 0.0006645
5250 0.00066509
5260 0.00066553
5270 0.00066581
5280 0.00066591
5290 0.00066583
5300 0.00066559
5310 0.00066521
5320 0.00066475
5330 0.00066419
5340 0.00066354
5350 0.00066273
5360 0.00066173
5370 0.0006606
5380 0.00065921
5390 0.00065772
5400 0.0006561
5410 0.00065432
5420 0.00065241
5430 0.00065034
5440 0.00064814
5450 0.00064583
5460 0.0006434
5470 0.00064084
5480 0.00063826
5490 0.00063565
5500 0.00063308
5510 0.00063047
5520 0.00062799
5530 0.00062576
5540 0.00062346
5550 0.00062134
5560 0.00061924
5570 0.00061716
5580 0.00061504
5590 0.00061291
5600 0.00061076
5610 0.00060857
5620 0.00060647
5630 0.00060433
5640 0.00060218
5650 0.0006001
5660 0.0005982
5670 0.00059636
5680 0.0005947
5690 0.00059309
5700 0.0005915
5710 0.0005899
5720 0.00058826
5730 0.00058657
5740 0.00058476
5750 0.00058285
5760 0.00058085
5770 0.00057877
5780 0.00057668
5790 0.00057457
5800 0.00057245
5810 0.00057029
5820 0.00056817
5830 0.00056608
5840 0.000564
5850 0.00056197
5860 0.00055999
5870 0.00055803
5880 0.00055606
5890 0.00055414
5900 0.00055229
5910 0.00055051
5920 0.00054876
5930 0.00054705
5940 0.00054534
5950 0.00054365
5960 0.00054198
5970 0.00054031
5980 0.00053863
5990 0.00053689
6000 0.00053508
6010 0.00053319
6020 0.00053122
6030 0.00052916
6040 0.00052702
6050 0.00052484
6060 0.00052254
6070 0.00052022
6080 0.00051806
6090 0.00051593
6100 0.00051385
6110 0.00051184
6120 0.00050991
6130 0.00050813
6140 0.00050651
6150 0.00050506
6160 0.00050388
6170 0.00050293
6180 0.00050214
6190 0.00050159
6200 0.00050125
6210 0.00050111
6220 0.00050106
6230 0.00050119
6240 0.0005016
6250 0.00050227
6260 0.00050312
6270 0.00050414
6280 0.00050524
6290 0.00050646
6300 0.00050777
6310 0.00050909
6320 0.00051048
6330 0.00051184
6340 0.00051318
6350 0.0005145
6360 0.00051577
6370 0.00051704
6380 0.00051832
6390 0.0005196
6400 0.00052086
6410 0.0005221
6420 0.00052326
6430 0.00052443
6440 0.00052556
6450 0.00052667
6460 0.00052776
6470 0.00052887
6480 0.00053005
6490 0.00053133
6500 0.00053275
6510 0.00053433
6520 0.00053594
6530 0.00053766
6540 0.00053948
6550 0.00054124
6560 0.00054306
6570 0.00054499
6580 0.00054704
6590 0.00054922
6600 0.00055144
6610 0.00055382
6620 0.00055613
6630 0.00055843
6640 0.00056072
6650 0.00056281
6660 0.00056465
6670 0.00056643
6680 0.00056794
6690 0.00056927
6700 0.00057051
6710 0.00057165
6720 0.0005727
6730 0.00057373
6740 0.00057465
6750 0.00057563
6760 0.00057662
6770 0.00057733
6780 0.00057797
6790 0.00057845
6800 0.00057889
6810 0.00057913
6820 0.00057931
6830 0.00057924
6840 0.00057906
6850 0.00057883
6860 0.00057846
6870 0.00057784
6880 0.00057709
6890 0.000576
6900 0.00057507
6910 0.00057421
6920 0.0005733
6930 0.00057237
6940 0.00057156
6950 0.00057067
6960 0.00056979
6970 0.00056886
6980 0.00056815
6990 0.00056772
7000 0.00056756
7010 0.0005678
7020 0.0005683
7030 0.00056888
7040 0.00056958
7050 0.00057041
7060 0.00057141
7070 0.0005725
7080 0.00057351
7090 0.00057481
7100 0.0005763
7110 0.0005783
7120 0.00058071
7130 0.00058331
7140 0.00058655
7150 0.00059015
7160 0.00059391
7170 0.00059803
7180 0.00060227
7190 0.00060659
7200 0.00061098
7210 0.000615
7220 0.00061902
7230 0.00062324
7240 0.00062713
7250 0.00063084
7260 0.00063437
7270 0.00063757
7280 0.00064039
7290 0.00064305
7300 0.00064562
7310 0.00064781
7320 0.00064966
7330 0.00065146
7340 0.00065313
7350 0.00065474
7360 0.00065636
7370 0.00065796
7380 0.00065956
7390 0.00066116
7400 0.00066292
7410 0.00066488
7420 0.00066705
7430 0.00066921
7440 0.00067146
7450 0.00067393
7460 0.0006769
7470 0.00068073
7480 0.00068495
7490 0.0006895
7500 0.00069431
7510 0.00069946
7520 0.00070483
7530 0.00071023
7540 0.00071565
7550 0.00072074
7560 0.00072564
7570 0.00073084
7580 0.00073614
7590 0.00074195
7600 0.0007478
7610 0.000754
7620 0.00076021
7630 0.00076654
7640 0.00077289
7650 0.00077907
7660 0.00078492
7670 0.00079124
7680 0.00079739
7690 0.00080348
7700 0.00080942
7710 0.00081549
7720 0.00082148
7730 0.00082739
7740 0.00083332
7750 0.00083912
7760 0.00084473
7770 0.0008503
7780 0.0008559
7790 0.00086141
7800 0.00086692
7810 0.00087247
7820 0.00087814
7830 0.00088393
7840 0.00088984
7850 0.00089612
7860 0.00090274
7870 0.00090947
7880 0.00091637
7890 0.00092333
7900 0.00093053
7910 0.00093774
7920 0.0009449
7930 0.00095216
7940 0.00095966
7950 0.00096729
7960 0.00097491
7970 0.00098231
7980 0.00098987
7990 0.00099706
8000 0.0010044
8010 0.0010123
8020 0.0010203
8030 0.0010283
8040 0.0010362
8050 0.0010442
8060 0.0010521
8070 0.0010601
8080 0.0010684
8090 0.0010769
8100 0.0010855
8110 0.0010939
8120 0.0011024
8130 0.0011108
8140 0.0011194
8150 0.0011279
8160 0.0011366
8170 0.0011453
8180 0.0011541
8190 0.0011631
8200 0.0011722
8210 0.0011815
8220 0.0011911
8230 0.0012009
8240 0.0012108
8250 0.0012204
8260 0.0012296
8270 0.0012386
8280 0.0012473
8290 0.0012558
8300 0.0012642
8310 0.0012726
8320 0.0012808
8330 0.0012889
8340 0.0012969
8350 0.0013047
8360 0.0013123
8370 0.0013197
8380 0.0013269
8390 0.0013339
8400 0.0013409
8410 0.0013476
8420 0.0013543
8430 0.001361
8440 0.0013675
8450 0.0013739
8460 0.0013801
8470 0.001386
8480 0.0013918
8490 0.0013972
8500 0.0014024
8510 0.0014075
8520 0.0014124
8530 0.0014172
8540 0.0014219
8550 0.0014265
8560 0.001431
8570 0.0014356
8580 0.0014401
8590 0.0014448
8600 0.0014495
8610 0.0014544
8620 0.0014592
8630 0.0014641
8640 0.0014688
8650 0.0014735
8660 0.0014781
8670 0.0014825
8680 0.0014866
8690 0.0014907
8700 0.0014946
8710 0.0014985
8720 0.0015023
8730 0.0015062
8740 0.0015101
8750 0.001514
8760 0.0015179
8770 0.0015218
8780 0.0015258
8790 0.00153
8800 0.0015341
8810 0.0015384
8820 0.0015429
8830 0.0015476
8840 0.0015524
8850 0.0015572
8860 0.0015625
8870 0.0015683
8880 0.0015744
8890 0.0015807
8900 0.0015872
8910 0.001594
8920 0.0016006
8930 0.0016074
8940 0.0016143
8950 0.0016209
8960 0.0016274
8970 0.001634
8980 0.0016402
8990 0.0016462
9000 0.0016521
9010 0.0016578
9020 0.0016634
9030 0.0016687
9040 0.0016741
9050 0.0013622
9060 0.001355232
9070 0.001348263
9080 0.001341295
9090 0.001334326
9100 0.001327358
9110 0.00132039
9120 0.001313421
9130 0.001306453
9140 0.001299484
9150 0.001292516
9160 0.001285548
9170 0.001278579
9180 0.001271611
9190 0.001264642
9200 0.001257674
9210 0.001250705
9220 0.001243737
9230 0.001236769
9240 0.0012298
9250 0.001222832
9260 0.001215863
9270 0.001208895
9280 0.001201927
9290 0.001194958
9300 0.00118799
9310 0.001181021
9320 0.001174053
9330 0.001167085
9340 0.001160116
9350 0.001153148
9360 0.001146179
9370 0.001139211
9380 0.001132243
9390 0.001125274
9400 0.001118306
9410 0.001111337
9420 0.001104369
9430 0.001097401
9440 0.001090432
9450 0.001083464
9460 0.001076495
9470 0.001069527
9480 0.001062558
9490 0.00105559
9500 0.001048622
9510 0.001041653
9520 0.001034685
9530 0.001027716
9540 0.001020748
9550 0.00101378
9560 0.001006811
9570 0.0009998428
9580 0.0009928744
9590 0.000985906
9600 0.0009789376
9610 0.0009719692
9620 0.0009650008
9630 0.0009580323
9640 0.0009510639
9650 0.0009440955
9660 0.0009371271
9670 0.0009301587
9680 0.0009231903
9690 0.0009162219
9700 0.0009092535
9710 0.0009022851
9720 0.0008953167
9730 0.0008883483
9740 0.0008813799
9750 0.0008744114
9760 0.000867443
9770 0.0008604746
9780 0.0008535062
9790 0.0008465378
9800 0.0008395694
9810 0.000832601
9820 0.0008256326
9830 0.0008186642
9840 0.0008116958
9850 0.0008047274
9860 0.000797759
9870 0.0007907906
9880 0.0007838221
9890 0.0007768537
9900 0.0007698853
9910 0.0007629169
9920 0.0007559485
9930 0.0007489801
9940 0.0007420117
9950 0.0007350433
9960 0.0007280749
9970 0.0007211065
9980 0.0007141381
9990 0.0007071697
10000 0.0007002013
10010 0.0006932328
10020 0.0006862644
10030 0.000679296
10040 0.0006723276
10050 0.0006653592
10060 0.0006583908
10070 0.0006514224
10080 0.000644454
10090 0.0006374856
10100 0.0006305172
10110 0.0006235488
10120 0.0006165804
10130 0.000609612
10140 0.0006026435
10150 0.0005956751
10160 0.0005887067
10170 0.0005817383
10180 0.0005747699
10190 0.0005678015
10200 0.0005608331
10210 0.0005538647
10220 0.0005468963
10230 0.0005399279
10240 0.0005329595
10250 0.0005259911
10260 0.0005190226
10270 0.0005120542
10280 0.0005050858
10290 0.0004981174
10300 0.000491149
10310 0.0004841806
10320 0.0004772122
10330 0.0004702438
10340 0.0004632754
10350 0.000456307
10360 0.0004493386
10370 0.0004423702
10380 0.0004354018
10390 0.0004284333
10400 0.0004214649
10410 0.0004144965
10420 0.0004075281
10430 0.0004005597
10440 0.0003935913
10450 0.0003866229
10460 0.0003796545
10470 0.0003726861
10480 0.0003657177
10490 0.0003587493
10500 0.0003517809
10510 0.0003448125
10520 0.000337844
10530 0.0003308756
10540 0.0003239072
10550 0.0003169388
10560 0.0003099704
10570 0.000303002
10580 0.0002960336
10590 0.0002890652
10600 0.0002820968
10610 0.0002751284
10620 0.00026816
10630 0.0002611916
10640 0.0002542232
10650 0.0002472547
10660 0.0002402863
10670 0.0002333179
10680 0.0002263495
10690 0.0002193811
10700 0.0002124127
10710 0.0002054443
10720 0.0001984759
10730 0.0001915075
10740 0.0001845391
10750 0.0001775707
10760 0.0001706023
10770 0.0001636338
10780 0.0001566654
10790 0.000149697
10800 0.0001427286
10810 0.0001357602
10820 0.0001287918
10830 0.0001218234
10840 0.000114855
10850 0.0001078866
10860 0.0001009182
10870 9.394977e-05
10880 8.698136e-05
10890 8.001295e-05
10900 7.304455e-05
10910 6.607614e-05
10920 5.910773e-05
10930 5.213932e-05
10940 4.517091e-05
10950 3.820251e-05
10960 3.12341e-05
10970 2.426569e-05
10980 1.729728e-05
10990 1.032888e-05
11000 3.360467e-06
11010 0.0
11020 0.0
11030 0.0
11040 0.0
11050 0.0
11060 0.0
11070 0.0
11080 0.0
11090 0.0
11100 0.0
11110 0.0
11120 0.0
11130 0.0
11140 0.0
11150 0.0
11160 0.0
11170 0.0
11180 0.0
11190 0.0
11200 0.0
11210 0.0
11220 0.0
11230 0.0
11240 0.0
11250 0.0
11260 0.0
11270 0.0
11280 0.0
11290 0.0
11300 0.0
11310 0.0
11320 0.0
11330 0.0
11340 0.0
11350 0.0
11360 0.0
11370 0.0
11380 0.0
11390 0.0
11400 0.0
11410 0.0
11420 0.0
11430 0.0
11440 0.0
11450 0.0
11460 0.0
11470 0.0
11480 0.0
11490 0.0
11500 0.0
11510 0.0
11520 0.0
11530 0.0
11540 0.0
11550 0.0
11560 0.0
11570 0.0
11580 0.0
11590 0.0
11600 0.0
11610 0.0
11620 0.0
11630 0.0
11640 0.0
11650 0.0
11660 0.0
11670 0.0
11680 0.0
11690 0.0
11700 0.0
11710 0.0
11720 0.0
11730 0.0
11740 0.0
11750 0.0
11760 0.0
11770 0.0
11780 0.0
11790 0.0
11800 0.0
11810 0.0
11820 0.0
11830 0.0
11840 0.0
11850 0.0
11860 0.0
11870 0.0
11880 0.0
11890 0.0
11900 0.0
11910 0.0
11920 0.0
11930 0.0
11940 0.0
11950 0.0
11960 0.0
11970 0.0
11980 0.0
11990 0.0
