#lamb flux
2530 0.0005597
2540 0.00058947
2550 0.00062071
2560 0.00065515
2570 0.00068517
2580 0.00071822
2590 0.00074863
2600 0.0007814
2610 0.00083071
2620 0.00087472
2630 0.00091591
2640 0.0009583
2650 0.0010078
2660 0.0010532
2670 0.0011097
2680 0.0011541
2690 0.0012144
2700 0.0012682
2710 0.0013237
2720 0.0013835
2730 0.0014343
2740 0.0014933
2750 0.0015483
2760 0.0016056
2770 0.0016624
2780 0.001724
2790 0.0017786
2800 0.0018069
2810 0.0018791
2820 0.0019548
2830 0.002021
2840 0.0020851
2850 0.0021419
2860 0.0022042
2870 0.0022848
2880 0.0023648
2890 0.0024591
2900 0.002548
2910 0.0026339
2920 0.0027207
2930 0.0027886
2940 0.0028596
2950 0.0029334
2960 0.0030188
2970 0.003095
2980 0.0031812
2990 0.003255
3000 0.0033627
3010 0.0034531
3020 0.0035595
3030 0.0036592
3040 0.0037591
3050 0.0038666
3060 0.0039842
3070 0.0040914
3080 0.0042151
3090 0.004329
3100 0.004442
3110 0.0045843
3120 0.0047243
3130 0.0048699
3140 0.0049993
3150 0.0051504
3160 0.0053042
3170 0.0054505
3180 0.0056034
3190 0.0057285
3200 0.0058782
3210 0.0060295
3220 0.0061799
3230 0.0063228
3240 0.0066791
3250 0.0068496
3260 0.0070301
3270 0.007165
3280 0.0073547
3290 0.0075514
3300 0.0077149
3310 0.0079215
3320 0.0079506
3330 0.0083326
3340 0.0085415
3350 0.008723
3360 0.0090129
3370 0.009265
3380 0.0094015
3390 0.0098281
3400 0.010035
3410 0.010384
3420 0.01074
3430 0.010842
3440 0.011159
3450 0.010942
3460 0.011344
3470 0.011548
3480 0.011804
3490 0.012069
3500 0.012283
3510 0.01246
3520 0.012652
3530 0.01289
3540 0.013049
3550 0.013136
3560 0.013349
3570 0.013697
3580 0.013849
3590 0.014014
3600 0.014132
3610 0.014301
3620 0.014371
3630 0.014395
3640 0.014413
3650 0.014453
3660 0.014469
3670 0.014545
3680 0.014585
3690 0.014622
3700 0.014642
3710 0.01466
3720 0.014658
3730 0.014642
3740 0.014621
3750 0.014566
3760 0.014572
3770 0.014546
3780 0.01448
3790 0.014399
3800 0.014415
3810 0.014384
3820 0.01444
3830 0.014453
3840 0.014578
3850 0.014514
3860 0.014519
3870 0.014618
3880 0.014628
3890 0.014574
3900 0.01449
3910 0.014525
3920 0.014514
3930 0.014381
3940 0.014283
3950 0.014358
3960 0.0143
3970 0.01413
3980 0.014101
3990 0.013983
4000 0.013968
4010 0.013781
4020 0.013722
4030 0.013701
4040 0.01363
4050 0.013572
4060 0.013521
4070 0.01349
4080 0.013425
4090 0.013348
4100 0.013334
4110 0.013328
4120 0.013224
4130 0.013173
4140 0.013027
4150 0.013072
4160 0.012965
4170 0.012931
4180 0.012915
4190 0.012888
4200 0.012735
4210 0.012717
4220 0.012725
4230 0.012634
4240 0.012621
4250 0.012557
4260 0.012505
4270 0.012469
4280 0.012443
4290 0.012359
4300 0.012295
4310 0.012219
4320 0.012192
4330 0.012132
4340 0.012118
4350 0.012029
4360 0.012015
4370 0.012012
4380 0.011965
4390 0.011908
4400 0.011916
4410 0.011887
4420 0.011873
4430 0.011867
4440 0.011857
4450 0.011884
4460 0.01188
4470 0.011865
4480 0.011835
4490 0.011914
4500 0.011887
4510 0.011927
4520 0.011955
4530 0.01191
4540 0.011957
4550 0.011941
4560 0.011977
4570 0.011938
4580 0.011938
4590 0.011939
4600 0.011914
4610 0.011942
4620 0.011945
4630 0.011924
4640 0.011928
4650 0.011905
4660 0.011892
4670 0.011838
4680 0.011823
4690 0.011799
4700 0.011824
4710 0.01178
4720 0.011783
4730 0.011674
4740 0.011654
4750 0.011647
4760 0.011579
4770 0.011533
4780 0.011488
4790 0.011466
4800 0.01135
4810 0.011229
4820 0.011132
4830 0.011069
4840 0.010987
4850 0.010877
4860 0.010806
4870 0.010713
4880 0.010627
4890 0.010557
4900 0.010481
4910 0.010453
4920 0.010328
4930 0.010232
4940 0.010149
4950 0.010086
4960 0.0099812
4970 0.0098809
4980 0.0097903
4990 0.0097009
5000 0.0096044
5010 0.009513
5020 0.0093823
5030 0.0093075
5040 0.0092487
5050 0.0091708
5060 0.0091118
5070 0.0090356
5080 0.0089789
5090 0.0088971
5100 0.0088791
5110 0.0088271
5120 0.0088031
5130 0.0087343
5140 0.0087123
5150 0.0086899
5160 0.0086614
5170 0.0086325
5180 0.0086367
5190 0.0086065
5200 0.0085825
5210 0.0085448
5220 0.0085238
5230 0.0085096
5240 0.0084944
5250 0.0084648
5260 0.0084083
5270 0.00839
5280 0.008357
5290 0.0083082
5300 0.0082663
5310 0.00821
5320 0.0081794
5330 0.0081067
5340 0.0080455
5350 0.007985
5360 0.0079234
5370 0.0078866
5380 0.0078293
5390 0.0078083
5400 0.0077535
5410 0.0077183
5420 0.0077042
5430 0.0076307
5440 0.0076126
5450 0.0075772
5460 0.0075433
5470 0.0075063
5480 0.0074734
5490 0.0074398
5500 0.0073989
5510 0.0073508
5520 0.0073134
5530 0.0073011
5540 0.0072711
5550 0.0072415
5560 0.0072219
5570 0.0071953
5580 0.0071804
5590 0.007153
5600 0.0071294
5610 0.007097
5620 0.0070593
5630 0.0070272
5640 0.006982
5650 0.0069365
5660 0.0068708
5670 0.006852
5680 0.0068367
5690 0.0068414
5700 0.0068365
5710 0.0068224
5720 0.0068243
5730 0.0068341
5740 0.0068277
5750 0.0068305
5760 0.0068522
5770 0.0068559
5780 0.0068583
5790 0.0068751
5800 0.0068943
5810 0.0068707
5820 0.0068624
5830 0.0068505
5840 0.0068258
5850 0.0068318
5860 0.0068219
5870 0.0068198
5880 0.0068072
5890 0.006784
5900 0.0067758
5910 0.0067614
5920 0.0067418
5930 0.0067328
5940 0.0067172
5950 0.0067047
5960 0.0066745
5970 0.0066683
5980 0.0066545
5990 0.0066489
6000 0.0066309
6010 0.0066201
6020 0.0066169
6030 0.0066082
6040 0.0065895
6050 0.0065805
6060 0.0065617
6070 0.0065702
6080 0.0065618
6090 0.0065713
6100 0.0065705
6110 0.0065816
6120 0.00658
6130 0.0065791
6140 0.0065741
6150 0.0065687
6160 0.0065662
6170 0.0065683
6180 0.0065629
6190 0.0065691
6200 0.0065739
6210 0.0065688
6220 0.006537
6230 0.0065264
6240 0.0064916
6250 0.0064665
6260 0.0064311
6270 0.0064053
6280 0.0063674
6290 0.0063272
6300 0.0062899
6310 0.0062659
6320 0.0062176
6330 0.0061783
6340 0.0061253
6350 0.0060855
6360 0.0060322
6370 0.005987
6380 0.0059251
6390 0.0058659
6400 0.0058157
6410 0.0057731
6420 0.0057155
6430 0.0056547
6440 0.005619
6450 0.0055759
6460 0.0055137
6470 0.0054639
6480 0.0054424
6490 0.005425
6500 0.0054001
6510 0.0053727
6520 0.0053452
6530 0.0053144
6540 0.0052871
6550 0.0052518
6560 0.0052182
6570 0.0051818
6580 0.0051518
6590 0.0051167
6600 0.0050827
6610 0.0050416
6620 0.0050176
6630 0.004969
6640 0.0049355
6650 0.0049061
6660 0.0048705
6670 0.0048511
6680 0.0048179
6690 0.004783
6700 0.0047551
6710 0.0047236
6720 0.0046978
6730 0.0046849
6740 0.0046461
6750 0.0046268
6760 0.0045929
6770 0.0045587
6780 0.004526
6790 0.0045075
6800 0.0044902
6810 0.0044635
6820 0.0044357
6830 0.0044141
6840 0.0043907
6850 0.0043817
6860 0.0043594
6870 0.0043772
6880 0.0043664
6890 0.0043437
6900 0.0042958
6910 0.004295
6920 0.0042959
6930 0.0042877
6940 0.0042775
6950 0.0042787
6960 0.0042671
6970 0.0042518
6980 0.0042412
6990 0.0042236
7000 0.0042396
7010 0.0042039
7020 0.0041825
7030 0.004139
7040 0.0041285
7050 0.0041092
7060 0.0040844
7070 0.0040741
7080 0.0040591
7090 0.0040469
7100 0.0040332
7110 0.0040307
7120 0.0040191
7130 0.0039981
7140 0.0039902
7150 0.0039757
7160 0.0039626
7170 0.0039565
7180 0.003949
7190 0.0039394
7200 0.003919
7210 0.0039146
7220 0.0039096
7230 0.0039012
7240 0.0038862
7250 0.0038933
7260 0.0038857
7270 0.0038774
7280 0.003869
7290 0.0038652
7300 0.0038578
7310 0.0038474
7320 0.0038435
7330 0.0038445
7340 0.0038419
7350 0.003839
7360 0.0038389
7370 0.0038389
7380 0.0038413
7390 0.0038416
7400 0.0038434
7410 0.0038436
7420 0.0038461
7430 0.0038545
7440 0.0038614
7450 0.003866
7460 0.0038643
7470 0.0038692
7480 0.0038797
7490 0.0038797
7500 0.003885
7510 0.0038812
7520 0.0038876
7530 0.0038866
7540 0.0038884
7550 0.0038897
7560 0.0038781
7570 0.0038738
7580 0.0038745
7590 0.0038545
7600 0.0038421
7610 0.0038304
7620 0.0038111
7630 0.0037962
7640 0.003774
7650 0.0037494
7660 0.0037238
7670 0.0037008
7680 0.0036739
7690 0.0036436
7700 0.0036142
7710 0.0035856
7720 0.003555
7730 0.0035209
7740 0.0034946
7750 0.003471
7760 0.0034516
7770 0.0034106
7780 0.0033832
7790 0.0033489
7800 0.003321
7810 0.0032964
7820 0.0032652
7830 0.0032327
7840 0.0032078
7850 0.0031823
7860 0.0031558
7870 0.0031316
7880 0.0031003
7890 0.0030819
7900 0.0030637
7910 0.0030361
7920 0.0030146
7930 0.002994
7940 0.0029732
7950 0.0029553
7960 0.0029361
7970 0.0029183
7980 0.002898
7990 0.0028856
8000 0.0028701
8010 0.002856
8020 0.0028382
8030 0.0028253
8040 0.0028136
8050 0.0028009
8060 0.0027889
8070 0.0027761
8080 0.0027559
8090 0.002753
8100 0.0027457
8110 0.0027367
8120 0.0027289
8130 0.0027183
8140 0.0027065
8150 0.0026957
8160 0.0026817
8170 0.0026668
8180 0.0026528
8190 0.002638
8200 0.0026289
8210 0.0026086
8220 0.0025978
8230 0.0025839
8240 0.0025723
8250 0.0025563
8260 0.002527
8270 0.0025217
8280 0.0025236
8290 0.0025255
8300 0.0025219
8310 0.002516
8320 0.002509
8330 0.0024986
8340 0.0024895
8350 0.0024828
8360 0.0024729
8370 0.0024649
8380 0.0024586
8390 0.0024511
8400 0.0024493
8410 0.002446
8420 0.0024383
8430 0.0024279
8440 0.0024164
8450 0.0024067
8460 0.0023967
8470 0.0023848
8480 0.0023725
8490 0.0023598
8500 0.0023471
8510 0.002345
8520 0.0023395
8530 0.0023285
8540 0.0023152
8550 0.0023295
8560 0.0023168
8570 0.002305
8580 0.0022884
8590 0.002283
8600 0.0022709
8610 0.0022516
8620 0.0022311
8630 0.0022045
8640 0.0021866
8650 0.0021747
8660 0.0021582
8670 0.0021223
8680 0.0021059
8690 0.0020805
8700 0.0020705
8710 0.0020528
8720 0.0020335
8730 0.0020107
8740 0.0019929
8750 0.0019615
8760 0.0019418
8770 0.0019235
8780 0.0019008
8790 0.0018749
8800 0.0018491
8810 0.001823
8820 0.0018154
8830 0.0018079
8840 0.0017896
8850 0.0017622
8860 0.0017406
8870 0.0017244
8880 0.0017031
8890 0.0016789
8900 0.0016601
8910 0.0016431
8920 0.0016231
8930 0.0016064
8940 0.0015857
8950 0.0015667
8960 0.0015431
8970 0.0015229
8980 0.0015115
8990 0.0014935
9000 0.0014753
9010 0.0014569
9020 0.0014377
9030 0.0014197
9040 0.0014024
9050 0.0031453
9060 0.003138367
9070 0.003131434
9080 0.003124501
9090 0.003117568
9100 0.003110635
9110 0.003103702
9120 0.003096769
9130 0.003089836
9140 0.003082903
9150 0.00307597
9160 0.003069038
9170 0.003062105
9180 0.003055172
9190 0.003048239
9200 0.003041306
9210 0.003034373
9220 0.00302744
9230 0.003020507
9240 0.003013574
9250 0.003006641
9260 0.002999708
9270 0.002992775
9280 0.002985842
9290 0.002978909
9300 0.002971976
9310 0.002965043
9320 0.00295811
9330 0.002951177
9340 0.002944244
9350 0.002937311
9360 0.002930379
9370 0.002923446
9380 0.002916513
9390 0.00290958
9400 0.002902647
9410 0.002895714
9420 0.002888781
9430 0.002881848
9440 0.002874915
9450 0.002867982
9460 0.002861049
9470 0.002854116
9480 0.002847183
9490 0.00284025
9500 0.002833317
9510 0.002826384
9520 0.002819451
9530 0.002812518
9540 0.002805585
9550 0.002798652
9560 0.002791719
9570 0.002784787
9580 0.002777854
9590 0.002770921
9600 0.002763988
9610 0.002757055
9620 0.002750122
9630 0.002743189
9640 0.002736256
9650 0.002729323
9660 0.00272239
9670 0.002715457
9680 0.002708524
9690 0.002701591
9700 0.002694658
9710 0.002687725
9720 0.002680792
9730 0.002673859
9740 0.002666926
9750 0.002659993
9760 0.00265306
9770 0.002646128
9780 0.002639195
9790 0.002632262
9800 0.002625329
9810 0.002618396
9820 0.002611463
9830 0.00260453
9840 0.002597597
9850 0.002590664
9860 0.002583731
9870 0.002576798
9880 0.002569865
9890 0.002562932
9900 0.002555999
9910 0.002549066
9920 0.002542133
9930 0.0025352
9940 0.002528267
9950 0.002521334
9960 0.002514401
9970 0.002507468
9980 0.002500536
9990 0.002493603
10000 0.00248667
10010 0.002479737
10020 0.002472804
10030 0.002465871
10040 0.002458938
10050 0.002452005
10060 0.002445072
10070 0.002438139
10080 0.002431206
10090 0.002424273
10100 0.00241734
10110 0.002410407
10120 0.002403474
10130 0.002396541
10140 0.002389608
10150 0.002382675
10160 0.002375742
10170 0.002368809
10180 0.002361877
10190 0.002354944
10200 0.002348011
10210 0.002341078
10220 0.002334145
10230 0.002327212
10240 0.002320279
10250 0.002313346
10260 0.002306413
10270 0.00229948
10280 0.002292547
10290 0.002285614
10300 0.002278681
10310 0.002271748
10320 0.002264815
10330 0.002257882
10340 0.002250949
10350 0.002244016
10360 0.002237083
10370 0.00223015
10380 0.002223217
10390 0.002216285
10400 0.002209352
10410 0.002202419
10420 0.002195486
10430 0.002188553
10440 0.00218162
10450 0.002174687
10460 0.002167754
10470 0.002160821
10480 0.002153888
10490 0.002146955
10500 0.002140022
10510 0.002133089
10520 0.002126156
10530 0.002119223
10540 0.00211229
10550 0.002105357
10560 0.002098424
10570 0.002091491
10580 0.002084558
10590 0.002077626
10600 0.002070693
10610 0.00206376
10620 0.002056827
10630 0.002049894
10640 0.002042961
10650 0.002036028
10660 0.002029095
10670 0.002022162
10680 0.002015229
10690 0.002008296
10700 0.002001363
10710 0.00199443
10720 0.001987497
10730 0.001980564
10740 0.001973631
10750 0.001966698
10760 0.001959765
10770 0.001952832
10780 0.001945899
10790 0.001938966
10800 0.001932034
10810 0.001925101
10820 0.001918168
10830 0.001911235
10840 0.001904302
10850 0.001897369
10860 0.001890436
10870 0.001883503
10880 0.00187657
10890 0.001869637
10900 0.001862704
10910 0.001855771
10920 0.001848838
10930 0.001841905
10940 0.001834972
10950 0.001828039
10960 0.001821106
10970 0.001814173
10980 0.00180724
10990 0.001800307
11000 0.001793375
11010 0.001786442
11020 0.001779509
11030 0.001772576
11040 0.001765643
11050 0.00175871
11060 0.001751777
11070 0.001744844
11080 0.001737911
11090 0.001730978
11100 0.001724045
11110 0.001717112
11120 0.001710179
11130 0.001703246
11140 0.001696313
11150 0.00168938
11160 0.001682447
11170 0.001675514
11180 0.001668581
11190 0.001661648
11200 0.001654715
11210 0.001647783
11220 0.00164085
11230 0.001633917
11240 0.001626984
11250 0.001620051
11260 0.001613118
11270 0.001606185
11280 0.001599252
11290 0.001592319
11300 0.001585386
11310 0.001578453
11320 0.00157152
11330 0.001564587
11340 0.001557654
11350 0.001550721
11360 0.001543788
11370 0.001536855
11380 0.001529922
11390 0.001522989
11400 0.001516056
11410 0.001509124
11420 0.001502191
11430 0.001495258
11440 0.001488325
11450 0.001481392
11460 0.001474459
11470 0.001467526
11480 0.001460593
11490 0.00145366
11500 0.001446727
11510 0.001439794
11520 0.001432861
11530 0.001425928
11540 0.001418995
11550 0.001412062
11560 0.001405129
11570 0.001398196
11580 0.001391263
11590 0.00138433
11600 0.001377397
11610 0.001370464
11620 0.001363532
11630 0.001356599
11640 0.001349666
11650 0.001342733
11660 0.0013358
11670 0.001328867
11680 0.001321934
11690 0.001315001
11700 0.001308068
11710 0.001301135
11720 0.001294202
11730 0.001287269
11740 0.001280336
11750 0.001273403
11760 0.00126647
11770 0.001259537
11780 0.001252604
11790 0.001245671
11800 0.001238738
11810 0.001231805
11820 0.001224873
11830 0.00121794
11840 0.001211007
11850 0.001204074
11860 0.001197141
11870 0.001190208
11880 0.001183275
11890 0.001176342
11900 0.001169409
11910 0.001162476
11920 0.001155543
11930 0.001155275
11940 0.001155007
11950 0.001154738
11960 0.00115447
11970 0.001154202
11980 0.001153934
11990 0.001153665
