#lamb flux
2530 0.00029543
2540 0.00031147
2550 0.00032814
2560 0.00034601
2570 0.00036433
2580 0.0003836
2590 0.00040322
2600 0.00042422
2610 0.0004465
2620 0.00046882
2630 0.00049144
2640 0.00051441
2650 0.00053927
2660 0.00056454
2670 0.00059004
2680 0.00061564
2690 0.00064202
2700 0.00066904
2710 0.00069687
2720 0.00072429
2730 0.00075195
2740 0.00078108
2750 0.00081057
2760 0.0008394
2770 0.00086814
2780 0.00089735
2790 0.00092703
2800 0.00095752
2810 0.00098736
2820 0.0010175
2830 0.0010479
2840 0.0010788
2850 0.0011108
2860 0.0011424
2870 0.0011749
2880 0.0012083
2890 0.0012426
2900 0.0012779
2910 0.0013132
2920 0.0013495
2930 0.0013858
2940 0.0014232
2950 0.0014608
2960 0.0014991
2970 0.0015392
2980 0.0015795
2990 0.0016204
3000 0.0016627
3010 0.0017053
3020 0.0017488
3030 0.001792
3040 0.0018364
3050 0.0018821
3060 0.0019286
3070 0.0019748
3080 0.0020225
3090 0.0020694
3100 0.0021168
3110 0.0021648
3120 0.0022119
3130 0.0022599
3140 0.0023076
3150 0.0023556
3160 0.0024039
3170 0.0024517
3180 0.0025005
3190 0.0025488
3200 0.0025974
3210 0.0026459
3220 0.0026942
3230 0.0027426
3240 0.0027899
3250 0.0028373
3260 0.0028832
3270 0.0029288
3280 0.0029742
3290 0.0030189
3300 0.0030631
3310 0.0031065
3320 0.003149
3330 0.0031911
3340 0.0032325
3350 0.0032727
3360 0.0033124
3370 0.0033516
3380 0.0033895
3390 0.0034267
3400 0.0034629
3410 0.0034982
3420 0.0035331
3430 0.0035669
3440 0.0036011
3450 0.0036346
3460 0.0036675
3470 0.0037006
3480 0.0037335
3490 0.0037665
3500 0.0037996
3510 0.0038333
3520 0.0038674
3530 0.0039025
3540 0.0039386
3550 0.0039755
3560 0.0040126
3570 0.0040505
3580 0.0040891
3590 0.0041281
3600 0.0041676
3610 0.004207
3620 0.0042459
3630 0.0042857
3640 0.0043258
3650 0.0043665
3660 0.0044083
3670 0.0044517
3680 0.0044959
3690 0.0045413
3700 0.0045868
3710 0.0046337
3720 0.0046809
3730 0.0047297
3740 0.0047777
3750 0.004827
3760 0.0048758
3770 0.0049246
3780 0.0049732
3790 0.0050212
3800 0.0050692
3810 0.0051166
3820 0.0051641
3830 0.0052109
3840 0.0052568
3850 0.0053024
3860 0.0053478
3870 0.0053918
3880 0.0054353
3890 0.0054776
3900 0.005519
3910 0.0055591
3920 0.0055981
3930 0.0056361
3940 0.0056716
3950 0.0057057
3960 0.0057387
3970 0.0057703
3980 0.0058005
3990 0.0058287
4000 0.0058563
4010 0.0058825
4020 0.0059076
4030 0.0059313
4040 0.0059535
4050 0.0059744
4060 0.0059934
4070 0.006011
4080 0.0060268
4090 0.0060411
4100 0.006054
4110 0.0060651
4120 0.0060747
4130 0.0060829
4140 0.0060898
4150 0.006095
4160 0.0060989
4170 0.0061015
4180 0.0061025
4190 0.0061015
4200 0.0060991
4210 0.0060953
4220 0.0060903
4230 0.0060832
4240 0.006075
4250 0.006066
4260 0.0060559
4270 0.0060442
4280 0.0060302
4290 0.0060152
4300 0.005999
4310 0.0059818
4320 0.0059633
4330 0.0059433
4340 0.0059219
4350 0.0058994
4360 0.0058757
4370 0.0058505
4380 0.0058241
4390 0.0057965
4400 0.0057678
4410 0.0057374
4420 0.0057061
4430 0.0056734
4440 0.0056393
4450 0.0056046
4460 0.0055693
4470 0.0055331
4480 0.0054963
4490 0.0054588
4500 0.0054208
4510 0.0053827
4520 0.0053439
4530 0.0053043
4540 0.0052646
4550 0.0052245
4560 0.0051844
4570 0.0051444
4580 0.0051047
4590 0.005065
4600 0.0050259
4610 0.0049881
4620 0.0049509
4630 0.0049153
4640 0.0048825
4650 0.0048514
4660 0.0048221
4670 0.0047948
4680 0.0047703
4690 0.004749
4700 0.0047303
4710 0.0047141
4720 0.0047005
4730 0.0046885
4740 0.0046779
4750 0.0046669
4760 0.0046554
4770 0.0046394
4780 0.0046187
4790 0.0045982
4800 0.0045779
4810 0.0045571
4820 0.0045394
4830 0.0045241
4840 0.0045101
4850 0.0044976
4860 0.0044884
4870 0.004479
4880 0.0044726
4890 0.0044662
4900 0.0044613
4910 0.0044575
4920 0.0044545
4930 0.0044522
4940 0.0044513
4950 0.0044515
4960 0.0044522
4970 0.0044534
4980 0.0044557
4990 0.0044585
5000 0.0044615
5010 0.0044642
5020 0.0044672
5030 0.0044703
5040 0.0044732
5050 0.0044763
5060 0.0044796
5070 0.0044833
5080 0.004488
5090 0.0044931
5100 0.0044987
5110 0.0045051
5120 0.0045124
5130 0.0045205
5140 0.0045286
5150 0.0045366
5160 0.0045442
5170 0.0045508
5180 0.0045568
5190 0.0045617
5200 0.0045657
5210 0.0045684
5220 0.00457
5230 0.0045704
5240 0.0045692
5250 0.0045669
5260 0.0045625
5270 0.0045556
5280 0.0045473
5290 0.0045371
5300 0.0045255
5310 0.0045127
5320 0.0044984
5330 0.0044831
5340 0.0044669
5350 0.0044506
5360 0.0044336
5370 0.004417
5380 0.004401
5390 0.004385
5400 0.0043695
5410 0.0043547
5420 0.0043403
5430 0.0043265
5440 0.0043133
5450 0.0042978
5460 0.0042837
5470 0.0042686
5480 0.0042537
5490 0.0042402
5500 0.004225
5510 0.0042113
5520 0.0041985
5530 0.0041873
5540 0.004177
5550 0.0041665
5560 0.0041553
5570 0.0041434
5580 0.0041333
5590 0.0041215
5600 0.0041069
5610 0.0040931
5620 0.0040779
5630 0.0040648
5640 0.0040491
5650 0.0040361
5660 0.0040223
5670 0.0040095
5680 0.0039919
5690 0.0039751
5700 0.003958
5710 0.0039411
5720 0.0039243
5730 0.0039061
5740 0.0038866
5750 0.0038663
5760 0.0038487
5770 0.0038288
5780 0.0038085
5790 0.003787
5800 0.0037655
5810 0.0037432
5820 0.0037211
5830 0.0036993
5840 0.0036771
5850 0.0036546
5860 0.0036305
5870 0.0036062
5880 0.0035808
5890 0.0035555
5900 0.0035284
5910 0.0035
5920 0.0034719
5930 0.0034443
5940 0.003416
5950 0.003386
5960 0.0033563
5970 0.0033271
5980 0.0032985
5990 0.0032695
6000 0.0032404
6010 0.0032113
6020 0.0031837
6030 0.003157
6040 0.0031297
6050 0.0031032
6060 0.003079
6070 0.0030565
6080 0.0030351
6090 0.0030151
6100 0.002996
6110 0.0029797
6120 0.0029652
6130 0.0029527
6140 0.0029419
6150 0.0029323
6160 0.0029252
6170 0.0029193
6180 0.0029144
6190 0.00291
6200 0.0029054
6210 0.0029008
6220 0.0028925
6230 0.002883
6240 0.0028729
6250 0.0028639
6260 0.0028557
6270 0.0028476
6280 0.0028412
6290 0.0028361
6300 0.0028316
6310 0.0028286
6320 0.0028264
6330 0.002826
6340 0.0028259
6350 0.0028258
6360 0.002826
6370 0.0028273
6380 0.002828
6390 0.0028299
6400 0.0028318
6410 0.0028334
6420 0.002836
6430 0.0028379
6440 0.00284
6450 0.0028416
6460 0.0028427
6470 0.0028439
6480 0.0028438
6490 0.0028436
6500 0.0028425
6510 0.0028409
6520 0.0028387
6530 0.0028357
6540 0.0028328
6550 0.002829
6560 0.0028257
6570 0.0028218
6580 0.0028171
6590 0.0028122
6600 0.0028068
6610 0.0028011
6620 0.0027953
6630 0.0027889
6640 0.0027821
6650 0.0027754
6660 0.0027684
6670 0.0027608
6680 0.0027536
6690 0.0027462
6700 0.0027389
6710 0.0027319
6720 0.0027245
6730 0.0027176
6740 0.0027099
6750 0.0027024
6760 0.0026952
6770 0.0026876
6780 0.0026801
6790 0.0026726
6800 0.0026652
6810 0.0026575
6820 0.0026498
6830 0.0026417
6840 0.002633
6850 0.0026243
6860 0.0026161
6870 0.0026077
6880 0.0025993
6890 0.0025908
6900 0.0025821
6910 0.0025728
6920 0.0025633
6930 0.0025531
6940 0.0025431
6950 0.002533
6960 0.0025224
6970 0.0025111
6980 0.0024998
6990 0.0024881
7000 0.0024768
7010 0.0024647
7020 0.002453
7030 0.0024399
7040 0.0024279
7050 0.0024148
7060 0.0024021
7070 0.0023893
7080 0.0023765
7090 0.0023638
7100 0.0023507
7110 0.0023377
7120 0.0023238
7130 0.0023099
7140 0.0022959
7150 0.0022813
7160 0.002266
7170 0.0022508
7180 0.0022348
7190 0.0022188
7200 0.0022024
7210 0.0021859
7220 0.002169
7230 0.0021517
7240 0.0021352
7250 0.0021187
7260 0.0021017
7270 0.0020847
7280 0.0020675
7290 0.0020507
7300 0.0020331
7310 0.0020154
7320 0.0019973
7330 0.0019791
7340 0.0019609
7350 0.0019425
7360 0.0019244
7370 0.0019064
7380 0.0018887
7390 0.0018711
7400 0.0018537
7410 0.0018368
7420 0.0018203
7430 0.001804
7440 0.0017881
7450 0.0017729
7460 0.001758
7470 0.0017438
7480 0.0017302
7490 0.001718
7500 0.0017064
7510 0.0016957
7520 0.0016858
7530 0.0016773
7540 0.0016696
7550 0.0016622
7560 0.0016553
7570 0.0016492
7580 0.001644
7590 0.0016385
7600 0.0016317
7610 0.0016229
7620 0.0016138
7630 0.001605
7640 0.0015968
7650 0.0015889
7660 0.0015819
7670 0.0015757
7680 0.0015702
7690 0.0015654
7700 0.0015612
7710 0.0015581
7720 0.0015552
7730 0.001553
7740 0.0015514
7750 0.00155
7760 0.0015488
7770 0.0015479
7780 0.0015472
7790 0.0015469
7800 0.0015466
7810 0.001546
7820 0.0015456
7830 0.0015453
7840 0.0015449
7850 0.0015443
7860 0.0015434
7870 0.0015426
7880 0.0015416
7890 0.0015411
7900 0.0015402
7910 0.0015387
7920 0.0015371
7930 0.0015354
7940 0.0015326
7950 0.0015295
7960 0.0015263
7970 0.0015233
7980 0.00152
7990 0.0015164
8000 0.0015129
8010 0.0015093
8020 0.0015053
8030 0.0015015
8040 0.0014978
8050 0.001494
8060 0.0014898
8070 0.0014855
8080 0.0014809
8090 0.0014762
8100 0.0014711
8110 0.001466
8120 0.0014605
8130 0.0014549
8140 0.001449
8150 0.0014435
8160 0.0014375
8170 0.0014322
8180 0.001426
8190 0.0014198
8200 0.0014136
8210 0.0014074
8220 0.0014012
8230 0.0013951
8240 0.0013885
8250 0.0013817
8260 0.0013752
8270 0.0013688
8280 0.0013619
8290 0.0013549
8300 0.0013479
8310 0.0013412
8320 0.001334
8330 0.0013265
8340 0.001319
8350 0.0013112
8360 0.0013034
8370 0.0012955
8380 0.0012874
8390 0.0012795
8400 0.0012717
8410 0.0012635
8420 0.0012547
8430 0.0012461
8440 0.0012372
8450 0.0012283
8460 0.0012195
8470 0.0012107
8480 0.0012017
8490 0.0011926
8500 0.0011833
8510 0.0011741
8520 0.0011644
8530 0.0011541
8540 0.001144
8550 0.0011334
8560 0.0011231
8570 0.001113
8580 0.0011027
8590 0.0010926
8600 0.0010826
8610 0.0010725
8620 0.0010625
8630 0.0010526
8640 0.0010431
8650 0.0010329
8660 0.0010232
8670 0.0010132
8680 0.0010033
8690 0.00099349
8700 0.00098386
8710 0.0009742
8720 0.00096482
8730 0.00095518
8740 0.0009457
8750 0.00093625
8760 0.00092659
8770 0.00091696
8780 0.00090735
8790 0.00089787
8800 0.00088852
8810 0.00087916
8820 0.00086991
8830 0.00086028
8840 0.00085077
8850 0.00084095
8860 0.00083112
8870 0.00082142
8880 0.00081188
8890 0.00080217
8900 0.0007926
8910 0.0007829
8920 0.00077303
8930 0.00076305
8940 0.00075303
8950 0.00074293
8960 0.00073304
8970 0.00072328
8980 0.00071329
8990 0.00070338
9000 0.00069359
9010 0.00068382
9020 0.00067376
9030 0.00066396
9040 0.00065431
9050 0.00239425
9060 0.002383006
9070 0.002371762
9080 0.002360519
9090 0.002349275
9100 0.002338031
9110 0.002326787
9120 0.002315544
9130 0.0023043
9140 0.002293056
9150 0.002281812
9160 0.002270569
9170 0.002259325
9180 0.002248081
9190 0.002236837
9200 0.002225593
9210 0.00221435
9220 0.002203106
9230 0.002191862
9240 0.002180618
9250 0.002169375
9260 0.002158131
9270 0.002146887
9280 0.002135643
9290 0.0021244
9300 0.002113156
9310 0.002101912
9320 0.002090668
9330 0.002079424
9340 0.002068181
9350 0.002056937
9360 0.002045693
9370 0.002034449
9380 0.002023206
9390 0.002011962
9400 0.002000718
9410 0.001989474
9420 0.001978231
9430 0.001966987
9440 0.001955743
9450 0.001944499
9460 0.001933255
9470 0.001922012
9480 0.001910768
9490 0.001899524
9500 0.00188828
9510 0.001877037
9520 0.001865793
9530 0.001854549
9540 0.001843305
9550 0.001832062
9560 0.001820818
9570 0.001809574
9580 0.00179833
9590 0.001787086
9600 0.001775843
9610 0.001764599
9620 0.001753355
9630 0.001742111
9640 0.001730868
9650 0.001719624
9660 0.00170838
9670 0.001697136
9680 0.001685892
9690 0.001674649
9700 0.001663405
9710 0.001652161
9720 0.001640917
9730 0.001629674
9740 0.00161843
9750 0.001607186
9760 0.001595942
9770 0.001584699
9780 0.001573455
9790 0.001562211
9800 0.001550967
9810 0.001539723
9820 0.00152848
9830 0.001517236
9840 0.001505992
9850 0.001494748
9860 0.001483505
9870 0.001472261
9880 0.001461017
9890 0.001449773
9900 0.00143853
9910 0.001427286
9920 0.001416042
9930 0.001404798
9940 0.001393554
9950 0.001382311
9960 0.001371067
9970 0.001359823
9980 0.001348579
9990 0.001337336
10000 0.001326092
10010 0.001314848
10020 0.001303604
10030 0.001292361
10040 0.001281117
10050 0.001269873
10060 0.001258629
10070 0.001247385
10080 0.001236142
10090 0.001224898
10100 0.001213654
10110 0.00120241
10120 0.001191167
10130 0.001179923
10140 0.001168679
10150 0.001157435
10160 0.001146192
10170 0.001134948
10180 0.001123704
10190 0.00111246
10200 0.001101216
10210 0.001089973
10220 0.001078729
10230 0.001067485
10240 0.001056241
10250 0.001044998
10260 0.001033754
10270 0.00102251
10280 0.001011266
10290 0.001000023
10300 0.0009887788
10310 0.000977535
10320 0.0009662912
10330 0.0009550474
10340 0.0009438037
10350 0.0009325599
10360 0.0009213161
10370 0.0009100724
10380 0.0008988286
10390 0.0008875848
10400 0.0008763411
10410 0.0008650973
10420 0.0008538535
10430 0.0008426097
10440 0.000831366
10450 0.0008201222
10460 0.0008088784
10470 0.0007976347
10480 0.0007863909
10490 0.0007751471
10500 0.0007639034
10510 0.0007526596
10520 0.0007414158
10530 0.0007301721
10540 0.0007189283
10550 0.0007076845
10560 0.0006964407
10570 0.000685197
10580 0.0006739532
10590 0.0006627094
10600 0.0006514657
10610 0.0006402219
10620 0.0006289781
10630 0.0006177344
10640 0.0006064906
10650 0.0005952468
10660 0.000584003
10670 0.0005727593
10680 0.0005615155
10690 0.0005502717
10700 0.000539028
10710 0.0005277842
10720 0.0005165404
10730 0.0005052967
10740 0.0004940529
10750 0.0004828091
10760 0.0004715653
10770 0.0004603216
10780 0.0004490778
10790 0.000437834
10800 0.0004265903
10810 0.0004153465
10820 0.0004041027
10830 0.000392859
10840 0.0003816152
10850 0.0003703714
10860 0.0003591276
10870 0.0003478839
10880 0.0003366401
10890 0.0003253963
10900 0.0003141526
10910 0.0003029088
10920 0.000291665
10930 0.0002804213
10940 0.0002691775
10950 0.0002579337
10960 0.0002466899
10970 0.0002354462
10980 0.0002242024
10990 0.0002129586
11000 0.0002017149
11010 0.0001904711
11020 0.0001792273
11030 0.0001679836
11040 0.0001567398
11050 0.000145496
11060 0.0001342522
11070 0.0001230085
11080 0.0001117647
11090 0.0001005209
11100 8.927716e-05
11110 7.803339e-05
11120 6.678962e-05
11130 5.554585e-05
11140 4.430209e-05
11150 3.305832e-05
11160 2.181455e-05
11170 1.057078e-05
11180 0.0
11190 0.0
11200 0.0
11210 0.0
11220 0.0
11230 0.0
11240 0.0
11250 0.0
11260 0.0
11270 0.0
11280 0.0
11290 0.0
11300 0.0
11310 0.0
11320 0.0
11330 0.0
11340 0.0
11350 0.0
11360 0.0
11370 0.0
11380 0.0
11390 0.0
11400 0.0
11410 0.0
11420 0.0
11430 0.0
11440 0.0
11450 0.0
11460 0.0
11470 0.0
11480 0.0
11490 0.0
11500 0.0
11510 0.0
11520 0.0
11530 0.0
11540 0.0
11550 0.0
11560 0.0
11570 0.0
11580 0.0
11590 0.0
11600 0.0
11610 0.0
11620 0.0
11630 0.0
11640 0.0
11650 0.0
11660 0.0
11670 0.0
11680 0.0
11690 0.0
11700 0.0
11710 0.0
11720 0.0
11730 0.0
11740 0.0
11750 0.0
11760 0.0
11770 0.0
11780 0.0
11790 0.0
11800 0.0
11810 0.0
11820 0.0
11830 0.0
11840 0.0
11850 0.0
11860 0.0
11870 0.0
11880 0.0
11890 0.0
11900 0.0
11910 0.0
11920 0.0
11930 0.0
11940 0.0
11950 0.0
11960 0.0
11970 0.0
11980 0.0
11990 0.0
