#lamb flux
2320 1.5843e-05
2330 1.6109e-05
2340 1.6419e-05
2350 1.669e-05
2360 1.696e-05
2370 1.7166e-05
2380 1.7375e-05
2390 1.7492e-05
2400 1.7631e-05
2410 1.7742e-05
2420 1.7773e-05
2430 1.7858e-05
2440 1.8087e-05
2450 1.8327e-05
2460 1.8543e-05
2470 1.8774e-05
2480 1.9058e-05
2490 1.9415e-05
2500 1.9729e-05
2510 2.0067e-05
2520 2.057e-05
2530 2.0751e-05
2540 2.0525e-05
2550 2.0716e-05
2560 2.1049e-05
2570 2.1435e-05
2580 2.1792e-05
2590 2.2377e-05
2600 2.2935e-05
2610 2.3743e-05
2620 2.4553e-05
2630 2.5678e-05
2640 2.6818e-05
2650 2.8043e-05
2660 2.9451e-05
2670 3.0904e-05
2680 3.2453e-05
2690 3.3981e-05
2700 3.5514e-05
2710 3.7236e-05
2720 3.9259e-05
2730 4.1521e-05
2740 4.3323e-05
2750 4.5008e-05
2760 4.708e-05
2770 4.9521e-05
2780 5.2188e-05
2790 5.4719e-05
2800 5.7203e-05
2810 5.9852e-05
2820 6.2989e-05
2830 6.6667e-05
2840 7.0848e-05
2850 7.5515e-05
2860 8.0454e-05
2870 8.5403e-05
2880 9.013e-05
2890 9.4641e-05
2900 9.9168e-05
2910 0.00010356
2920 0.00010764
2930 0.0001114
2940 0.00011581
2950 0.00012113
2960 0.00012577
2970 0.00013003
2980 0.00013405
2990 0.00013806
3000 0.00014246
3010 0.00014684
3020 0.0001506
3030 0.00015377
3040 0.00015568
3050 0.00015682
3060 0.00015803
3070 0.00015957
3080 0.00016212
3090 0.00016524
3100 0.00016941
3110 0.00017428
3120 0.0001801
3130 0.00018648
3140 0.00019296
3150 0.00019902
3160 0.00020538
3170 0.00021128
3180 0.00021674
3190 0.00022288
3200 0.00022898
3210 0.00023535
3220 0.00024258
3230 0.00024972
3240 0.00025685
3250 0.0002653
3260 0.00027214
3270 0.00027898
3280 0.00028528
3290 0.00029224
3300 0.00029899
3310 0.00030909
3320 0.00032576
3330 0.00034559
3340 0.00037044
3350 0.00039814
3360 0.00042886
3370 0.00046256
3380 0.00050045
3390 0.00053884
3400 0.00057665
3410 0.00061711
3420 0.00065786
3430 0.00070168
3440 0.00074932
3450 0.00079819
3460 0.00086165
3470 0.00087638
3480 0.00088599
3490 0.00090427
3500 0.00092783
3510 0.00095662
3520 0.0010017
3530 0.0010311
3540 0.0010631
3550 0.0010881
3560 0.0011387
3570 0.0011996
3580 0.0013366
3590 0.0013021
3600 0.0013148
3610 0.0014396
3620 0.0016003
3630 0.0018095
3640 0.0016474
3650 0.0015569
3660 0.0019336
3670 0.0015535
3680 0.001564
3690 0.0017605
3700 0.0015412
3710 0.0022325
3720 0.0024097
3730 0.0026661
3740 0.0014783
3750 0.0012993
3760 0.00138
3770 0.0017172
3780 0.0015551
3790 0.0015371
3800 0.0016544
3810 0.0017847
3820 0.0028673
3830 0.0021499
3840 0.0019497
3850 0.0022777
3860 0.0026367
3870 0.0029201
3880 0.0032723
3890 0.0035309
3900 0.003447
3910 0.0035153
3920 0.0040975
3930 0.0044587
3940 0.0038026
3950 0.0039457
3960 0.0046897
3970 0.0049739
3980 0.0051928
3990 0.0047978
4000 0.0051179
4010 0.0052829
4020 0.0052699
4030 0.0056206
4040 0.0054382
4050 0.0052915
4060 0.0060232
4070 0.0057762
4080 0.0056322
4090 0.0055008
4100 0.0053036
4110 0.0051505
4120 0.0051092
4130 0.0056385
4140 0.0054421
4150 0.0050841
4160 0.0050651
4170 0.0050622
4180 0.0050532
4190 0.0050906
4200 0.0052117
4210 0.0052317
4220 0.0053235
4230 0.0053586
4240 0.0052469
4250 0.0052681
4260 0.0051925
4270 0.0053
4280 0.0056985
4290 0.0058368
4300 0.005382
4310 0.0058518
4320 0.005856
4330 0.0056851
4340 0.0053062
4350 0.00493
4360 0.0051288
4370 0.0049524
4380 0.0051452
4390 0.0048044
4400 0.0054182
4410 0.0052569
4420 0.0053554
4430 0.0057551
4440 0.0059736
4450 0.0061726
4460 0.0061544
4470 0.0065259
4480 0.0068689
4490 0.0073887
4500 0.0079736
4510 0.0083091
4520 0.0084724
4530 0.0090027
4540 0.0093673
4550 0.0093442
4560 0.0098664
4570 0.010632
4580 0.011131
4590 0.010595
4600 0.011189
4610 0.011401
4620 0.010534
4630 0.010767
4640 0.010961
4650 0.011478
4660 0.011101
4670 0.01118
4680 0.010964
4690 0.010761
4700 0.010533
4710 0.010315
4720 0.010094
4730 0.0098786
4740 0.0095683
4750 0.0093082
4760 0.0090096
4770 0.0089345
4780 0.0086884
4790 0.0084982
4800 0.0083045
4810 0.0081614
4820 0.0081269
4830 0.0080412
4840 0.0081285
4850 0.0075286
4860 0.0081768
4870 0.0081962
4880 0.0081384
4890 0.0083653
4900 0.0090934
4910 0.0095264
4920 0.0092159
4930 0.0095805
4940 0.010355
4950 0.010719
4960 0.011401
4970 0.011693
4980 0.011151
4990 0.011036
5000 0.012455
5010 0.01276
5020 0.010959
5030 0.010319
5040 0.010988
5050 0.010456
5060 0.0096896
5070 0.0094243
5080 0.0096688
5090 0.009304
5100 0.0090691
5110 0.0095146
5120 0.010097
5130 0.0099768
5140 0.010009
5150 0.010061
5160 0.010007
5170 0.010147
5180 0.010387
5190 0.010617
5200 0.010969
5210 0.011099
5220 0.011188
5230 0.011217
5240 0.011348
5250 0.011559
5260 0.0118
5270 0.012013
5280 0.012294
5290 0.012462
5300 0.012768
5310 0.0129
5320 0.012847
5330 0.013201
5340 0.013526
5350 0.013131
5360 0.013262
5370 0.01322
5380 0.013144
5390 0.012978
5400 0.013061
5410 0.012872
5420 0.012785
5430 0.013447
5440 0.01306
5450 0.013099
5460 0.013107
5470 0.01326
5480 0.013333
5490 0.013392
5500 0.013315
5510 0.013316
5520 0.01302
5530 0.012985
5540 0.012422
5550 0.011885
5560 0.011809
5570 0.011204
5580 0.010982
5590 0.011083
5600 0.010847
5610 0.010367
5620 0.0096789
5630 0.008803
5640 0.0081177
5650 0.0076581
5660 0.0072645
5670 0.0069389
5680 0.0068609
5690 0.0067737
5700 0.0061535
5710 0.0060589
5720 0.0062105
5730 0.0064343
5740 0.0066625
5750 0.0072084
5760 0.007729
5770 0.0081631
5780 0.0086913
5790 0.009256
5800 0.0098426
5810 0.010876
5820 0.011638
5830 0.012315
5840 0.012724
5850 0.013203
5860 0.01356
5870 0.01371
5880 0.013785
5890 0.01322
5900 0.012924
5910 0.013257
5920 0.013071
5930 0.013162
5940 0.013287
5950 0.013508
5960 0.013491
5970 0.013437
5980 0.012954
5990 0.012752
6000 0.012247
6010 0.012354
6020 0.011887
6030 0.011417
6040 0.010997
6050 0.010771
6060 0.010481
6070 0.0099941
6080 0.0096781
6090 0.0096663
6100 0.0097194
6110 0.0097822
6120 0.0097167
6130 0.0095301
6140 0.0097195
6150 0.0096894
6160 0.0096751
6170 0.0098704
6180 0.0098108
6190 0.0099993
6200 0.010245
6210 0.010322
6220 0.010218
6230 0.01033
6240 0.010334
6250 0.010106
6260 0.010065
6270 0.010125
6280 0.01007
6290 0.010065
6300 0.010066
6310 0.01003
6320 0.0099963
6330 0.0099014
6340 0.0099887
6350 0.010114
6360 0.010163
6370 0.010095
6380 0.010189
6390 0.01031
6400 0.010445
6410 0.010316
6420 0.010181
6430 0.010129
6440 0.010044
6450 0.0099364
6460 0.0098107
6470 0.0097156
6480 0.0095655
6490 0.0093287
6500 0.0092825
6510 0.0092475
6520 0.0092486
6530 0.0092666
6540 0.0092914
6550 0.0093728
6560 0.0096993
6570 0.0098617
6580 0.010013
6590 0.0099336
6600 0.0097878
6610 0.0099561
6620 0.0098316
6630 0.009845
6640 0.0098275
6650 0.0098788
6660 0.0097691
6670 0.0096419
6680 0.0096414
6690 0.0095338
6700 0.0095892
6710 0.0095057
6720 0.0093804
6730 0.0092625
6740 0.008872
6750 0.0085518
6760 0.0083496
6770 0.0083111
6780 0.0082068
6790 0.0081076
6800 0.008008
6810 0.0078593
6820 0.0077086
6830 0.0075922
6840 0.0074121
6850 0.0073246
6860 0.0074571
6870 0.0076552
6880 0.0077716
6890 0.0080346
6900 0.0084025
6910 0.0084621
6920 0.0084547
6930 0.0085211
6940 0.0085458
6950 0.0085121
6960 0.0088781
6970 0.008906
6980 0.0089233
6990 0.0090824
7000 0.0089505
7010 0.0088278
7020 0.0087989
7030 0.0087973
7040 0.008881
7050 0.0089239
7060 0.00889
7070 0.0089825
7080 0.0091374
7090 0.0092955
7100 0.0092993
7110 0.0092315
7120 0.0092751
7130 0.009511
7140 0.0096762
7150 0.0098712
7160 0.010148
7170 0.010466
7180 0.010742
7190 0.011069
7200 0.011567
7210 0.011693
7220 0.012007
7230 0.012133
7240 0.012367
7250 0.012633
7260 0.012595
7270 0.012405
7280 0.012113
7290 0.011944
7300 0.011732
7310 0.011762
7320 0.011548
7330 0.011401
7340 0.011138
7350 0.011062
7360 0.010934
7370 0.010878
7380 0.010885
7390 0.010766
7400 0.010659
7410 0.010631
7420 0.010418
7430 0.010416
7440 0.010402
7450 0.010428
7460 0.010023
7470 0.0098038
7480 0.0096112
7490 0.0092741
7500 0.0089937
7510 0.0090507
7520 0.0091908
7530 0.00914
7540 0.0088835
7550 0.0085096
7560 0.00839
7570 0.0082802
7580 0.0083688
7590 0.0084186
7600 0.0084518
7610 0.008508
7620 0.0087479
7630 0.0091212
7640 0.0096325
7650 0.010098
7660 0.010426
7670 0.010897
7680 0.011217
7690 0.011249
7700 0.012
7710 0.012324
7720 0.011657
7730 0.011738
7740 0.011688
7750 0.011692
7760 0.011537
7770 0.011653
7780 0.012005
7790 0.012299
7800 0.012388
7810 0.012422
7820 0.012183
7830 0.011965
7840 0.011807
7850 0.012101
7860 0.012526
7870 0.012717
7880 0.012328
7890 0.011666
7900 0.01146
7910 0.011035
7920 0.011085
7930 0.010726
7940 0.01034
7950 0.010248
7960 0.010001
7970 0.0098959
7980 0.0097276
7990 0.0095982
8000 0.0095636
8010 0.0093777
8020 0.0090491
8030 0.0089067
8040 0.0085093
8050 0.0083476
8060 0.0083069
8070 0.0079309
8080 0.0075856
8090 0.00745
8100 0.007344
8110 0.0074081
8120 0.0071459
8130 0.0068783
8140 0.0063609
8150 0.005373
8160 0.0052258
8170 0.004988
8180 0.0049933
8190 0.0048465
8200 0.004277
8210 0.0044973
8220 0.0046012
8230 0.0044458
8240 0.0045763
8250 0.0048077
8260 0.0053072
8270 0.0054084
8280 0.0050851
8290 0.0053589
8300 0.0059571
8310 0.0057797
8320 0.0062322
8330 0.0068367
8340 0.0070665
8350 0.0071329
8360 0.0077412
8370 0.0083762
8380 0.0086548
8390 0.0091839
8400 0.0099014
8410 0.010764
8420 0.011304
8430 0.012054
8440 0.012715
8450 0.013436
8460 0.014124
8470 0.014939
8480 0.015861
8490 0.01671
8500 0.017619
8510 0.018932
8520 0.020162
8530 0.022706
8540 0.022986
8550 0.023449
8560 0.024306
8570 0.025281
8580 0.025388
8590 0.026337
8600 0.027286
8610 0.028322
8620 0.027909
8630 0.02737
8640 0.02665
8650 0.025012
8660 0.023982
8670 0.023593
8680 0.023206
8690 0.022797
8700 0.022066
8710 0.021969
8720 0.022337
8730 0.02156
8740 0.021098
8750 0.019808
8760 0.018907
8770 0.018831
8780 0.016617
8790 0.015445
8800 0.014741
8810 0.013222
8820 0.012397
8830 0.011221
8840 0.010136
8850 0.0098277
8860 0.0090165
8870 0.0083008
8880 0.0083832
8890 0.0082167
8900 0.0077778
8910 0.0074667
8920 0.0075038
8930 0.0076408
8940 0.0076668
8950 0.0077066
8960 0.0077628
8970 0.0073988
8980 0.0073189
8990 0.0073045
9000 0.0070806
9010 0.0069982
9020 0.0069831
9030 0.0070414
9040 0.006678
9050 0.0062685
9060 0.006260215
9070 0.006251929
9080 0.006243644
9090 0.006235359
9100 0.006227073
9110 0.006218788
9120 0.006210503
9130 0.006202217
9140 0.006193932
9150 0.006185647
9160 0.006177361
9170 0.006169076
9180 0.006160791
9190 0.006152505
9200 0.00614422
9210 0.006135935
9220 0.006127649
9230 0.006119364
9240 0.006111079
9250 0.006102793
9260 0.006094508
9270 0.006086223
9280 0.006077937
9290 0.006069652
9300 0.006061367
9310 0.006053081
9320 0.006044796
9330 0.006036511
9340 0.006028225
9350 0.00601994
9360 0.006011655
9370 0.006003369
9380 0.005995084
9390 0.005986799
9400 0.005978513
9410 0.005970228
9420 0.005961943
9430 0.005953657
9440 0.005945372
9450 0.005937087
9460 0.005928801
9470 0.005920516
9480 0.005912231
9490 0.005903945
9500 0.00589566
9510 0.005887375
9520 0.005879089
9530 0.005870804
9540 0.005862518
9550 0.005854233
9560 0.005845948
9570 0.005837662
9580 0.005829377
9590 0.005821092
9600 0.005812806
9610 0.005804521
9620 0.005796236
9630 0.00578795
9640 0.005779665
9650 0.00577138
9660 0.005763094
9670 0.005754809
9680 0.005746524
9690 0.005738238
9700 0.005729953
9710 0.005721668
9720 0.005713382
9730 0.005705097
9740 0.005696812
9750 0.005688526
9760 0.005680241
9770 0.005671956
9780 0.00566367
9790 0.005655385
9800 0.0056471
9810 0.005638814
9820 0.005630529
9830 0.005622244
9840 0.005613958
9850 0.005605673
9860 0.005597388
9870 0.005589102
9880 0.005580817
9890 0.005572532
9900 0.005564246
9910 0.005555961
9920 0.005547676
9930 0.00553939
9940 0.005531105
9950 0.00552282
9960 0.005514534
9970 0.005506249
9980 0.005497964
9990 0.005489678
10000 0.005481393
10010 0.005473108
10020 0.005464822
10030 0.005456537
10040 0.005448252
10050 0.005439966
10060 0.005431681
10070 0.005423396
10080 0.00541511
10090 0.005406825
10100 0.00539854
10110 0.005390254
10120 0.005381969
10130 0.005373684
10140 0.005365398
10150 0.005357113
10160 0.005348828
10170 0.005340542
10180 0.005332257
10190 0.005323972
10200 0.005315686
10210 0.005307401
10220 0.005299116
10230 0.00529083
10240 0.005282545
10250 0.00527426
10260 0.005265974
10270 0.005257689
10280 0.005249404
10290 0.005241118
10300 0.005232833
10310 0.005224548
10320 0.005216262
10330 0.005207977
10340 0.005199692
10350 0.005191406
10360 0.005183121
10370 0.005174836
10380 0.00516655
10390 0.005158265
10400 0.00514998
10410 0.005141694
10420 0.005133409
10430 0.005125124
10440 0.005116838
10450 0.005108553
10460 0.005100268
10470 0.005091982
10480 0.005083697
10490 0.005075411
10500 0.005067126
10510 0.005058841
10520 0.005050555
10530 0.00504227
10540 0.005033985
10550 0.005025699
10560 0.005017414
10570 0.005009129
10580 0.005000843
10590 0.004992558
10600 0.004984273
10610 0.004975987
10620 0.004967702
10630 0.004959417
10640 0.004951131
10650 0.004942846
10660 0.004934561
10670 0.004926275
10680 0.00491799
10690 0.004909705
10700 0.004901419
10710 0.004893134
10720 0.004884849
10730 0.004876563
10740 0.004868278
10750 0.004859993
10760 0.004851707
10770 0.004843422
10780 0.004835137
10790 0.004826851
10800 0.004818566
10810 0.004810281
10820 0.004801995
10830 0.00479371
10840 0.004785425
10850 0.004777139
10860 0.004768854
10870 0.004760569
10880 0.004752283
10890 0.004743998
10900 0.004735713
10910 0.004727427
10920 0.004719142
10930 0.004710857
10940 0.004702571
10950 0.004694286
10960 0.004686001
10970 0.004677715
10980 0.00466943
10990 0.004661145
11000 0.004652859
11010 0.004644574
11020 0.004636289
11030 0.004628003
11040 0.004619718
11050 0.004611433
11060 0.004603147
11070 0.004594862
11080 0.004586577
11090 0.004578291
11100 0.004570006
11110 0.004561721
11120 0.004553435
11130 0.00454515
11140 0.004536865
11150 0.004528579
11160 0.004520294
11170 0.004512009
11180 0.004503723
11190 0.004495438
11200 0.004487153
11210 0.004478867
11220 0.004470582
11230 0.004462297
11240 0.004454011
11250 0.004445726
11260 0.004437441
11270 0.004429155
11280 0.00442087
11290 0.004412585
11300 0.004404299
11310 0.004396014
11320 0.004387729
11330 0.004379443
11340 0.004371158
11350 0.004362873
11360 0.004354587
11370 0.004346302
11380 0.004338017
11390 0.004329731
11400 0.004321446
11410 0.004313161
11420 0.004304875
11430 0.00429659
11440 0.004288304
11450 0.004280019
11460 0.004271734
11470 0.004263448
11480 0.004255163
11490 0.004246878
11500 0.004238592
11510 0.004230307
11520 0.004222022
11530 0.004213736
11540 0.004205451
11550 0.004197166
11560 0.00418888
11570 0.004180595
11580 0.00417231
11590 0.004164024
11600 0.004155739
11610 0.004147454
11620 0.004139168
11630 0.004130883
11640 0.004122598
11650 0.004114312
11660 0.004106027
11670 0.004097742
11680 0.004089456
11690 0.004081171
11700 0.004072886
11710 0.0040646
11720 0.004056315
11730 0.00404803
11740 0.004039744
11750 0.004031459
11760 0.004023174
11770 0.004014888
11780 0.004006603
11790 0.003998318
11800 0.003990032
11810 0.003981747
11820 0.003973462
11830 0.003965176
11840 0.003956891
11850 0.003948606
11860 0.00394032
11870 0.003932035
11880 0.00392375
11890 0.003915464
11900 0.003907179
11910 0.003898894
11920 0.003890608
11930 0.003889705
11940 0.003888802
11950 0.003887899
11960 0.003886996
11970 0.003886092
11980 0.003885189
11990 0.003884286
