#lamb flux
2410 2.5222e-05
2420 2.6266e-05
2430 2.7388e-05
2440 2.8581e-05
2450 2.978e-05
2460 3.0747e-05
2470 3.1873e-05
2480 3.3e-05
2490 3.4184e-05
2500 3.5337e-05
2510 3.65e-05
2520 3.7635e-05
2530 3.8704e-05
2540 3.9764e-05
2550 4.0836e-05
2560 4.1985e-05
2570 4.3118e-05
2580 4.429e-05
2590 4.5431e-05
2600 4.6656e-05
2610 4.7946e-05
2620 4.9167e-05
2630 5.0348e-05
2640 5.1496e-05
2650 5.2762e-05
2660 5.3997e-05
2670 5.5183e-05
2680 5.6312e-05
2690 5.7445e-05
2700 5.8571e-05
2710 5.9702e-05
2720 6.0733e-05
2730 6.1724e-05
2740 6.2774e-05
2750 6.3789e-05
2760 6.4694e-05
2770 6.5533e-05
2780 6.6351e-05
2790 6.7148e-05
2800 6.7946e-05
2810 6.8642e-05
2820 6.9303e-05
2830 6.993e-05
2840 7.0533e-05
2850 7.1146e-05
2860 7.168e-05
2870 7.2213e-05
2880 7.2741e-05
2890 7.3261e-05
2900 7.3777e-05
2910 7.4224e-05
2920 7.4664e-05
2930 7.5037e-05
2940 7.5398e-05
2950 7.5699e-05
2960 7.5966e-05
2970 7.6244e-05
2980 7.646e-05
2990 7.6627e-05
3000 7.6779e-05
3010 7.6861e-05
3020 7.6906e-05
3030 7.6855e-05
3040 7.6774e-05
3050 7.6664e-05
3060 7.6499e-05
3070 7.6245e-05
3080 7.5964e-05
3090 7.5576e-05
3100 7.5129e-05
3110 7.4627e-05
3120 7.4029e-05
3130 7.3391e-05
3140 7.2687e-05
3150 7.1937e-05
3160 7.1145e-05
3170 7.0299e-05
3180 6.9441e-05
3190 6.8541e-05
3200 6.7627e-05
3210 6.6696e-05
3220 6.5752e-05
3230 6.4811e-05
3240 6.3853e-05
3250 6.2914e-05
3260 6.1967e-05
3270 6.1043e-05
3280 6.0256e-05
3290 5.9545e-05
3300 5.8833e-05
3310 5.8115e-05
3320 5.7388e-05
3330 5.6657e-05
3340 5.5917e-05
3350 5.5155e-05
3360 5.4383e-05
3370 5.3604e-05
3380 5.2811e-05
3390 5.2029e-05
3400 5.1278e-05
3410 5.0603e-05
3420 5.0092e-05
3430 4.9846e-05
3440 5.0145e-05
3450 5.1462e-05
3460 5.3482e-05
3470 5.587e-05
3480 5.8519e-05
3490 6.1381e-05
3500 6.4436e-05
3510 6.7692e-05
3520 7.1162e-05
3530 7.488e-05
3540 7.888e-05
3550 8.3189e-05
3560 8.783e-05
3570 9.2854e-05
3580 9.8286e-05
3590 0.00010416
3600 0.0001105
3610 0.00011733
3620 0.00012465
3630 0.0001325
3640 0.00014084
3650 0.00014967
3660 0.000159
3670 0.00016882
3680 0.00017908
3690 0.00018977
3700 0.00020083
3710 0.00021227
3720 0.000224
3730 0.00023607
3740 0.00024832
3750 0.0002608
3760 0.0002734
3770 0.00028609
3780 0.00029882
3790 0.00031152
3800 0.0003242
3810 0.00033676
3820 0.00034923
3830 0.0003615
3840 0.00037353
3850 0.00038531
3860 0.00039681
3870 0.00040793
3880 0.00041869
3890 0.000429
3900 0.00043886
3910 0.00044819
3920 0.000457
3930 0.00046526
3940 0.00047283
3950 0.00047976
3960 0.00048607
3970 0.00049171
3980 0.00049666
3990 0.00050087
4000 0.00050444
4010 0.00050728
4020 0.00050943
4030 0.00051084
4040 0.0005115
4050 0.00051144
4060 0.00051061
4070 0.00050905
4080 0.00050673
4090 0.0005037
4100 0.00049996
4110 0.00049551
4120 0.00049038
4130 0.0004846
4140 0.0004782
4150 0.00047117
4160 0.00046357
4170 0.00045543
4180 0.00044676
4190 0.00043755
4200 0.00042789
4210 0.00041782
4220 0.00040738
4230 0.00039656
4240 0.00038546
4250 0.00037415
4260 0.00036264
4270 0.00035095
4280 0.00033909
4290 0.00032718
4300 0.00031526
4310 0.00030337
4320 0.00029155
4330 0.00027985
4340 0.0002683
4350 0.00025696
4360 0.00024588
4370 0.00023508
4380 0.00022462
4390 0.00021452
4400 0.00020484
4410 0.00019559
4420 0.00018682
4430 0.00017854
4440 0.00017079
4450 0.0001636
4460 0.000157
4470 0.000151
4480 0.00014562
4490 0.00014088
4500 0.00013679
4510 0.00013338
4520 0.00013067
4530 0.00012867
4540 0.00012745
4550 0.00012707
4560 0.00012772
4570 0.00012971
4580 0.00013276
4590 0.00013677
4600 0.00014173
4610 0.00014763
4620 0.00015446
4630 0.00016224
4640 0.00017101
4650 0.00018076
4660 0.00019147
4670 0.00020314
4680 0.0002158
4690 0.00022946
4700 0.00024408
4710 0.00025965
4720 0.00027613
4730 0.00029348
4740 0.00031168
4750 0.00033059
4760 0.00035025
4770 0.00037054
4780 0.00039142
4790 0.00041295
4800 0.00043496
4810 0.00045724
4820 0.00048002
4830 0.00050314
4840 0.0005264
4850 0.00054974
4860 0.0005733
4870 0.0005966
4880 0.00061995
4890 0.00064295
4900 0.00066571
4910 0.00068817
4920 0.0007102
4930 0.00073179
4940 0.00075302
4950 0.00077379
4960 0.00079402
4970 0.00081367
4980 0.00083284
4990 0.0008514
5000 0.00086926
5010 0.00088634
5020 0.00090274
5030 0.00091837
5040 0.0009332
5050 0.00094728
5060 0.00096059
5070 0.0009732
5080 0.00098521
5090 0.00099651
5100 0.0010071
5110 0.0010171
5120 0.0010264
5130 0.0010351
5140 0.001043
5150 0.0010501
5160 0.0010562
5170 0.0010613
5180 0.0010654
5190 0.0010684
5200 0.0010704
5210 0.0010713
5220 0.0010711
5230 0.0010698
5240 0.0010674
5250 0.0010639
5260 0.0010591
5270 0.0010531
5280 0.001046
5290 0.0010377
5300 0.0010285
5310 0.0010183
5320 0.0010071
5330 0.00099511
5340 0.00098233
5350 0.00096899
5360 0.00095495
5370 0.00094049
5380 0.00092566
5390 0.0009104
5400 0.00089479
5410 0.00087891
5420 0.00086271
5430 0.00084626
5440 0.00082958
5450 0.00081214
5460 0.00079466
5470 0.00077673
5480 0.00075859
5490 0.00074049
5500 0.00072189
5510 0.00070339
5520 0.0006849
5530 0.00066651
5540 0.00064816
5550 0.00062968
5560 0.00061104
5570 0.00059226
5580 0.00057373
5590 0.00055497
5600 0.00053589
5610 0.00051702
5620 0.0004981
5630 0.00047958
5640 0.00046093
5650 0.00044279
5660 0.00042479
5670 0.00040715
5680 0.0003893
5690 0.00037187
5700 0.00035475
5710 0.00033805
5720 0.00032175
5730 0.00030577
5740 0.00029015
5750 0.00027497
5760 0.00026048
5770 0.00024636
5780 0.00023277
5790 0.00021968
5800 0.00020718
5810 0.00019524
5820 0.00018393
5830 0.00017326
5840 0.00016321
5850 0.00015378
5860 0.00014493
5870 0.00013672
5880 0.00012913
5890 0.00012218
5900 0.00011582
5910 0.00011006
5920 0.00010496
5930 0.0001005
5940 9.6667e-05
5950 9.3428e-05
5960 9.0866e-05
5970 8.9042e-05
5980 8.8158e-05
5990 8.8224e-05
6000 8.8976e-05
6010 9.0308e-05
6020 9.2212e-05
6030 9.463e-05
6040 9.7492e-05
6050 0.00010082
6060 0.00010463
6070 0.0001089
6080 0.0001136
6090 0.0001187
6100 0.00012418
6110 0.00013008
6120 0.00013637
6130 0.00014301
6140 0.00014999
6150 0.00015726
6160 0.00016487
6170 0.00017273
6180 0.00018083
6190 0.00018913
6200 0.00019759
6210 0.00020628
6220 0.00021509
6230 0.00022408
6240 0.00023313
6250 0.0002423
6260 0.00025152
6270 0.00026067
6280 0.00026985
6290 0.00027901
6300 0.00028806
6310 0.00029705
6320 0.00030591
6330 0.00031475
6340 0.00032338
6350 0.00033176
6360 0.00033992
6370 0.00034796
6380 0.00035565
6390 0.00036323
6400 0.00037054
6410 0.00037756
6420 0.00038444
6430 0.00039096
6440 0.00039723
6450 0.00040318
6460 0.00040878
6470 0.00041411
6480 0.00041899
6490 0.00042357
6500 0.00042774
6510 0.00043154
6520 0.00043498
6530 0.000438
6540 0.00044076
6550 0.00044308
6560 0.00044518
6570 0.00044689
6580 0.0004482
6590 0.00044915
6600 0.00044974
6610 0.00044999
6620 0.00044991
6630 0.00044944
6640 0.0004486
6650 0.00044749
6660 0.00044601
6670 0.00044415
6680 0.00044205
6690 0.00043961
6700 0.00043691
6710 0.00043394
6720 0.00043062
6730 0.00042709
6740 0.00042315
6750 0.00041895
6760 0.00041451
6770 0.00040974
6780 0.00040471
6790 0.0003994
6800 0.00039385
6810 0.000388
6820 0.0003819
6830 0.0003755
6840 0.0003688
6850 0.00036186
6860 0.00035479
6870 0.00034748
6880 0.00033999
6890 0.00033231
6900 0.00032444
6910 0.00031635
6920 0.0003081
6930 0.00029966
6940 0.00029114
6950 0.00028254
6960 0.00027384
6970 0.00026502
6980 0.00025619
6990 0.00024733
7000 0.00023856
7010 0.00022976
7020 0.00022107
7030 0.00021239
7040 0.00020392
7050 0.00019552
7060 0.00018734
7070 0.00017936
7080 0.0001716
7090 0.00016411
7100 0.00015687
7110 0.00014994
7120 0.00014328
7130 0.00013696
7140 0.000131
7150 0.00012539
7160 0.00012016
7170 0.00011535
7180 0.00011095
7190 0.00010701
7200 0.00010354
7210 0.00010057
7220 9.8121e-05
7230 9.6261e-05
7240 9.5127e-05
7250 9.496e-05
7260 9.5819e-05
7270 9.7396e-05
7280 9.9571e-05
7290 0.0001023
7300 0.00010549
7310 0.00010913
7320 0.0001132
7330 0.00011767
7340 0.00012252
7350 0.00012774
7360 0.00013331
7370 0.0001392
7380 0.00014541
7390 0.00015189
7400 0.00015862
7410 0.00016559
7420 0.00017277
7430 0.00018011
7440 0.00018758
7450 0.0001952
7460 0.00020288
7470 0.00021062
7480 0.00021839
7490 0.00022624
7500 0.00023406
7510 0.00024183
7520 0.00024952
7530 0.00025721
7540 0.00026476
7550 0.00027211
7560 0.00027925
7570 0.00028626
7580 0.00029318
7590 0.00029985
7600 0.00030628
7610 0.00031242
7620 0.00031828
7630 0.00032389
7640 0.00032924
7650 0.00033423
7660 0.00033894
7670 0.00034335
7680 0.00034743
7690 0.00035117
7700 0.00035457
7710 0.00035773
7720 0.00036048
7730 0.00036292
7740 0.00036509
7750 0.00036689
7760 0.00036832
7770 0.00036946
7780 0.00037027
7790 0.00037084
7800 0.00037108
7810 0.00037091
7820 0.00037051
7830 0.00036984
7840 0.00036885
7850 0.00036757
7860 0.00036599
7870 0.00036416
7880 0.00036206
7890 0.00035984
7900 0.00035733
7910 0.00035446
7920 0.00035138
7930 0.00034809
7940 0.00034437
7950 0.00034042
7960 0.00033628
7970 0.00033201
7980 0.00032754
7990 0.00032284
8000 0.00031805
8010 0.0003131
8020 0.00030794
8030 0.00030271
8040 0.00029737
8050 0.00029192
8060 0.00028629
8070 0.00028054
8080 0.00027465
8090 0.00026866
8100 0.00026255
8110 0.00025635
8120 0.00025005
8130 0.00024367
8140 0.00023723
8150 0.00023081
8160 0.00022428
8170 0.00021785
8180 0.00021128
8190 0.00020471
8200 0.00019815
8210 0.0001916
8220 0.00018509
8230 0.00017861
8240 0.00017212
8250 0.00016564
8260 0.00015927
8270 0.00015297
8280 0.00014669
8290 0.00014048
8300 0.00013436
8310 0.00012838
8320 0.00012245
8330 0.00011662
8340 0.0001109
8350 0.0001053
8360 9.9834e-05
8370 9.4503e-05
8380 8.9322e-05
8390 8.4311e-05
8400 7.9472e-05
8410 7.4779e-05
8420 7.0233e-05
8430 6.5876e-05
8440 6.1694e-05
8450 5.7702e-05
8460 5.3908e-05
8470 5.0308e-05
8480 4.6896e-05
8490 4.3678e-05
8500 4.0647e-05
8510 3.7818e-05
8520 3.5169e-05
8530 3.2695e-05
8540 3.0419e-05
8550 2.8319e-05
8560 2.6409e-05
8570 2.4684e-05
8580 2.3128e-05
8590 2.1746e-05
8600 2.0527e-05
8610 1.9466e-05
8620 1.8561e-05
8630 1.7812e-05
8640 1.7221e-05
8650 1.6781e-05
8660 1.6534e-05
8670 1.651e-05
8680 1.6645e-05
8690 1.6915e-05
8700 1.7309e-05
8710 1.7816e-05
8720 1.8436e-05
8730 1.9157e-05
8740 1.9982e-05
8750 2.0907e-05
8760 2.1925e-05
8770 2.3036e-05
8780 2.4239e-05
8790 2.5533e-05
8800 2.6916e-05
8810 2.838e-05
8820 2.9924e-05
8830 3.1529e-05
8840 3.3205e-05
8850 3.4931e-05
8860 3.6713e-05
8870 3.855e-05
8880 4.0441e-05
8890 4.2363e-05
8900 4.4327e-05
8910 4.6311e-05
8920 4.8306e-05
8930 5.0308e-05
8940 5.2315e-05
8950 5.4318e-05
8960 5.6333e-05
8970 5.8348e-05
8980 6.0331e-05
8990 6.23e-05
9000 6.4255e-05
9010 6.6181e-05
9020 6.8046e-05
9030 6.9897e-05
9040 7.1721e-05
9050 0.00048595
9060 0.0004828853
9070 0.0004798205
9080 0.0004767558
9090 0.0004736911
9100 0.0004706263
9110 0.0004675616
9120 0.0004644968
9130 0.0004614321
9140 0.0004583674
9150 0.0004553026
9160 0.0004522379
9170 0.0004491732
9180 0.0004461084
9190 0.0004430437
9200 0.0004399789
9210 0.0004369142
9220 0.0004338495
9230 0.0004307847
9240 0.00042772
9250 0.0004246553
9260 0.0004215905
9270 0.0004185258
9280 0.0004154611
9290 0.0004123963
9300 0.0004093316
9310 0.0004062668
9320 0.0004032021
9330 0.0004001374
9340 0.0003970726
9350 0.0003940079
9360 0.0003909432
9370 0.0003878784
9380 0.0003848137
9390 0.0003817489
9400 0.0003786842
9410 0.0003756195
9420 0.0003725547
9430 0.00036949
9440 0.0003664253
9450 0.0003633605
9460 0.0003602958
9470 0.0003572311
9480 0.0003541663
9490 0.0003511016
9500 0.0003480368
9510 0.0003449721
9520 0.0003419074
9530 0.0003388426
9540 0.0003357779
9550 0.0003327132
9560 0.0003296484
9570 0.0003265837
9580 0.0003235189
9590 0.0003204542
9600 0.0003173895
9610 0.0003143247
9620 0.00031126
9630 0.0003081953
9640 0.0003051305
9650 0.0003020658
9660 0.0002990011
9670 0.0002959363
9680 0.0002928716
9690 0.0002898068
9700 0.0002867421
9710 0.0002836774
9720 0.0002806126
9730 0.0002775479
9740 0.0002744832
9750 0.0002714184
9760 0.0002683537
9770 0.0002652889
9780 0.0002622242
9790 0.0002591595
9800 0.0002560947
9810 0.00025303
9820 0.0002499653
9830 0.0002469005
9840 0.0002438358
9850 0.0002407711
9860 0.0002377063
9870 0.0002346416
9880 0.0002315768
9890 0.0002285121
9900 0.0002254474
9910 0.0002223826
9920 0.0002193179
9930 0.0002162532
9940 0.0002131884
9950 0.0002101237
9960 0.0002070589
9970 0.0002039942
9980 0.0002009295
9990 0.0001978647
10000 0.0001948
10010 0.0001917353
10020 0.0001886705
10030 0.0001856058
10040 0.0001825411
10050 0.0001794763
10060 0.0001764116
10070 0.0001733468
10080 0.0001702821
10090 0.0001672174
10100 0.0001641526
10110 0.0001610879
10120 0.0001580232
10130 0.0001549584
10140 0.0001518937
10150 0.0001488289
10160 0.0001457642
10170 0.0001426995
10180 0.0001396347
10190 0.00013657
10200 0.0001335053
10210 0.0001304405
10220 0.0001273758
10230 0.0001243111
10240 0.0001212463
10250 0.0001181816
10260 0.0001151168
10270 0.0001120521
10280 0.0001089874
10290 0.0001059226
10300 0.0001028579
10310 9.979316e-05
10320 9.672842e-05
10330 9.366368e-05
10340 9.059895e-05
10350 8.753421e-05
10360 8.446947e-05
10370 8.140474e-05
10380 7.834e-05
10390 7.527526e-05
10400 7.221053e-05
10410 6.914579e-05
10420 6.608105e-05
10430 6.301632e-05
10440 5.995158e-05
10450 5.688684e-05
10460 5.382211e-05
10470 5.075737e-05
10480 4.769263e-05
10490 4.462789e-05
10500 4.156316e-05
10510 3.849842e-05
10520 3.543368e-05
10530 3.236895e-05
10540 2.930421e-05
10550 2.623947e-05
10560 2.317474e-05
10570 2.011e-05
10580 1.704526e-05
10590 1.398053e-05
10600 1.091579e-05
10610 7.851053e-06
10620 4.786316e-06
10630 1.721579e-06
10640 0.0
10650 0.0
10660 0.0
10670 0.0
10680 0.0
10690 0.0
10700 0.0
10710 0.0
10720 0.0
10730 0.0
10740 0.0
10750 0.0
10760 0.0
10770 0.0
10780 0.0
10790 0.0
10800 0.0
10810 0.0
10820 0.0
10830 0.0
10840 0.0
10850 0.0
10860 0.0
10870 0.0
10880 0.0
10890 0.0
10900 0.0
10910 0.0
10920 0.0
10930 0.0
10940 0.0
10950 0.0
10960 0.0
10970 0.0
10980 0.0
10990 0.0
11000 0.0
11010 0.0
11020 0.0
11030 0.0
11040 0.0
11050 0.0
11060 0.0
11070 0.0
11080 0.0
11090 0.0
11100 0.0
11110 0.0
11120 0.0
11130 0.0
11140 0.0
11150 0.0
11160 0.0
11170 0.0
11180 0.0
11190 0.0
11200 0.0
11210 0.0
11220 0.0
11230 0.0
11240 0.0
11250 0.0
11260 0.0
11270 0.0
11280 0.0
11290 0.0
11300 0.0
11310 0.0
11320 0.0
11330 0.0
11340 0.0
11350 0.0
11360 0.0
11370 0.0
11380 0.0
11390 0.0
11400 0.0
11410 0.0
11420 0.0
11430 0.0
11440 0.0
11450 0.0
11460 0.0
11470 0.0
11480 0.0
11490 0.0
11500 0.0
11510 0.0
11520 0.0
11530 0.0
11540 0.0
11550 0.0
11560 0.0
11570 0.0
11580 0.0
11590 0.0
11600 0.0
11610 0.0
11620 0.0
11630 0.0
11640 0.0
11650 0.0
11660 0.0
11670 0.0
11680 0.0
11690 0.0
11700 0.0
11710 0.0
11720 0.0
11730 0.0
11740 0.0
11750 0.0
11760 0.0
11770 0.0
11780 0.0
11790 0.0
11800 0.0
11810 0.0
11820 0.0
11830 0.0
11840 0.0
11850 0.0
11860 0.0
11870 0.0
11880 0.0
11890 0.0
11900 0.0
11910 0.0
11920 0.0
11930 0.0
11940 0.0
11950 0.0
11960 0.0
11970 0.0
11980 0.0
11990 0.0
