#lamb flux
2300 1.5122e-07
2310 1.6457e-07
2320 1.8017e-07
2330 1.937e-07
2340 2.1077e-07
2350 2.2506e-07
2360 2.4035e-07
2370 2.5467e-07
2380 2.7559e-07
2390 2.9568e-07
2400 3.1618e-07
2410 3.3659e-07
2420 3.5747e-07
2430 3.7996e-07
2440 4.0405e-07
2450 4.2882e-07
2460 4.5077e-07
2470 4.7557e-07
2480 5.009e-07
2490 5.2763e-07
2500 5.5439e-07
2510 5.8183e-07
2520 6.0927e-07
2530 6.3609e-07
2540 6.6317e-07
2550 6.908e-07
2560 7.2013e-07
2570 7.4955e-07
2580 7.8001e-07
2590 8.1024e-07
2600 8.4232e-07
2610 8.7587e-07
2620 9.0848e-07
2630 9.4061e-07
2640 9.7233e-07
2650 1.0065e-06
2660 1.0403e-06
2670 1.0734e-06
2680 1.1056e-06
2690 1.1383e-06
2700 1.171e-06
2710 1.204e-06
2720 1.2351e-06
2730 1.2655e-06
2740 1.2971e-06
2750 1.3282e-06
2760 1.3571e-06
2770 1.3848e-06
2780 1.412e-06
2790 1.4391e-06
2800 1.4667e-06
2810 1.4923e-06
2820 1.5175e-06
2830 1.5422e-06
2840 1.5669e-06
2850 1.5922e-06
2860 1.6162e-06
2870 1.6433e-06
2880 1.6772e-06
2890 1.7122e-06
2900 1.7485e-06
2910 1.7847e-06
2920 1.8224e-06
2930 1.8602e-06
2940 1.9052e-06
2950 1.9543e-06
2960 2.0106e-06
2970 2.0703e-06
2980 2.1317e-06
2990 2.1954e-06
3000 2.2667e-06
3010 2.3465e-06
3020 2.4298e-06
3030 2.5149e-06
3040 2.6042e-06
3050 2.6981e-06
3060 2.796e-06
3070 2.8969e-06
3080 3.0035e-06
3090 3.1132e-06
3100 3.2279e-06
3110 3.3485e-06
3120 3.4734e-06
3130 3.6055e-06
3140 3.7442e-06
3150 3.8918e-06
3160 4.0506e-06
3170 4.217e-06
3180 4.3942e-06
3190 4.5841e-06
3200 4.7867e-06
3210 4.9987e-06
3220 5.2255e-06
3230 5.4611e-06
3240 5.7085e-06
3250 5.971e-06
3260 6.242e-06
3270 6.5248e-06
3280 6.8793e-06
3290 7.3364e-06
3300 7.8224e-06
3310 8.3343e-06
3320 8.8703e-06
3330 9.4314e-06
3340 1.0036e-05
3350 1.0687e-05
3360 1.1382e-05
3370 1.2123e-05
3380 1.2928e-05
3390 1.3801e-05
3400 1.4739e-05
3410 1.5749e-05
3420 1.6838e-05
3430 1.8008e-05
3440 1.9273e-05
3450 2.0634e-05
3460 2.2097e-05
3470 2.3673e-05
3480 2.5367e-05
3490 2.7188e-05
3500 2.9144e-05
3510 3.1245e-05
3520 3.3499e-05
3530 3.592e-05
3540 3.8518e-05
3550 4.1301e-05
3560 4.4272e-05
3570 4.7451e-05
3580 5.0847e-05
3590 5.4472e-05
3600 5.8342e-05
3610 6.2474e-05
3620 6.6877e-05
3630 7.1573e-05
3640 7.6563e-05
3650 8.1864e-05
3660 8.7497e-05
3670 9.3485e-05
3680 9.9829e-05
3690 0.00010655
3700 0.00011365
3710 0.00012117
3720 0.0001291
3730 0.00013749
3740 0.00014631
3750 0.00015562
3760 0.00016541
3770 0.00017569
3780 0.00018648
3790 0.0001978
3800 0.00020967
3810 0.0002221
3820 0.00023515
3830 0.00024878
3840 0.00026303
3850 0.00027793
3860 0.00029351
3870 0.00030974
3880 0.00032668
3890 0.00034431
3900 0.00036266
3910 0.00038172
3920 0.00040155
3930 0.00042214
3940 0.00044343
3950 0.00046547
3960 0.00048834
3970 0.00051202
3980 0.00053651
3990 0.0005618
4000 0.00058801
4010 0.0006151
4020 0.00064311
4030 0.00067204
4040 0.00070187
4050 0.00073267
4060 0.00076438
4070 0.00079706
4080 0.00083069
4090 0.00086531
4100 0.00090095
4110 0.00093759
4120 0.00097526
4130 0.001014
4140 0.0010538
4150 0.0010947
4160 0.0011367
4170 0.0011798
4180 0.001224
4190 0.0012691
4200 0.0013152
4210 0.0013624
4220 0.0014105
4230 0.0014594
4240 0.0015091
4250 0.0015597
4260 0.0016108
4270 0.0016623
4280 0.0017136
4290 0.0017649
4300 0.0018158
4310 0.0018658
4320 0.0019144
4330 0.0019608
4340 0.0020037
4350 0.0020407
4360 0.0020729
4370 0.0021016
4380 0.0021276
4390 0.0021512
4400 0.0021728
4410 0.0021924
4420 0.0022107
4430 0.0022275
4440 0.0022431
4450 0.0022578
4460 0.0022717
4470 0.002285
4480 0.0022976
4490 0.0023097
4500 0.0023213
4510 0.0023326
4520 0.0023434
4530 0.0023535
4540 0.0023633
4550 0.0023726
4560 0.0023814
4570 0.0023898
4580 0.0023977
4590 0.0024049
4600 0.0024117
4610 0.0024181
4620 0.0024238
4630 0.0024292
4640 0.0024346
4650 0.0024395
4660 0.0024438
4670 0.0024474
4680 0.0024507
4690 0.0024539
4700 0.0024565
4710 0.0024586
4720 0.0024602
4730 0.0024609
4740 0.0024609
4750 0.0024597
4760 0.0024576
4770 0.0024543
4780 0.00245
4790 0.0024453
4800 0.0024396
4810 0.0024321
4820 0.0024245
4830 0.0024163
4840 0.0024067
4850 0.0023959
4860 0.0023849
4870 0.0023719
4880 0.0023585
4890 0.0023436
4900 0.0023278
4910 0.0023111
4920 0.0022935
4930 0.0022751
4940 0.0022562
4950 0.002237
4960 0.0022171
4970 0.0021968
4980 0.0021764
4990 0.0021556
5000 0.0021344
5010 0.0021127
5020 0.0020908
5030 0.0020687
5040 0.0020463
5050 0.0020237
5060 0.0020012
5070 0.0019787
5080 0.0019567
5090 0.0019348
5100 0.0019132
5110 0.0018919
5120 0.0018711
5130 0.0018506
5140 0.0018303
5150 0.0018101
5160 0.0017899
5170 0.0017694
5180 0.0017489
5190 0.0017283
5200 0.0017076
5210 0.0016867
5220 0.0016657
5230 0.0016446
5240 0.0016234
5250 0.0016021
5260 0.0015806
5270 0.0015588
5280 0.0015369
5290 0.0015149
5300 0.001493
5310 0.0014714
5320 0.0014498
5330 0.0014286
5340 0.0014077
5350 0.0013874
5360 0.0013676
5370 0.0013486
5380 0.0013305
5390 0.0013131
5400 0.0012965
5410 0.0012808
5420 0.001266
5430 0.0012521
5440 0.0012391
5450 0.0012262
5460 0.0012144
5470 0.0012031
5480 0.0011926
5490 0.0011832
5500 0.0011742
5510 0.0011663
5520 0.0011595
5530 0.0011538
5540 0.0011492
5550 0.0011452
5560 0.0011417
5570 0.0011388
5580 0.001137
5590 0.0011353
5600 0.0011334
5610 0.0011322
5620 0.001131
5630 0.0011307
5640 0.0011299
5650 0.0011298
5660 0.0011295
5670 0.0011291
5680 0.0011266
5690 0.0011232
5700 0.0011172
5710 0.0011099
5720 0.0011019
5730 0.0010932
5740 0.001084
5750 0.0010747
5760 0.0010663
5770 0.0010576
5780 0.0010492
5790 0.001041
5800 0.0010334
5810 0.0010261
5820 0.0010194
5830 0.0010135
5840 0.0010081
5850 0.0010032
5860 0.00099856
5870 0.00099447
5880 0.0009907
5890 0.00098754
5900 0.00098448
5910 0.00098161
5920 0.00097937
5930 0.00097774
5940 0.00097642
5950 0.00097502
5960 0.00097414
5970 0.00097376
5980 0.00097391
5990 0.0009742
6000 0.00097476
6010 0.0009755
6020 0.00097688
6030 0.00097865
6040 0.00098031
6050 0.00098227
6060 0.0009849
6070 0.00098799
6080 0.00099134
6090 0.00099492
6100 0.0009986
6110 0.0010029
6120 0.0010075
6130 0.0010124
6140 0.0010175
6150 0.0010226
6160 0.0010282
6170 0.0010338
6180 0.0010395
6190 0.0010451
6200 0.0010507
6210 0.0010566
6220 0.0010624
6230 0.0010685
6240 0.0010745
6250 0.0010807
6260 0.0010869
6270 0.0010926
6280 0.0010985
6290 0.0011044
6300 0.0011099
6310 0.0011155
6320 0.0011209
6330 0.0011265
6340 0.0011318
6350 0.0011368
6360 0.0011415
6370 0.0011464
6380 0.0011507
6390 0.0011554
6400 0.0011599
6410 0.0011642
6420 0.0011689
6430 0.0011732
6440 0.0011776
6450 0.0011819
6460 0.001186
6470 0.0011902
6480 0.0011941
6490 0.001198
6500 0.0012017
6510 0.0012053
6520 0.001209
6530 0.0012124
6540 0.0012162
6550 0.0012198
6560 0.0012239
6570 0.0012279
6580 0.001232
6590 0.0012361
6600 0.0012404
6610 0.0012449
6620 0.0012497
6630 0.0012545
6640 0.0012595
6650 0.0012649
6660 0.0012705
6670 0.0012762
6680 0.0012824
6690 0.001289
6700 0.001296
6710 0.0013035
6720 0.0013112
6730 0.0013195
6740 0.0013279
6750 0.0013367
6760 0.001346
6770 0.0013554
6780 0.0013652
6790 0.0013752
6800 0.0013855
6810 0.0013957
6820 0.0014061
6830 0.0014162
6840 0.0014258
6850 0.0014351
6860 0.0014443
6870 0.0014528
6880 0.0014603
6890 0.0014666
6900 0.0014708
6910 0.0014716
6920 0.0014702
6930 0.001467
6940 0.0014629
6950 0.0014581
6960 0.0014525
6970 0.0014462
6980 0.0014396
6990 0.0014327
7000 0.001426
7010 0.001419
7020 0.0014122
7030 0.0014049
7040 0.0013984
7050 0.0013915
7060 0.0013852
7070 0.001379
7080 0.0013731
7090 0.0013677
7100 0.0013622
7110 0.0013571
7120 0.0013518
7130 0.0013468
7140 0.0013419
7150 0.001337
7160 0.0013318
7170 0.001327
7180 0.0013219
7190 0.001317
7200 0.0013121
7210 0.0013072
7220 0.0013022
7230 0.0012971
7240 0.0012926
7250 0.0012881
7260 0.0012834
7270 0.0012788
7280 0.001274
7290 0.0012695
7300 0.0012645
7310 0.0012593
7320 0.0012539
7330 0.0012483
7340 0.0012425
7350 0.0012365
7360 0.0012305
7370 0.0012243
7380 0.0012181
7390 0.0012117
7400 0.0012051
7410 0.0011984
7420 0.0011916
7430 0.0011845
7440 0.0011772
7450 0.0011698
7460 0.001162
7470 0.001154
7480 0.0011457
7490 0.0011376
7500 0.0011293
7510 0.0011206
7520 0.0011117
7530 0.001103
7540 0.0010939
7550 0.0010843
7560 0.0010743
7570 0.0010644
7580 0.0010546
7590 0.0010445
7600 0.0010341
7610 0.0010235
7620 0.0010126
7630 0.0010017
7640 0.00099067
7650 0.00097939
7660 0.00096804
7670 0.00095666
7680 0.00094517
7690 0.00093359
7700 0.00092193
7710 0.0009105
7720 0.00089887
7730 0.00088732
7740 0.00087595
7750 0.00086454
7760 0.00085312
7770 0.00084187
7780 0.00083071
7790 0.00081986
7800 0.00080913
7810 0.00079834
7820 0.00078789
7830 0.00077771
7840 0.00076769
7850 0.00075787
7860 0.00074825
7870 0.00073897
7880 0.00072994
7890 0.00072146
7900 0.00071322
7910 0.00070507
7920 0.0006973
7930 0.0006899
7940 0.00068245
7950 0.00067533
7960 0.00066862
7970 0.00066242
7980 0.00065661
7990 0.0006511
8000 0.00064617
8010 0.00064169
8020 0.00063752
8030 0.00063394
8040 0.00063089
8050 0.00062831
8060 0.00062607
8070 0.00062426
8080 0.00062284
8090 0.00062183
8100 0.00062115
8110 0.00062087
8120 0.00062089
8130 0.00062124
8140 0.00062185
8150 0.00062291
8160 0.00062401
8170 0.00062561
8180 0.00062694
8190 0.0006283
8200 0.0006296
8210 0.00063065
8220 0.00063137
8230 0.00063155
8240 0.00063062
8250 0.00062797
8260 0.00062369
8270 0.00061856
8280 0.00061266
8290 0.00060635
8300 0.00059987
8310 0.00059353
8320 0.00058699
8330 0.0005805
8340 0.00057416
8350 0.00056802
8360 0.00056219
8370 0.00055661
8380 0.00055138
8390 0.00054659
8400 0.00054226
8410 0.00053816
8420 0.00053425
8430 0.00053079
8440 0.00052763
8450 0.00052486
8460 0.00052252
8470 0.00052055
8480 0.00051887
8490 0.00051749
8500 0.00051635
8510 0.00051558
8520 0.00051492
8530 0.00051425
8540 0.00051396
8550 0.0005137
8560 0.00051379
8570 0.00051421
8580 0.00051476
8590 0.00051564
8600 0.00051668
8610 0.00051788
8620 0.00051927
8630 0.00052092
8640 0.00052282
8650 0.00052457
8660 0.0005266
8670 0.00052865
8680 0.00053082
8690 0.00053311
8700 0.00053557
8710 0.00053807
8720 0.00054078
8730 0.00054339
8740 0.00054612
8750 0.00054889
8760 0.00055156
8770 0.00055424
8780 0.00055693
8790 0.00055968
8800 0.0005625
8810 0.00056528
8820 0.0005681
8830 0.00057062
8840 0.00057317
8850 0.00057544
8860 0.00057763
8870 0.00057982
8880 0.00058204
8890 0.00058405
8900 0.00058605
8910 0.00058785
8920 0.00058939
8930 0.00059072
8940 0.00059189
8950 0.00059285
8960 0.00059382
8970 0.00059474
8980 0.00059532
8990 0.0005958
9000 0.00059621
9010 0.00059645
9020 0.00059626
9030 0.00059612
9040 0.00059593
9050 0.00137005
9060 0.001360299
9070 0.001350548
9080 0.001340797
9090 0.001331045
9100 0.001321294
9110 0.001311543
9120 0.001301792
9130 0.001292041
9140 0.00128229
9150 0.001272539
9160 0.001262787
9170 0.001253036
9180 0.001243285
9190 0.001233534
9200 0.001223783
9210 0.001214032
9220 0.001204281
9230 0.001194529
9240 0.001184778
9250 0.001175027
9260 0.001165276
9270 0.001155525
9280 0.001145774
9290 0.001136023
9300 0.001126271
9310 0.00111652
9320 0.001106769
9330 0.001097018
9340 0.001087267
9350 0.001077516
9360 0.001067764
9370 0.001058013
9380 0.001048262
9390 0.001038511
9400 0.00102876
9410 0.001019009
9420 0.001009258
9430 0.0009995065
9440 0.0009897553
9450 0.0009800042
9460 0.000970253
9470 0.0009605019
9480 0.0009507507
9490 0.0009409996
9500 0.0009312485
9510 0.0009214973
9520 0.0009117462
9530 0.000901995
9540 0.0008922439
9550 0.0008824927
9560 0.0008727416
9570 0.0008629904
9580 0.0008532393
9590 0.0008434881
9600 0.000833737
9610 0.0008239859
9620 0.0008142347
9630 0.0008044836
9640 0.0007947324
9650 0.0007849813
9660 0.0007752301
9670 0.000765479
9680 0.0007557278
9690 0.0007459767
9700 0.0007362255
9710 0.0007264744
9720 0.0007167233
9730 0.0007069721
9740 0.000697221
9750 0.0006874698
9760 0.0006777187
9770 0.0006679675
9780 0.0006582164
9790 0.0006484652
9800 0.0006387141
9810 0.0006289629
9820 0.0006192118
9830 0.0006094606
9840 0.0005997095
9850 0.0005899584
9860 0.0005802072
9870 0.0005704561
9880 0.0005607049
9890 0.0005509538
9900 0.0005412026
9910 0.0005314515
9920 0.0005217003
9930 0.0005119492
9940 0.000502198
9950 0.0004924469
9960 0.0004826958
9970 0.0004729446
9980 0.0004631935
9990 0.0004534423
10000 0.0004436912
10010 0.00043394
10020 0.0004241889
10030 0.0004144377
10040 0.0004046866
10050 0.0003949354
10060 0.0003851843
10070 0.0003754332
10080 0.000365682
10090 0.0003559309
10100 0.0003461797
10110 0.0003364286
10120 0.0003266774
10130 0.0003169263
10140 0.0003071751
10150 0.000297424
10160 0.0002876728
10170 0.0002779217
10180 0.0002681706
10190 0.0002584194
10200 0.0002486683
10210 0.0002389171
10220 0.000229166
10230 0.0002194148
10240 0.0002096637
10250 0.0001999125
10260 0.0001901614
10270 0.0001804102
10280 0.0001706591
10290 0.000160908
10300 0.0001511568
10310 0.0001414057
10320 0.0001316545
10330 0.0001219034
10340 0.0001121522
10350 0.0001024011
10360 9.264994e-05
10370 8.289879e-05
10380 7.314765e-05
10390 6.33965e-05
10400 5.364536e-05
10410 4.389421e-05
10420 3.414306e-05
10430 2.439192e-05
10440 1.464077e-05
10450 4.889627e-06
10460 0.0
10470 0.0
10480 0.0
10490 0.0
10500 0.0
10510 0.0
10520 0.0
10530 0.0
10540 0.0
10550 0.0
10560 0.0
10570 0.0
10580 0.0
10590 0.0
10600 0.0
10610 0.0
10620 0.0
10630 0.0
10640 0.0
10650 0.0
10660 0.0
10670 0.0
10680 0.0
10690 0.0
10700 0.0
10710 0.0
10720 0.0
10730 0.0
10740 0.0
10750 0.0
10760 0.0
10770 0.0
10780 0.0
10790 0.0
10800 0.0
10810 0.0
10820 0.0
10830 0.0
10840 0.0
10850 0.0
10860 0.0
10870 0.0
10880 0.0
10890 0.0
10900 0.0
10910 0.0
10920 0.0
10930 0.0
10940 0.0
10950 0.0
10960 0.0
10970 0.0
10980 0.0
10990 0.0
11000 0.0
11010 0.0
11020 0.0
11030 0.0
11040 0.0
11050 0.0
11060 0.0
11070 0.0
11080 0.0
11090 0.0
11100 0.0
11110 0.0
11120 0.0
11130 0.0
11140 0.0
11150 0.0
11160 0.0
11170 0.0
11180 0.0
11190 0.0
11200 0.0
11210 0.0
11220 0.0
11230 0.0
11240 0.0
11250 0.0
11260 0.0
11270 0.0
11280 0.0
11290 0.0
11300 0.0
11310 0.0
11320 0.0
11330 0.0
11340 0.0
11350 0.0
11360 0.0
11370 0.0
11380 0.0
11390 0.0
11400 0.0
11410 0.0
11420 0.0
11430 0.0
11440 0.0
11450 0.0
11460 0.0
11470 0.0
11480 0.0
11490 0.0
11500 0.0
11510 0.0
11520 0.0
11530 0.0
11540 0.0
11550 0.0
11560 0.0
11570 0.0
11580 0.0
11590 0.0
11600 0.0
11610 0.0
11620 0.0
11630 0.0
11640 0.0
11650 0.0
11660 0.0
11670 0.0
11680 0.0
11690 0.0
11700 0.0
11710 0.0
11720 0.0
11730 0.0
11740 0.0
11750 0.0
11760 0.0
11770 0.0
11780 0.0
11790 0.0
11800 0.0
11810 0.0
11820 0.0
11830 0.0
11840 0.0
11850 0.0
11860 0.0
11870 0.0
11880 0.0
11890 0.0
11900 0.0
11910 0.0
11920 0.0
11930 0.0
11940 0.0
11950 0.0
11960 0.0
11970 0.0
11980 0.0
11990 0.0
