#lamb flux
1605.0 0.00828
1610.0 0.0083
1615.0 0.00833
1620.0 0.00835
1625.0 0.00837
1630.0 0.00839
1635.0 0.00841
1640.0 0.00844
1645.0 0.00846
1650.0 0.00848
1655.0 0.00851
1660.0 0.00853
1665.0 0.00855
1670.0 0.00858
1675.0 0.0086
1680.0 0.00862
1685.0 0.00865
1690.0 0.00867
1695.0 0.0087
1700.0 0.00873
1705.0 0.00875
1710.0 0.00878
1715.0 0.0088
1720.0 0.00883
1725.0 0.00886
1730.0 0.00888
1735.0 0.00891
1740.0 0.00894
1745.0 0.00897
1750.0 0.009
1755.0 0.00903
1760.0 0.00906
1765.0 0.00909
1770.0 0.00912
1775.0 0.00915
1780.0 0.00918
1785.0 0.00921
1790.0 0.00924
1795.0 0.00927
1800.0 0.00931
1805.0 0.00934
1810.0 0.00937
1815.0 0.00941
1820.0 0.00944
1825.0 0.00948
1830.0 0.00951
1835.0 0.00954
1840.0 0.00958
1845.0 0.00961
1850.0 0.00965
1855.0 0.00969
1860.0 0.00973
1865.0 0.00977
1870.0 0.0098
1875.0 0.00984
1880.0 0.00988
1885.0 0.00992
1890.0 0.00996
1895.0 0.01
1900.0 0.01
1905.0 0.0101
1910.0 0.0101
1915.0 0.0102
1920.0 0.0102
1925.0 0.0103
1930.0 0.0103
1935.0 0.0103
1940.0 0.0104
1945.0 0.0104
1950.0 0.0105
1955.0 0.0105
1960.0 0.0106
1965.0 0.0106
1970.0 0.0107
1975.0 0.0107
1980.0 0.0108
1985.0 0.0108
1990.0 0.0109
1995.0 0.0109
2000.0 0.011
2005.0 0.011
2010.0 0.0111
2015.0 0.0112
2020.0 0.0112
2025.0 0.0113
2030.0 0.0113
2035.0 0.0114
2040.0 0.0114
2045.0 0.0115
2050.0 0.0116
2055.0 0.0116
2060.0 0.0117
2065.0 0.0118
2070.0 0.0118
2075.0 0.0119
2080.0 0.0119
2085.0 0.012
2090.0 0.0121
2095.0 0.0122
2100.0 0.0122
2105.0 0.0123
2110.0 0.0124
2115.0 0.0124
2120.0 0.0125
2125.0 0.0126
2130.0 0.0127
2135.0 0.0127
2140.0 0.0128
2145.0 0.0129
2150.0 0.013
2155.0 0.013
2160.0 0.0131
2165.0 0.0132
2170.0 0.0133
2175.0 0.0134
2180.0 0.0135
2185.0 0.0136
2190.0 0.0136
2195.0 0.0137
2200.0 0.0138
2205.0 0.0139
2210.0 0.014
2215.0 0.0141
2220.0 0.0142
2225.0 0.0143
2230.0 0.0144
2235.0 0.0145
2240.0 0.0146
2245.0 0.0147
2250.0 0.0148
2255.0 0.0149
2260.0 0.015
2265.0 0.0151
2270.0 0.0152
2275.0 0.0153
2280.0 0.0155
2285.0 0.0156
2290.0 0.0157
2295.0 0.0158
2300.0 0.0159
2305.0 0.0161
2310.0 0.0162
2315.0 0.0163
2320.0 0.0164
2325.0 0.0166
2330.0 0.0167
2335.0 0.0168
2340.0 0.017
2345.0 0.0171
2350.0 0.0172
2355.0 0.0174
2360.0 0.0175
2365.0 0.0176
2370.0 0.0178
2375.0 0.0179
2380.0 0.0181
2385.0 0.0182
2390.0 0.0184
2395.0 0.0185
2400.0 0.0187
2405.0 0.0189
2410.0 0.019
2415.0 0.0192
2420.0 0.0194
2425.0 0.0195
2430.0 0.0197
2435.0 0.0199
2440.0 0.0201
2445.0 0.0202
2450.0 0.0204
2455.0 0.0206
2460.0 0.0208
2465.0 0.021
2470.0 0.0212
2475.0 0.0213
2480.0 0.0216
2485.0 0.0218
2490.0 0.022
2495.0 0.0222
2500.0 0.0224
2505.0 0.0226
2510.0 0.0228
2515.0 0.023
2520.0 0.0232
2525.0 0.0235
2530.0 0.0237
2535.0 0.0239
2540.0 0.0242
2545.0 0.0244
2550.0 0.0246
2555.0 0.0249
2560.0 0.0251
2565.0 0.0254
2570.0 0.0257
2575.0 0.0259
2580.0 0.0262
2585.0 0.0264
2590.0 0.0267
2595.0 0.027
2600.0 0.0273
2605.0 0.0275
2610.0 0.0278
2615.0 0.0281
2620.0 0.0284
2625.0 0.0287
2630.0 0.029
2635.0 0.0293
2640.0 0.0296
2645.0 0.03
2650.0 0.0303
2655.0 0.0306
2660.0 0.0309
2665.0 0.0313
2670.0 0.0316
2675.0 0.032
2680.0 0.0323
2685.0 0.0327
2690.0 0.0331
2695.0 0.0334
2700.0 0.0338
2705.0 0.0342
2710.0 0.0345
2715.0 0.0349
2720.0 0.0354
2725.0 0.0358
2730.0 0.0362
2735.0 0.0366
2740.0 0.037
2745.0 0.0374
2750.0 0.0378
2755.0 0.0383
2760.0 0.0388
2765.0 0.0392
2770.0 0.0397
2775.0 0.0401
2780.0 0.0406
2785.0 0.0411
2790.0 0.0416
2795.0 0.0421
2800.0 0.0426
2805.0 0.0431
2810.0 0.0436
2815.0 0.0442
2820.0 0.0447
2825.0 0.0452
2830.0 0.0458
2835.0 0.0464
2840.0 0.0469
2845.0 0.0475
2850.0 0.0481
2855.0 0.0487
2860.0 0.0493
2865.0 0.0499
2870.0 0.0505
2875.0 0.0512
2880.0 0.0518
2885.0 0.0525
2890.0 0.0532
2895.0 0.0538
2900.0 0.0545
2905.0 0.0552
2910.0 0.0559
2915.0 0.0567
2920.0 0.0574
2925.0 0.0582
2930.0 0.0589
2935.0 0.0597
2940.0 0.0604
2945.0 0.0612
2950.0 0.062
2955.0 0.0628
2960.0 0.0636
2965.0 0.0645
2970.0 0.0653
2975.0 0.0662
2980.0 0.0671
2985.0 0.068
2990.0 0.0689
2995.0 0.0698
3000.0 0.0708
3005.0 0.0718
3010.0 0.0727
3015.0 0.0737
3020.0 0.0748
3025.0 0.0758
3030.0 0.0768
3035.0 0.0779
3040.0 0.079
3045.0 0.0801
3050.0 0.0812
3055.0 0.0823
3060.0 0.0835
3065.0 0.0847
3070.0 0.0859
3075.0 0.0871
3080.0 0.0883
3085.0 0.0895
3090.0 0.0908
3095.0 0.0921
3100.0 0.0934
3105.0 0.0947
3110.0 0.096
3115.0 0.0974
3120.0 0.0987
3125.0 0.1
3130.0 0.101
3135.0 0.103
3140.0 0.104
3145.0 0.106
3150.0 0.107
3155.0 0.108
3160.0 0.11
3165.0 0.111
3170.0 0.112
3175.0 0.113
3180.0 0.115
3185.0 0.116
3190.0 0.117
3195.0 0.118
3200.0 0.119
3205.0 0.12
3210.0 0.121
3215.0 0.121
3220.0 0.122
3225.0 0.123
3230.0 0.123
3235.0 0.124
3240.0 0.124
3245.0 0.125
3250.0 0.125
3255.0 0.125
3260.0 0.126
3265.0 0.126
3270.0 0.126
3275.0 0.127
3280.0 0.127
3285.0 0.127
3290.0 0.127
3295.0 0.128
3300.0 0.128
3305.0 0.129
3310.0 0.129
3315.0 0.129
3320.0 0.13
3325.0 0.131
3330.0 0.131
3335.0 0.132
3340.0 0.133
3345.0 0.134
3350.0 0.135
3355.0 0.136
3360.0 0.137
3365.0 0.138
3370.0 0.139
3375.0 0.141
3380.0 0.142
3385.0 0.144
3390.0 0.145
3395.0 0.147
3400.0 0.149
3405.0 0.15
3410.0 0.152
3415.0 0.154
3420.0 0.144
3425.0 0.145
3430.0 0.145
3435.0 0.147
3440.0 0.151
3445.0 0.155
3450.0 0.159
3455.0 0.167
3460.0 0.173
3465.0 0.179
3470.0 0.184
3475.0 0.187
3480.0 0.189
3485.0 0.192
3490.0 0.191
3495.0 0.187
3500.0 0.184
3505.0 0.176
3510.0 0.176
3515.0 0.173
3520.0 0.173
3525.0 0.172
3530.0 0.17
3535.0 0.167
3540.0 0.168
3545.0 0.165
3550.0 0.166
3555.0 0.162
3560.0 0.161
3565.0 0.163
3570.0 0.162
3575.0 0.159
3580.0 0.158
3585.0 0.158
3590.0 0.158
3595.0 0.158
3600.0 0.16
3605.0 0.161
3610.0 0.162
3615.0 0.163
3620.0 0.165
3625.0 0.168
3630.0 0.17
3635.0 0.171
3640.0 0.171
3645.0 0.172
3650.0 0.17
3655.0 0.172
3660.0 0.173
3665.0 0.174
3670.0 0.172
3675.0 0.175
3680.0 0.178
3685.0 0.183
3690.0 0.183
3695.0 0.182
3700.0 0.179
3705.0 0.18
3710.0 0.178
3715.0 0.175
3720.0 0.168
3725.0 0.162
3730.0 0.154
3735.0 0.146
3740.0 0.135
3745.0 0.126
3750.0 0.117
3755.0 0.108
3760.0 0.0994
3765.0 0.0932
3770.0 0.0882
3775.0 0.0818
3780.0 0.0771
3785.0 0.0736
3790.0 0.0716
3795.0 0.0687
3800.0 0.0667
3805.0 0.0677
3810.0 0.0678
3815.0 0.0682
3820.0 0.0725
3825.0 0.0775
3830.0 0.0848
3835.0 0.0907
3840.0 0.0946
3845.0 0.0987
3850.0 0.105
3855.0 0.111
3860.0 0.119
3865.0 0.127
3870.0 0.135
3875.0 0.142
3880.0 0.15
3885.0 0.157
3890.0 0.166
3895.0 0.175
3900.0 0.184
3905.0 0.192
3910.0 0.201
3915.0 0.209
3920.0 0.214
3925.0 0.218
3930.0 0.222
3935.0 0.224
3940.0 0.225
3945.0 0.224
3950.0 0.224
3955.0 0.222
3960.0 0.222
3965.0 0.22
3970.0 0.22
3975.0 0.223
3980.0 0.226
3985.0 0.226
3990.0 0.226
3995.0 0.226
4000.0 0.225
4005.0 0.223
4010.0 0.221
4015.0 0.216
4020.0 0.212
4025.0 0.206
4030.0 0.202
4035.0 0.196
4040.0 0.191
4045.0 0.185
4050.0 0.181
4055.0 0.178
4060.0 0.176
4065.0 0.174
4070.0 0.172
4075.0 0.172
4080.0 0.169
4085.0 0.168
4090.0 0.167
4095.0 0.166
4100.0 0.165
4105.0 0.164
4110.0 0.16
4115.0 0.159
4120.0 0.159
4125.0 0.158
4130.0 0.157
4135.0 0.157
4140.0 0.157
4145.0 0.159
4150.0 0.16
4155.0 0.161
4160.0 0.162
4165.0 0.163
4170.0 0.165
4175.0 0.166
4180.0 0.167
4185.0 0.166
4190.0 0.165
4195.0 0.165
4200.0 0.165
4205.0 0.165
4210.0 0.164
4215.0 0.164
4220.0 0.164
4225.0 0.163
4230.0 0.163
4235.0 0.165
4240.0 0.164
4245.0 0.164
4250.0 0.166
4255.0 0.166
4260.0 0.166
4265.0 0.167
4270.0 0.166
4275.0 0.165
4280.0 0.164
4285.0 0.163
4290.0 0.162
4295.0 0.162
4300.0 0.161
4305.0 0.16
4310.0 0.16
4315.0 0.161
4320.0 0.16
4325.0 0.16
4330.0 0.159
4335.0 0.157
4340.0 0.155
4345.0 0.151
4350.0 0.146
4355.0 0.141
4360.0 0.136
4365.0 0.131
4370.0 0.125
4375.0 0.119
4380.0 0.114
4385.0 0.109
4390.0 0.106
4395.0 0.104
4400.0 0.103
4405.0 0.101
4410.0 0.102
4415.0 0.103
4420.0 0.105
4425.0 0.106
4430.0 0.109
4435.0 0.111
4440.0 0.112
4445.0 0.115
4450.0 0.117
4455.0 0.119
4460.0 0.121
4465.0 0.124
4470.0 0.127
4475.0 0.131
4480.0 0.134
4485.0 0.138
4490.0 0.141
4495.0 0.145
4500.0 0.147
4505.0 0.15
4510.0 0.153
4515.0 0.156
4520.0 0.158
4525.0 0.16
4530.0 0.163
4535.0 0.166
4540.0 0.169
4545.0 0.171
4550.0 0.173
4555.0 0.175
4560.0 0.176
4565.0 0.177
4570.0 0.177
4575.0 0.177
4580.0 0.177
4585.0 0.177
4590.0 0.176
4595.0 0.174
4600.0 0.172
4605.0 0.169
4610.0 0.168
4615.0 0.166
4620.0 0.165
4625.0 0.163
4630.0 0.164
4635.0 0.164
4640.0 0.164
4645.0 0.165
4650.0 0.165
4655.0 0.165
4660.0 0.165
4665.0 0.166
4670.0 0.165
4675.0 0.164
4680.0 0.164
4685.0 0.163
4690.0 0.162
4695.0 0.16
4700.0 0.158
4705.0 0.156
4710.0 0.153
4715.0 0.15
4720.0 0.147
4725.0 0.145
4730.0 0.142
4735.0 0.139
4740.0 0.135
4745.0 0.131
4750.0 0.127
4755.0 0.122
4760.0 0.117
4765.0 0.112
4770.0 0.107
4775.0 0.102
4780.0 0.0977
4785.0 0.0944
4790.0 0.0913
4795.0 0.0893
4800.0 0.0885
4805.0 0.089
4810.0 0.0894
4815.0 0.0899
4820.0 0.0914
4825.0 0.0934
4830.0 0.0941
4835.0 0.0947
4840.0 0.0951
4845.0 0.0947
4850.0 0.0941
4855.0 0.0933
4860.0 0.0918
4865.0 0.0899
4870.0 0.0897
4875.0 0.0891
4880.0 0.0882
4885.0 0.0875
4890.0 0.0875
4895.0 0.088
4900.0 0.0891
4905.0 0.0912
4910.0 0.0935
4915.0 0.096
4920.0 0.0998
4925.0 0.103
4930.0 0.107
4935.0 0.11
4940.0 0.115
4945.0 0.119
4950.0 0.122
4955.0 0.124
4960.0 0.126
4965.0 0.128
4970.0 0.128
4975.0 0.127
4980.0 0.125
4985.0 0.122
4990.0 0.117
4995.0 0.112
5000.0 0.107
5005.0 0.101
5010.0 0.0962
5015.0 0.0925
5020.0 0.0888
5025.0 0.0858
5030.0 0.0839
5035.0 0.083
5040.0 0.0824
5045.0 0.0828
5050.0 0.0841
5055.0 0.0859
5060.0 0.0876
5065.0 0.0901
5070.0 0.0928
5075.0 0.095
5080.0 0.0977
5085.0 0.101
5090.0 0.103
5095.0 0.105
5100.0 0.107
5105.0 0.109
5110.0 0.11
5115.0 0.112
5120.0 0.113
5125.0 0.112
5130.0 0.113
5135.0 0.113
5140.0 0.112
5145.0 0.112
5150.0 0.111
5155.0 0.111
5160.0 0.111
5165.0 0.111
5170.0 0.111
5175.0 0.112
5180.0 0.113
5185.0 0.113
5190.0 0.114
5195.0 0.115
5200.0 0.116
5205.0 0.118
5210.0 0.119
5215.0 0.121
5220.0 0.121
5225.0 0.123
5230.0 0.124
5235.0 0.125
5240.0 0.126
5245.0 0.126
5250.0 0.127
5255.0 0.128
5260.0 0.128
5265.0 0.129
5270.0 0.129
5275.0 0.129
5280.0 0.13
5285.0 0.129
5290.0 0.129
5295.0 0.129
5300.0 0.129
5305.0 0.128
5310.0 0.128
5315.0 0.127
5320.0 0.126
5325.0 0.126
5330.0 0.124
5335.0 0.123
5340.0 0.122
5345.0 0.12
5350.0 0.119
5355.0 0.118
5360.0 0.116
5365.0 0.115
5370.0 0.113
5375.0 0.112
5380.0 0.111
5385.0 0.109
5390.0 0.107
5395.0 0.106
5400.0 0.105
5405.0 0.104
5410.0 0.104
5415.0 0.103
5420.0 0.104
5425.0 0.104
5430.0 0.105
5435.0 0.106
5440.0 0.106
5445.0 0.107
5450.0 0.107
5455.0 0.107
5460.0 0.107
5465.0 0.107
5470.0 0.106
5475.0 0.105
5480.0 0.104
5485.0 0.103
5490.0 0.103
5495.0 0.102
5500.0 0.101
5505.0 0.1
5510.0 0.0998
5515.0 0.0992
5520.0 0.099
5525.0 0.0983
5530.0 0.0979
5535.0 0.0971
5540.0 0.0962
5545.0 0.0955
5550.0 0.0948
5555.0 0.0939
5560.0 0.0925
5565.0 0.0915
5570.0 0.0912
5575.0 0.0905
5580.0 0.0898
5585.0 0.089
5590.0 0.0889
5595.0 0.0888
5600.0 0.0886
5605.0 0.0886
5610.0 0.0885
5615.0 0.0886
5620.0 0.0886
5625.0 0.0883
5630.0 0.088
5635.0 0.0877
5640.0 0.087
5645.0 0.0866
5650.0 0.0862
5655.0 0.0858
5660.0 0.0849
5665.0 0.084
5670.0 0.0826
5675.0 0.0812
5680.0 0.0795
5685.0 0.0777
5690.0 0.0756
5695.0 0.0737
5700.0 0.0709
5705.0 0.068
5710.0 0.0653
5715.0 0.0628
5720.0 0.0607
5725.0 0.0586
5730.0 0.0577
5735.0 0.0577
5740.0 0.0581
5745.0 0.0588
5750.0 0.0602
5755.0 0.0619
5760.0 0.0647
5765.0 0.0676
5770.0 0.0713
5775.0 0.0747
5780.0 0.0778
5785.0 0.0813
5790.0 0.0849
5795.0 0.088
5800.0 0.0913
5805.0 0.0942
5810.0 0.097
5815.0 0.0989
5820.0 0.101
5825.0 0.103
5830.0 0.105
5835.0 0.106
5840.0 0.107
5845.0 0.107
5850.0 0.107
5855.0 0.105
5860.0 0.104
5865.0 0.103
5870.0 0.102
5875.0 0.102
5880.0 0.102
5885.0 0.101
5890.0 0.0999
5895.0 0.0994
5900.0 0.0989
5905.0 0.0984
5910.0 0.0979
5915.0 0.0975
5920.0 0.0968
5925.0 0.0959
5930.0 0.0949
5935.0 0.0934
5940.0 0.092
5945.0 0.0904
5950.0 0.0884
5955.0 0.0867
5960.0 0.085
5965.0 0.084
5970.0 0.0833
5975.0 0.0828
5980.0 0.082
5985.0 0.0816
5990.0 0.0813
5995.0 0.081
6000.0 0.0799
6005.0 0.0797
6010.0 0.079
6015.0 0.0787
6020.0 0.0782
6025.0 0.0778
6030.0 0.0774
6035.0 0.0767
6040.0 0.0764
6045.0 0.0761
6050.0 0.0756
6055.0 0.0749
6060.0 0.0744
6065.0 0.0743
6070.0 0.0741
6075.0 0.074
6080.0 0.0738
6085.0 0.0738
6090.0 0.0733
6095.0 0.0731
6100.0 0.0727
6105.0 0.072
6110.0 0.0715
6115.0 0.0713
6120.0 0.0705
6125.0 0.0701
6130.0 0.0701
6135.0 0.0699
6140.0 0.07
6145.0 0.0695
6150.0 0.0691
6155.0 0.0685
6160.0 0.0677
6165.0 0.0671
6170.0 0.0663
6175.0 0.0653
6180.0 0.064
6185.0 0.0628
6190.0 0.062
6195.0 0.0607
6200.0 0.059
6205.0 0.0579
6210.0 0.0569
6215.0 0.0559
6220.0 0.0554
6225.0 0.0547
6230.0 0.0544
6235.0 0.0543
6240.0 0.0539
6245.0 0.0537
6250.0 0.0536
6255.0 0.0539
6260.0 0.0533
6265.0 0.0532
6270.0 0.0539
6275.0 0.0547
6280.0 0.0552
6285.0 0.0561
6290.0 0.0564
6295.0 0.0573
6300.0 0.0584
6305.0 0.0596
6310.0 0.0607
6315.0 0.0618
6320.0 0.0625
6325.0 0.0632
6330.0 0.0642
6335.0 0.0648
6340.0 0.0654
6345.0 0.0653
6350.0 0.066
6355.0 0.0662
6360.0 0.0657
6365.0 0.0656
6370.0 0.0655
6375.0 0.0655
6380.0 0.0652
6385.0 0.065
6390.0 0.0647
6395.0 0.0648
6400.0 0.0646
6405.0 0.064
6410.0 0.0642
6415.0 0.0645
6420.0 0.064
6425.0 0.0638
6430.0 0.0637
6435.0 0.0632
6440.0 0.0632
6445.0 0.0631
6450.0 0.0629
6455.0 0.0623
6460.0 0.0618
6465.0 0.0608
6470.0 0.06
6475.0 0.059
6480.0 0.0578
6485.0 0.0569
6490.0 0.0557
6495.0 0.0547
6500.0 0.0535
6505.0 0.052
6510.0 0.051
6515.0 0.0498
6520.0 0.049
6525.0 0.0483
6530.0 0.0481
6535.0 0.0477
6540.0 0.0483
6545.0 0.0487
6550.0 0.0496
6555.0 0.0507
6560.0 0.0521
6565.0 0.053
6570.0 0.0545
6575.0 0.0558
6580.0 0.057
6585.0 0.0585
6590.0 0.0598
6595.0 0.0612
6600.0 0.0624
6605.0 0.0638
6610.0 0.0648
6615.0 0.0656
6620.0 0.0663
6625.0 0.0671
6630.0 0.0673
6635.0 0.0675
6640.0 0.0681
6645.0 0.0681
6650.0 0.0684
6655.0 0.0684
6660.0 0.0681
6665.0 0.068
6670.0 0.0679
6675.0 0.0676
6680.0 0.0673
6685.0 0.067
6690.0 0.0667
6695.0 0.0666
6700.0 0.0665
6705.0 0.0664
6710.0 0.066
6715.0 0.0651
6720.0 0.0646
6725.0 0.064
6730.0 0.0633
6735.0 0.0629
6740.0 0.0623
6745.0 0.0616
6750.0 0.0613
6755.0 0.0606
6760.0 0.0604
6765.0 0.0604
6770.0 0.0603
6775.0 0.0595
6780.0 0.059
6785.0 0.0589
6790.0 0.0581
6795.0 0.058
6800.0 0.0577
6805.0 0.0572
6810.0 0.0569
6815.0 0.0567
6820.0 0.0563
6825.0 0.0559
6830.0 0.056
6835.0 0.0561
6840.0 0.0562
6845.0 0.0563
6850.0 0.0562
6855.0 0.0559
6860.0 0.0554
6865.0 0.0552
6870.0 0.0547
6875.0 0.0541
6880.0 0.0538
6885.0 0.0528
6890.0 0.0515
6895.0 0.0505
6900.0 0.0497
6905.0 0.0494
6910.0 0.0492
6915.0 0.0488
6920.0 0.0485
6925.0 0.0487
6930.0 0.0487
6935.0 0.0495
6940.0 0.0507
6945.0 0.0518
6950.0 0.0532
6955.0 0.0547
6960.0 0.0563
6965.0 0.0576
6970.0 0.059
6975.0 0.0605
6980.0 0.0619
6985.0 0.0629
6990.0 0.0638
6995.0 0.0643
7000.0 0.0644
7005.0 0.0644
7010.0 0.0641
7015.0 0.0636
7020.0 0.0633
7025.0 0.0629
7030.0 0.0621
7035.0 0.0612
7040.0 0.0609
7045.0 0.0606
7050.0 0.06
7055.0 0.0599
7060.0 0.0596
7065.0 0.0596
7070.0 0.0591
7075.0 0.0587
7080.0 0.0585
7085.0 0.0577
7090.0 0.0572
7095.0 0.0569
7100.0 0.0562
7105.0 0.0558
7110.0 0.0549
7115.0 0.0539
7120.0 0.0535
7125.0 0.0527
7130.0 0.0523
7135.0 0.052
7140.0 0.0525
7145.0 0.0527
7150.0 0.0533
7155.0 0.0534
7160.0 0.0535
7165.0 0.0537
7170.0 0.054
7175.0 0.0543
7180.0 0.0543
7185.0 0.0546
7190.0 0.0549
7195.0 0.0555
7200.0 0.0557
7205.0 0.0564
7210.0 0.057
7215.0 0.0573
7220.0 0.0581
7225.0 0.0583
7230.0 0.0584
7235.0 0.0589
7240.0 0.0592
7245.0 0.0594
7250.0 0.0596
7255.0 0.0592
7260.0 0.0587
7265.0 0.0585
7270.0 0.0576
7275.0 0.0559
7280.0 0.0498
7285.0 0.0468
7290.0 0.0464
7295.0 0.0461
7300.0 0.0457
7305.0 0.0453
7310.0 0.0449
7315.0 0.0445
7320.0 0.0441
7325.0 0.0436
7330.0 0.0432
7335.0 0.0428
7340.0 0.0424
7345.0 0.042
7350.0 0.0416
7355.0 0.0413
7360.0 0.0409
7365.0 0.0406
7370.0 0.0403
7375.0 0.04
7380.0 0.0398
7385.0 0.0396
7390.0 0.0394
7395.0 0.0392
7400.0 0.039
7405.0 0.0389
7410.0 0.0387
7415.0 0.0386
7420.0 0.0384
7425.0 0.0383
7430.0 0.0381
7435.0 0.038
7440.0 0.0379
7445.0 0.0377
7450.0 0.0376
7455.0 0.0374
7460.0 0.0373
7465.0 0.0372
7470.0 0.037
7475.0 0.0369
7480.0 0.0368
7485.0 0.0367
7490.0 0.0366
7495.0 0.0365
7500.0 0.0364
7505.0 0.0364
7510.0 0.0364
7515.0 0.0363
7520.0 0.0363
7525.0 0.0363
7530.0 0.0364
7535.0 0.0364
7540.0 0.0364
7545.0 0.0365
7550.0 0.0365
7555.0 0.0365
7560.0 0.0366
7565.0 0.0366
7570.0 0.0366
7575.0 0.0367
7580.0 0.0367
7585.0 0.0367
7590.0 0.0367
7595.0 0.0367
7600.0 0.0367
7605.0 0.0366
7610.0 0.0366
7615.0 0.0366
7620.0 0.0365
7625.0 0.0365
7630.0 0.0364
7635.0 0.0363
7640.0 0.0363
7645.0 0.0362
7650.0 0.0362
7655.0 0.0361
7660.0 0.0361
7665.0 0.036
7670.0 0.036
7675.0 0.036
7680.0 0.0359
7685.0 0.0359
7690.0 0.0359
7695.0 0.0359
7700.0 0.0359
7705.0 0.0359
7710.0 0.0359
7715.0 0.036
7720.0 0.036
7725.0 0.036
7730.0 0.0361
7735.0 0.0361
7740.0 0.0362
7745.0 0.0362
7750.0 0.0363
7755.0 0.0364
7760.0 0.0364
7765.0 0.0365
7770.0 0.0366
7775.0 0.0366
7780.0 0.0367
7785.0 0.0368
7790.0 0.0369
7795.0 0.037
7800.0 0.037
7805.0 0.0371
7810.0 0.0371
7815.0 0.0372
7820.0 0.0372
7825.0 0.0373
7830.0 0.0373
7835.0 0.0373
7840.0 0.0374
7845.0 0.0374
7850.0 0.0374
7855.0 0.0373
7860.0 0.0373
7865.0 0.0373
7870.0 0.0373
7875.0 0.0372
7880.0 0.0372
7885.0 0.0371
7890.0 0.037
7895.0 0.037
7900.0 0.0369
7905.0 0.0368
7910.0 0.0367
7915.0 0.0366
7920.0 0.0365
7925.0 0.0363
7930.0 0.0362
7935.0 0.036
7940.0 0.0359
7945.0 0.0357
7950.0 0.0356
7955.0 0.0354
7960.0 0.0352
7965.0 0.035
7970.0 0.0348
7975.0 0.0346
7980.0 0.0344
7985.0 0.0343
7990.0 0.0341
7995.0 0.0339
8000.0 0.0337
8005.0 0.0335
8010.0 0.0333
8015.0 0.0332
8020.0 0.033
8025.0 0.0328
8030.0 0.0327
8035.0 0.0325
8040.0 0.0324
8045.0 0.0322
8050.0 0.0321
8055.0 0.032
8060.0 0.0318
8065.0 0.0317
8070.0 0.0316
8075.0 0.0315
8080.0 0.0313
8085.0 0.0312
8090.0 0.0311
8095.0 0.031
8100.0 0.0308
8105.0 0.0307
8110.0 0.0306
8115.0 0.0304
8120.0 0.0303
8125.0 0.0301
8130.0 0.03
8135.0 0.0298
8140.0 0.0297
8145.0 0.0295
8150.0 0.0293
8155.0 0.0291
8160.0 0.0289
8165.0 0.0287
8170.0 0.0285
8175.0 0.0282
8180.0 0.028
8185.0 0.0277
8190.0 0.0275
8195.0 0.0272
8200.0 0.0269
8205.0 0.0267
8210.0 0.0264
8215.0 0.0261
8220.0 0.0258
8225.0 0.0255
8230.0 0.0252
8235.0 0.0249
8240.0 0.0247
8245.0 0.0244
8250.0 0.0241
8255.0 0.0238
8260.0 0.0236
8265.0 0.0233
8270.0 0.0231
8275.0 0.0229
8280.0 0.0226
8285.0 0.0224
8290.0 0.0223
8295.0 0.0221
8300.0 0.0219
8305.0 0.0218
8310.0 0.0217
8315.0 0.0216
8320.0 0.0215
8325.0 0.0215
8330.0 0.0214
8335.0 0.0214
8340.0 0.0214
8345.0 0.0214
8350.0 0.0214
8355.0 0.0215
8360.0 0.0215
8365.0 0.0216
8370.0 0.0217
8375.0 0.0218
8380.0 0.022
8385.0 0.0221
8390.0 0.0223
8395.0 0.0225
8400.0 0.0227
8405.0 0.0229
8410.0 0.0231
8415.0 0.0233
8420.0 0.0235
8425.0 0.0238
8430.0 0.024
8435.0 0.0243
8440.0 0.0245
8445.0 0.0248
8450.0 0.0251
8455.0 0.0253
8460.0 0.0256
8465.0 0.0259
8470.0 0.0262
8475.0 0.0265
8480.0 0.0268
8485.0 0.027
8490.0 0.0273
8495.0 0.0276
8500.0 0.0279
8505.0 0.0282
8510.0 0.0284
8515.0 0.0287
8520.0 0.0289
8525.0 0.0292
8530.0 0.0294
8535.0 0.0296
8540.0 0.0299
8545.0 0.0301
8550.0 0.0303
8555.0 0.0304
8560.0 0.0306
8565.0 0.0307
8570.0 0.0309
8575.0 0.031
8580.0 0.0311
8585.0 0.0312
8590.0 0.0312
8595.0 0.0313
8600.0 0.0313
8605.0 0.0313
8610.0 0.0313
8615.0 0.0313
8620.0 0.0313
8625.0 0.0313
8630.0 0.0312
8635.0 0.0311
8640.0 0.0311
8645.0 0.031
8650.0 0.0309
8655.0 0.0308
8660.0 0.0307
8665.0 0.0306
8670.0 0.0304
8675.0 0.0303
8680.0 0.0302
8685.0 0.03
8690.0 0.0299
8695.0 0.0298
8700.0 0.0296
8705.0 0.0295
8710.0 0.0293
8715.0 0.0291
8720.0 0.029
8725.0 0.0288
8730.0 0.0286
8735.0 0.0285
8740.0 0.0283
8745.0 0.0281
8750.0 0.0279
8755.0 0.0277
8760.0 0.0276
8765.0 0.0274
8770.0 0.0272
8775.0 0.027
8780.0 0.0268
8785.0 0.0267
8790.0 0.0265
8795.0 0.0263
8800.0 0.0261
8805.0 0.026
8810.0 0.0258
8815.0 0.0256
8820.0 0.0255
8825.0 0.0253
8830.0 0.0252
8835.0 0.025
8840.0 0.0249
8845.0 0.0248
8850.0 0.0247
8855.0 0.0245
8860.0 0.0244
8865.0 0.0243
8870.0 0.0242
8875.0 0.024
8880.0 0.024
8885.0 0.0239
8890.0 0.0238
8895.0 0.0237
8900.0 0.0236
8905.0 0.0235
8910.0 0.0234
8915.0 0.0234
8920.0 0.0233
8925.0 0.0233
