#lamb flux
1605.0 5.83e-05
1610.0 5.85e-05
1615.0 5.86e-05
1620.0 5.88e-05
1625.0 5.9e-05
1630.0 5.91e-05
1635.0 5.93e-05
1640.0 5.95e-05
1645.0 5.96e-05
1650.0 5.98e-05
1655.0 6e-05
1660.0 6.01e-05
1665.0 6.03e-05
1670.0 6.05e-05
1675.0 6.07e-05
1680.0 6.08e-05
1685.0 6.1e-05
1690.0 6.12e-05
1695.0 6.14e-05
1700.0 6.16e-05
1705.0 6.17e-05
1710.0 6.19e-05
1715.0 6.21e-05
1720.0 6.23e-05
1725.0 6.25e-05
1730.0 6.27e-05
1735.0 6.28e-05
1740.0 6.3e-05
1745.0 6.32e-05
1750.0 6.34e-05
1755.0 6.36e-05
1760.0 6.38e-05
1765.0 6.4e-05
1770.0 6.42e-05
1775.0 6.44e-05
1780.0 6.46e-05
1785.0 6.47e-05
1790.0 6.49e-05
1795.0 6.51e-05
1800.0 6.53e-05
1805.0 6.55e-05
1810.0 6.57e-05
1815.0 6.59e-05
1820.0 6.61e-05
1825.0 6.63e-05
1830.0 6.65e-05
1835.0 6.68e-05
1840.0 6.7e-05
1845.0 6.72e-05
1850.0 6.74e-05
1855.0 6.76e-05
1860.0 6.78e-05
1865.0 6.8e-05
1870.0 6.82e-05
1875.0 6.85e-05
1880.0 6.87e-05
1885.0 6.89e-05
1890.0 6.91e-05
1895.0 6.94e-05
1900.0 6.96e-05
1905.0 6.98e-05
1910.0 7e-05
1915.0 7.03e-05
1920.0 7.05e-05
1925.0 7.07e-05
1930.0 7.09e-05
1935.0 7.12e-05
1940.0 7.14e-05
1945.0 7.16e-05
1950.0 7.19e-05
1955.0 7.21e-05
1960.0 7.23e-05
1965.0 7.26e-05
1970.0 7.28e-05
1975.0 7.31e-05
1980.0 7.33e-05
1985.0 7.36e-05
1990.0 7.38e-05
1995.0 7.41e-05
2000.0 7.43e-05
2005.0 7.46e-05
2010.0 7.48e-05
2015.0 7.51e-05
2020.0 7.53e-05
2025.0 7.56e-05
2030.0 7.58e-05
2035.0 7.61e-05
2040.0 7.64e-05
2045.0 7.67e-05
2050.0 7.69e-05
2055.0 7.72e-05
2060.0 7.75e-05
2065.0 7.77e-05
2070.0 7.8e-05
2075.0 7.83e-05
2080.0 7.85e-05
2085.0 7.88e-05
2090.0 7.91e-05
2095.0 7.94e-05
2100.0 7.97e-05
2105.0 7.99e-05
2110.0 8.02e-05
2115.0 8.05e-05
2120.0 8.08e-05
2125.0 8.11e-05
2130.0 8.14e-05
2135.0 8.17e-05
2140.0 8.2e-05
2145.0 8.23e-05
2150.0 8.26e-05
2155.0 8.29e-05
2160.0 8.32e-05
2165.0 8.35e-05
2170.0 8.38e-05
2175.0 8.41e-05
2180.0 8.44e-05
2185.0 8.47e-05
2190.0 8.5e-05
2195.0 8.54e-05
2200.0 8.57e-05
2205.0 8.6e-05
2210.0 8.63e-05
2215.0 8.67e-05
2220.0 8.7e-05
2225.0 8.73e-05
2230.0 8.77e-05
2235.0 8.8e-05
2240.0 8.83e-05
2245.0 8.87e-05
2250.0 8.9e-05
2255.0 8.94e-05
2260.0 8.97e-05
2265.0 9e-05
2270.0 9.04e-05
2275.0 9.07e-05
2280.0 9.11e-05
2285.0 9.15e-05
2290.0 9.18e-05
2295.0 9.22e-05
2300.0 9.25e-05
2305.0 9.29e-05
2310.0 9.33e-05
2315.0 9.36e-05
2320.0 9.4e-05
2325.0 9.44e-05
2330.0 9.48e-05
2335.0 9.52e-05
2340.0 9.55e-05
2345.0 9.59e-05
2350.0 9.63e-05
2355.0 9.67e-05
2360.0 9.71e-05
2365.0 9.75e-05
2370.0 9.79e-05
2375.0 9.83e-05
2380.0 9.87e-05
2385.0 9.91e-05
2390.0 9.95e-05
2395.0 9.99e-05
2400.0 0.0001
2405.0 0.000101
2410.0 0.000101
2415.0 0.000102
2420.0 0.000102
2425.0 0.000102
2430.0 0.000103
2435.0 0.000103
2440.0 0.000104
2445.0 0.000104
2450.0 0.000105
2455.0 0.000105
2460.0 0.000105
2465.0 0.000106
2470.0 0.000106
2475.0 0.000107
2480.0 0.000107
2485.0 0.000108
2490.0 0.000108
2495.0 0.000109
2500.0 0.000109
2505.0 0.00011
2510.0 0.00011
2515.0 0.000111
2520.0 0.000111
2525.0 0.000112
2530.0 0.000112
2535.0 0.000113
2540.0 0.000113
2545.0 0.000114
2550.0 0.000114
2555.0 0.000115
2560.0 0.000115
2565.0 0.000116
2570.0 0.000116
2575.0 0.000117
2580.0 0.000117
2585.0 0.000118
2590.0 0.000118
2595.0 0.000119
2600.0 0.000119
2605.0 0.00012
2610.0 0.00012
2615.0 0.000121
2620.0 0.000121
2625.0 0.000122
2630.0 0.000123
2635.0 0.000123
2640.0 0.000124
2645.0 0.000124
2650.0 0.000125
2655.0 0.000126
2660.0 0.000126
2665.0 0.000127
2670.0 0.000127
2675.0 0.000128
2680.0 0.000128
2685.0 0.000129
2690.0 0.00013
2695.0 0.00013
2700.0 0.000131
2705.0 0.000132
2710.0 0.000132
2715.0 0.000133
2720.0 0.000133
2725.0 0.000134
2730.0 0.000135
2735.0 0.000135
2740.0 0.000136
2745.0 0.000137
2750.0 0.000137
2755.0 0.000138
2760.0 0.000139
2765.0 0.000139
2770.0 0.00014
2775.0 0.000141
2780.0 0.000142
2785.0 0.000142
2790.0 0.000143
2795.0 0.000144
2800.0 0.000144
2805.0 0.000145
2810.0 0.000146
2815.0 0.000147
2820.0 0.000147
2825.0 0.000148
2830.0 0.000149
2835.0 0.00015
2840.0 0.00015
2845.0 0.000151
2850.0 0.000152
2855.0 0.000153
2860.0 0.000153
2865.0 0.000154
2870.0 0.000155
2875.0 0.000156
2880.0 0.000157
2885.0 0.000157
2890.0 0.000158
2895.0 0.000159
2900.0 0.00016
2905.0 0.000161
2910.0 0.000162
2915.0 0.000162
2920.0 0.000163
2925.0 0.000164
2930.0 0.000165
2935.0 0.000166
2940.0 0.000167
2945.0 0.000168
2950.0 0.000169
2955.0 0.00017
2960.0 0.00017
2965.0 0.000171
2970.0 0.000172
2975.0 0.000173
2980.0 0.000174
2985.0 0.000175
2990.0 0.000176
2995.0 0.000177
3000.0 0.000178
3005.0 0.000179
3010.0 0.00018
3015.0 0.000181
3020.0 0.000182
3025.0 0.000183
3030.0 0.000184
3035.0 0.000185
3040.0 0.000186
3045.0 0.000187
3050.0 0.000188
3055.0 0.000189
3060.0 0.00019
3065.0 0.000191
3070.0 0.000192
3075.0 0.000194
3080.0 0.000195
3085.0 0.000196
3090.0 0.000197
3095.0 0.000198
3100.0 0.000199
3105.0 0.0002
3110.0 0.000201
3115.0 0.000203
3120.0 0.000204
3125.0 0.000205
3130.0 0.000206
3135.0 0.000207
3140.0 0.000209
3145.0 0.00021
3150.0 0.000211
3155.0 0.000212
3160.0 0.000214
3165.0 0.000215
3170.0 0.000216
3175.0 0.000217
3180.0 0.000219
3185.0 0.00022
3190.0 0.000221
3195.0 0.000223
3200.0 0.000224
3205.0 0.000226
3210.0 0.000227
3215.0 0.000228
3220.0 0.00023
3225.0 0.000231
3230.0 0.000233
3235.0 0.000234
3240.0 0.000235
3245.0 0.000237
3250.0 0.000238
3255.0 0.00024
3260.0 0.000241
3265.0 0.000243
3270.0 0.000244
3275.0 0.000246
3280.0 0.000247
3285.0 0.000249
3290.0 0.000251
3295.0 0.000252
3300.0 0.000254
3305.0 0.000255
3310.0 0.000257
3315.0 0.000259
3320.0 0.00026
3325.0 0.000262
3330.0 0.000264
3335.0 0.000265
3340.0 0.000267
3345.0 0.000269
3350.0 0.000271
3355.0 0.000272
3360.0 0.000274
3365.0 0.000276
3370.0 0.000278
3375.0 0.00028
3380.0 0.000282
3385.0 0.000283
3390.0 0.000285
3395.0 0.000287
3400.0 0.000289
3405.0 0.000291
3410.0 0.000293
3415.0 0.000295
3420.0 0.000297
3425.0 0.000299
3430.0 0.000301
3435.0 0.000303
3440.0 0.000305
3445.0 0.000307
3450.0 0.000309
3455.0 0.000312
3460.0 0.000314
3465.0 0.000316
3470.0 0.000318
3475.0 0.00032
3480.0 0.000322
3485.0 0.000325
3490.0 0.000327
3495.0 0.000329
3500.0 0.000332
3505.0 0.000334
3510.0 0.000336
3515.0 0.000339
3520.0 0.000341
3525.0 0.000343
3530.0 0.000346
3535.0 0.000348
3540.0 0.000351
3545.0 0.000353
3550.0 0.000356
3555.0 0.000358
3560.0 0.000361
3565.0 0.000363
3570.0 0.000366
3575.0 0.000369
3580.0 0.000371
3585.0 0.000374
3590.0 0.000377
3595.0 0.000379
3600.0 0.000382
3605.0 0.000385
3610.0 0.000387
3615.0 0.00039
3620.0 0.000393
3625.0 0.000396
3630.0 0.000399
3635.0 0.000401
3640.0 0.000404
3645.0 0.000407
3650.0 0.00041
3655.0 0.000413
3660.0 0.000416
3665.0 0.000419
3670.0 0.000422
3675.0 0.000425
3680.0 0.000428
3685.0 0.000431
3690.0 0.000434
3695.0 0.000437
3700.0 0.00044
3705.0 0.000443
3710.0 0.000446
3715.0 0.00045
3720.0 0.000453
3725.0 0.000456
3730.0 0.000459
3735.0 0.000462
3740.0 0.000466
3745.0 0.000469
3750.0 0.000472
3755.0 0.000475
3760.0 0.000479
3765.0 0.000482
3770.0 0.000485
3775.0 0.000489
3780.0 0.000492
3785.0 0.000495
3790.0 0.000499
3795.0 0.000502
3800.0 0.000506
3805.0 0.000509
3810.0 0.000512
3815.0 0.000516
3820.0 0.00052
3825.0 0.000523
3830.0 0.000526
3835.0 0.00053
3840.0 0.000533
3845.0 0.000537
3850.0 0.00054
3855.0 0.000544
3860.0 0.000548
3865.0 0.000551
3870.0 0.000555
3875.0 0.000558
3880.0 0.000562
3885.0 0.000565
3890.0 0.000569
3895.0 0.000573
3900.0 0.000576
3905.0 0.00058
3910.0 0.000583
3915.0 0.000587
3920.0 0.000591
3925.0 0.000594
3930.0 0.000598
3935.0 0.000602
3940.0 0.000605
3945.0 0.000609
3950.0 0.000612
3955.0 0.000616
3960.0 0.00062
3965.0 0.000623
3970.0 0.000627
3975.0 0.000631
3980.0 0.000634
3985.0 0.000638
3990.0 0.000641
3995.0 0.000645
4000.0 0.000649
4005.0 0.000652
4010.0 0.000656
4015.0 0.00066
4020.0 0.000663
4025.0 0.000667
4030.0 0.00067
4035.0 0.000674
4040.0 0.000677
4045.0 0.000681
4050.0 0.000685
4055.0 0.000688
4060.0 0.000692
4065.0 0.000695
4070.0 0.000699
4075.0 0.000702
4080.0 0.000706
4085.0 0.000709
4090.0 0.000713
4095.0 0.000717
4100.0 0.00072
4105.0 0.000724
4110.0 0.000727
4115.0 0.000731
4120.0 0.000734
4125.0 0.000738
4130.0 0.000741
4135.0 0.000745
4140.0 0.000749
4145.0 0.000752
4150.0 0.000756
4155.0 0.000759
4160.0 0.000763
4165.0 0.000767
4170.0 0.00077
4175.0 0.000774
4180.0 0.000778
4185.0 0.000781
4190.0 0.000785
4195.0 0.000789
4200.0 0.000793
4205.0 0.000797
4210.0 0.000801
4215.0 0.000804
4220.0 0.000808
4225.0 0.000812
4230.0 0.000816
4235.0 0.00082
4240.0 0.000824
4245.0 0.000828
4250.0 0.000833
4255.0 0.000837
4260.0 0.000841
4265.0 0.000845
4270.0 0.00085
4275.0 0.000854
4280.0 0.000858
4285.0 0.000863
4290.0 0.000867
4295.0 0.000872
4300.0 0.000876
4305.0 0.000881
4310.0 0.000885
4315.0 0.00089
4320.0 0.000895
4325.0 0.000899
4330.0 0.000904
4335.0 0.000909
4340.0 0.000914
4345.0 0.000918
4350.0 0.000923
4355.0 0.000928
4360.0 0.000933
4365.0 0.000938
4370.0 0.000943
4375.0 0.000948
4380.0 0.000953
4385.0 0.000958
4390.0 0.000963
4395.0 0.000968
4400.0 0.000973
4405.0 0.000978
4410.0 0.000983
4415.0 0.000988
4420.0 0.000993
4425.0 0.000998
4430.0 0.001
4435.0 0.00101
4440.0 0.00101
4445.0 0.00102
4450.0 0.00103
4455.0 0.00103
4460.0 0.00104
4465.0 0.00104
4470.0 0.00105
4475.0 0.00105
4480.0 0.00106
4485.0 0.00106
4490.0 0.00107
4495.0 0.00108
4500.0 0.00108
4505.0 0.00109
4510.0 0.00109
4515.0 0.0011
4520.0 0.0011
4525.0 0.00111
4530.0 0.00112
4535.0 0.00112
4540.0 0.00113
4545.0 0.00113
4550.0 0.00114
4555.0 0.00115
4560.0 0.00115
4565.0 0.00116
4570.0 0.00116
4575.0 0.00117
4580.0 0.00118
4585.0 0.00118
4590.0 0.00119
4595.0 0.0012
4600.0 0.0012
4605.0 0.00121
4610.0 0.00121
4615.0 0.00122
4620.0 0.00123
4625.0 0.00123
4630.0 0.00124
4635.0 0.00124
4640.0 0.00125
4645.0 0.00125
4650.0 0.00126
4655.0 0.00127
4660.0 0.00127
4665.0 0.00128
4670.0 0.00128
4675.0 0.00129
4680.0 0.00129
4685.0 0.0013
4690.0 0.0013
4695.0 0.00131
4700.0 0.00131
4705.0 0.00132
4710.0 0.00132
4715.0 0.00133
4720.0 0.00133
4725.0 0.00134
4730.0 0.00134
4735.0 0.00135
4740.0 0.00135
4745.0 0.00136
4750.0 0.00136
4755.0 0.00136
4760.0 0.00137
4765.0 0.00137
4770.0 0.00138
4775.0 0.00138
4780.0 0.00138
4785.0 0.00139
4790.0 0.00139
4795.0 0.00139
4800.0 0.00139
4805.0 0.0014
4810.0 0.0014
4815.0 0.0014
4820.0 0.0014
4825.0 0.00141
4830.0 0.00141
4835.0 0.00141
4840.0 0.00141
4845.0 0.00141
4850.0 0.00142
4855.0 0.00142
4860.0 0.00142
4865.0 0.00142
4870.0 0.00142
4875.0 0.00142
4880.0 0.00142
4885.0 0.00142
4890.0 0.00142
4895.0 0.00142
4900.0 0.00142
4905.0 0.00142
4910.0 0.00142
4915.0 0.00142
4920.0 0.00142
4925.0 0.00142
4930.0 0.00142
4935.0 0.00142
4940.0 0.00142
4945.0 0.00142
4950.0 0.00142
4955.0 0.00142
4960.0 0.00142
4965.0 0.00141
4970.0 0.00141
4975.0 0.00141
4980.0 0.00141
4985.0 0.00141
4990.0 0.00141
4995.0 0.0014
5000.0 0.0014
5005.0 0.0014
5010.0 0.0014
5015.0 0.0014
5020.0 0.00139
5025.0 0.00139
5030.0 0.00139
5035.0 0.00139
5040.0 0.00139
5045.0 0.00138
5050.0 0.00138
5055.0 0.00138
5060.0 0.00138
5065.0 0.00137
5070.0 0.00137
5075.0 0.00137
5080.0 0.00137
5085.0 0.00137
5090.0 0.00136
5095.0 0.00136
5100.0 0.00136
5105.0 0.00136
5110.0 0.00136
5115.0 0.00135
5120.0 0.00135
5125.0 0.00135
5130.0 0.00135
5135.0 0.00135
5140.0 0.00135
5145.0 0.00135
5150.0 0.00134
5155.0 0.00134
5160.0 0.00134
5165.0 0.00134
5170.0 0.00134
5175.0 0.00134
5180.0 0.00134
5185.0 0.00134
5190.0 0.00134
5195.0 0.00133
5200.0 0.00133
5205.0 0.00133
5210.0 0.00133
5215.0 0.00133
5220.0 0.00133
5225.0 0.00133
5230.0 0.00133
5235.0 0.00133
5240.0 0.00133
5245.0 0.00133
5250.0 0.00133
5255.0 0.00133
5260.0 0.00133
5265.0 0.00133
5270.0 0.00133
5275.0 0.00133
5280.0 0.00133
5285.0 0.00133
5290.0 0.00133
5295.0 0.00133
5300.0 0.00133
5305.0 0.00133
5310.0 0.00133
5315.0 0.00133
5320.0 0.00133
5325.0 0.00133
5330.0 0.00133
5335.0 0.00133
5340.0 0.00133
5345.0 0.00133
5350.0 0.00133
5355.0 0.00133
5360.0 0.00133
5365.0 0.00133
5370.0 0.00133
5375.0 0.00133
5380.0 0.00133
5385.0 0.00132
5390.0 0.00132
5395.0 0.00132
5400.0 0.00132
5405.0 0.00132
5410.0 0.00132
5415.0 0.00132
5420.0 0.00132
5425.0 0.00132
5430.0 0.00132
5435.0 0.00132
5440.0 0.00132
5445.0 0.00132
5450.0 0.00132
5455.0 0.00132
5460.0 0.00132
5465.0 0.00132
5470.0 0.00132
5475.0 0.00131
5480.0 0.00131
5485.0 0.00131
5490.0 0.00131
5495.0 0.00131
5500.0 0.00131
5505.0 0.00131
5510.0 0.0013
5515.0 0.0013
5520.0 0.0013
5525.0 0.0013
5530.0 0.0013
5535.0 0.00129
5540.0 0.00129
5545.0 0.00129
5550.0 0.00129
5555.0 0.00128
5560.0 0.00128
5565.0 0.00128
5570.0 0.00127
5575.0 0.00127
5580.0 0.00127
5585.0 0.00126
5590.0 0.00126
5595.0 0.00125
5600.0 0.00125
5605.0 0.00125
5610.0 0.00124
5615.0 0.00124
5620.0 0.00123
5625.0 0.00123
5630.0 0.00122
5635.0 0.00122
5640.0 0.00122
5645.0 0.00121
5650.0 0.00121
5655.0 0.0012
5660.0 0.0012
5665.0 0.00119
5670.0 0.00119
5675.0 0.00119
5680.0 0.00118
5685.0 0.00118
5690.0 0.00117
5695.0 0.00117
5700.0 0.00117
5705.0 0.00116
5710.0 0.00116
5715.0 0.00116
5720.0 0.00115
5725.0 0.00115
5730.0 0.00115
5735.0 0.00114
5740.0 0.00114
5745.0 0.00114
5750.0 0.00114
5755.0 0.00114
5760.0 0.00113
5765.0 0.00113
5770.0 0.00113
5775.0 0.00113
5780.0 0.00113
5785.0 0.00113
5790.0 0.00113
5795.0 0.00113
5800.0 0.00113
5805.0 0.00113
5810.0 0.00113
5815.0 0.00113
5820.0 0.00113
5825.0 0.00113
5830.0 0.00113
5835.0 0.00114
5840.0 0.00114
5845.0 0.00114
5850.0 0.00114
5855.0 0.00115
5860.0 0.00115
5865.0 0.00115
5870.0 0.00115
5875.0 0.00116
5880.0 0.00116
5885.0 0.00117
5890.0 0.00117
5895.0 0.00117
5900.0 0.00118
5905.0 0.00118
5910.0 0.00119
5915.0 0.0012
5920.0 0.0012
5925.0 0.00121
5930.0 0.00121
5935.0 0.00122
5940.0 0.00123
5945.0 0.00124
5950.0 0.00124
5955.0 0.00125
5960.0 0.00126
5965.0 0.00127
5970.0 0.00128
5975.0 0.00129
5980.0 0.0013
5985.0 0.00131
5990.0 0.00132
5995.0 0.00133
6000.0 0.00134
6005.0 0.00135
6010.0 0.00136
6015.0 0.00137
6020.0 0.00138
6025.0 0.0014
6030.0 0.00141
6035.0 0.00142
6040.0 0.00144
6045.0 0.00145
6050.0 0.00147
6055.0 0.00148
6060.0 0.00149
6065.0 0.00151
6070.0 0.00152
6075.0 0.00154
6080.0 0.00156
6085.0 0.00157
6090.0 0.00159
6095.0 0.0016
6100.0 0.00162
6105.0 0.00163
6110.0 0.00165
6115.0 0.00166
6120.0 0.00168
6125.0 0.00169
6130.0 0.00171
6135.0 0.00172
6140.0 0.00174
6145.0 0.00175
6150.0 0.00177
6155.0 0.00178
6160.0 0.00179
6165.0 0.00181
6170.0 0.00182
6175.0 0.00183
6180.0 0.00184
6185.0 0.00186
6190.0 0.00187
6195.0 0.00188
6200.0 0.00189
6205.0 0.0019
6210.0 0.00192
6215.0 0.00193
6220.0 0.00194
6225.0 0.00195
6230.0 0.00196
6235.0 0.00198
6240.0 0.00199
6245.0 0.002
6250.0 0.00202
6255.0 0.00203
6260.0 0.00205
6265.0 0.00207
6270.0 0.00208
6275.0 0.0021
6280.0 0.00212
6285.0 0.00214
6290.0 0.00216
6295.0 0.00218
6300.0 0.00221
6305.0 0.00223
6310.0 0.00226
6315.0 0.00229
6320.0 0.00232
6325.0 0.00235
6330.0 0.00238
6335.0 0.00241
6340.0 0.00245
6345.0 0.00248
6350.0 0.00252
6355.0 0.00257
6360.0 0.00261
6365.0 0.00265
6370.0 0.0027
6375.0 0.00275
6380.0 0.0028
6385.0 0.00285
6390.0 0.00291
6395.0 0.00296
6400.0 0.00302
6405.0 0.00308
6410.0 0.00314
6415.0 0.00321
6420.0 0.00327
6425.0 0.00334
6430.0 0.00341
6435.0 0.00348
6440.0 0.00355
6445.0 0.00361
6450.0 0.00368
6455.0 0.00376
6460.0 0.00382
6465.0 0.00389
6470.0 0.00396
6475.0 0.00403
6480.0 0.00409
6485.0 0.00416
6490.0 0.00422
6495.0 0.00427
6500.0 0.00433
6505.0 0.00438
6510.0 0.00442
6515.0 0.00446
6520.0 0.0045
6525.0 0.00453
6530.0 0.00455
6535.0 0.00457
6540.0 0.00458
6545.0 0.00458
6550.0 0.00458
6555.0 0.00457
6560.0 0.00455
6565.0 0.00453
6570.0 0.00449
6575.0 0.00446
6580.0 0.00441
6585.0 0.00436
6590.0 0.0043
6595.0 0.00424
6600.0 0.00417
6605.0 0.0041
6610.0 0.00402
6615.0 0.00395
6620.0 0.00386
6625.0 0.00377
6630.0 0.00368
6635.0 0.00359
6640.0 0.0035
6645.0 0.00341
6650.0 0.00331
6655.0 0.00322
6660.0 0.00312
6665.0 0.00303
6670.0 0.00294
6675.0 0.00284
6680.0 0.00275
6685.0 0.00267
6690.0 0.00258
6695.0 0.0025
6700.0 0.00241
6705.0 0.00233
6710.0 0.00226
6715.0 0.00218
6720.0 0.00211
6725.0 0.00204
6730.0 0.00198
6735.0 0.00191
6740.0 0.00185
6745.0 0.00179
6750.0 0.00173
6755.0 0.00168
6760.0 0.00163
6765.0 0.00158
6770.0 0.00153
6775.0 0.00149
6780.0 0.00145
6785.0 0.00141
6790.0 0.00137
6795.0 0.00133
6800.0 0.0013
6805.0 0.00127
6810.0 0.00124
6815.0 0.00121
6820.0 0.00118
6825.0 0.00115
6830.0 0.00113
6835.0 0.00111
6840.0 0.00109
6845.0 0.00107
6850.0 0.00105
6855.0 0.00103
6860.0 0.00101
6865.0 0.000999
6870.0 0.000986
6875.0 0.000973
6880.0 0.000962
6885.0 0.000951
6890.0 0.000941
6895.0 0.000932
6900.0 0.000925
6905.0 0.000918
6910.0 0.000912
6915.0 0.000906
6920.0 0.000902
6925.0 0.000898
6930.0 0.000895
6935.0 0.000893
6940.0 0.000891
6945.0 0.00089
6950.0 0.00089
6955.0 0.00089
6960.0 0.000891
6965.0 0.000893
6970.0 0.000895
6975.0 0.000898
6980.0 0.000902
6985.0 0.000906
6990.0 0.00091
6995.0 0.000915
7000.0 0.000921
7005.0 0.000927
7010.0 0.000934
7015.0 0.000941
7020.0 0.000949
7025.0 0.000957
7030.0 0.000966
7035.0 0.000975
7040.0 0.000985
7045.0 0.000995
7050.0 0.00101
7055.0 0.00102
7060.0 0.00103
7065.0 0.00104
7070.0 0.00105
7075.0 0.00106
7080.0 0.00108
7085.0 0.00109
7090.0 0.0011
7095.0 0.00112
7100.0 0.00113
7105.0 0.00115
7110.0 0.00116
7115.0 0.00118
7120.0 0.00119
7125.0 0.00121
7130.0 0.00122
7135.0 0.00124
7140.0 0.00125
7145.0 0.00127
7150.0 0.00129
7155.0 0.0013
7160.0 0.00132
7165.0 0.00133
7170.0 0.00135
7175.0 0.00137
7180.0 0.00138
7185.0 0.0014
7190.0 0.00141
7195.0 0.00143
7200.0 0.00144
7205.0 0.00146
7210.0 0.00147
7215.0 0.00149
7220.0 0.0015
7225.0 0.00151
7230.0 0.00152
7235.0 0.00154
7240.0 0.00155
7245.0 0.00156
7250.0 0.00157
7255.0 0.00157
7260.0 0.00158
7265.0 0.00159
7270.0 0.00159
7275.0 0.0016
7280.0 0.0016
7285.0 0.00161
7290.0 0.00161
7295.0 0.00161
7300.0 0.00161
7305.0 0.00161
7310.0 0.00161
7315.0 0.0016
7320.0 0.0016
7325.0 0.00159
7330.0 0.00159
7335.0 0.00158
7340.0 0.00157
7345.0 0.00156
7350.0 0.00155
7355.0 0.00154
7360.0 0.00153
7365.0 0.00152
7370.0 0.00151
7375.0 0.00149
7380.0 0.00148
7385.0 0.00147
7390.0 0.00145
7395.0 0.00144
7400.0 0.00142
7405.0 0.00141
7410.0 0.00139
7415.0 0.00138
7420.0 0.00136
7425.0 0.00135
7430.0 0.00133
7435.0 0.00132
7440.0 0.0013
7445.0 0.00129
7450.0 0.00127
7455.0 0.00126
7460.0 0.00125
7465.0 0.00123
7470.0 0.00122
7475.0 0.00121
7480.0 0.00119
7485.0 0.00118
7490.0 0.00117
7495.0 0.00116
7500.0 0.00115
7505.0 0.00114
7510.0 0.00113
7515.0 0.00112
7520.0 0.00111
7525.0 0.0011
7530.0 0.0011
7535.0 0.00109
7540.0 0.00108
7545.0 0.00108
7550.0 0.00107
7555.0 0.00107
7560.0 0.00106
7565.0 0.00106
7570.0 0.00105
7575.0 0.00105
7580.0 0.00105
7585.0 0.00104
7590.0 0.00104
7595.0 0.00104
7600.0 0.00104
7605.0 0.00104
7610.0 0.00104
7615.0 0.00104
7620.0 0.00104
7625.0 0.00104
7630.0 0.00104
7635.0 0.00104
7640.0 0.00104
7645.0 0.00104
7650.0 0.00105
7655.0 0.00105
7660.0 0.00105
7665.0 0.00105
7670.0 0.00106
7675.0 0.00106
7680.0 0.00106
7685.0 0.00107
7690.0 0.00107
7695.0 0.00107
7700.0 0.00108
7705.0 0.00108
7710.0 0.00108
7715.0 0.00109
7720.0 0.00109
7725.0 0.0011
7730.0 0.0011
7735.0 0.0011
7740.0 0.00111
7745.0 0.00111
7750.0 0.00112
7755.0 0.00112
7760.0 0.00112
7765.0 0.00113
7770.0 0.00113
7775.0 0.00113
7780.0 0.00114
7785.0 0.00114
7790.0 0.00114
7795.0 0.00114
7800.0 0.00115
7805.0 0.00115
7810.0 0.00115
7815.0 0.00115
7820.0 0.00115
7825.0 0.00115
7830.0 0.00116
7835.0 0.00116
7840.0 0.00116
7845.0 0.00116
7850.0 0.00116
7855.0 0.00116
7860.0 0.00116
7865.0 0.00116
7870.0 0.00116
7875.0 0.00116
7880.0 0.00116
7885.0 0.00116
7890.0 0.00116
7895.0 0.00116
7900.0 0.00116
7905.0 0.00116
7910.0 0.00115
7915.0 0.00115
7920.0 0.00115
7925.0 0.00115
7930.0 0.00115
7935.0 0.00115
7940.0 0.00115
7945.0 0.00114
7950.0 0.00114
7955.0 0.00114
7960.0 0.00114
7965.0 0.00114
7970.0 0.00113
7975.0 0.00113
7980.0 0.00113
7985.0 0.00113
7990.0 0.00113
7995.0 0.00112
8000.0 0.00112
8005.0 0.00112
8010.0 0.00112
8015.0 0.00111
8020.0 0.00111
8025.0 0.00111
8030.0 0.00111
8035.0 0.0011
8040.0 0.0011
8045.0 0.0011
8050.0 0.0011
8055.0 0.00109
8060.0 0.00109
8065.0 0.00109
8070.0 0.00109
8075.0 0.00108
8080.0 0.00108
8085.0 0.00108
8090.0 0.00107
8095.0 0.00107
8100.0 0.00107
