#lamb flux
1605.0 0.000541
1610.0 0.000542
1615.0 0.000544
1620.0 0.000545
1625.0 0.000547
1630.0 0.000549
1635.0 0.00055
1640.0 0.000552
1645.0 0.000554
1650.0 0.000556
1655.0 0.000557
1660.0 0.000559
1665.0 0.000561
1670.0 0.000563
1675.0 0.000565
1680.0 0.000566
1685.0 0.000568
1690.0 0.00057
1695.0 0.000572
1700.0 0.000574
1705.0 0.000576
1710.0 0.000578
1715.0 0.00058
1720.0 0.000582
1725.0 0.000584
1730.0 0.000586
1735.0 0.000588
1740.0 0.000591
1745.0 0.000593
1750.0 0.000595
1755.0 0.000597
1760.0 0.000599
1765.0 0.000602
1770.0 0.000604
1775.0 0.000606
1780.0 0.000609
1785.0 0.000611
1790.0 0.000613
1795.0 0.000616
1800.0 0.000618
1805.0 0.000621
1810.0 0.000623
1815.0 0.000626
1820.0 0.000628
1825.0 0.000631
1830.0 0.000633
1835.0 0.000636
1840.0 0.000639
1845.0 0.000642
1850.0 0.000645
1855.0 0.000647
1860.0 0.00065
1865.0 0.000653
1870.0 0.000656
1875.0 0.000659
1880.0 0.000662
1885.0 0.000665
1890.0 0.000668
1895.0 0.000671
1900.0 0.000675
1905.0 0.000678
1910.0 0.000681
1915.0 0.000684
1920.0 0.000688
1925.0 0.000691
1930.0 0.000695
1935.0 0.000698
1940.0 0.000702
1945.0 0.000705
1950.0 0.000709
1955.0 0.000713
1960.0 0.000717
1965.0 0.00072
1970.0 0.000724
1975.0 0.000728
1980.0 0.000732
1985.0 0.000736
1990.0 0.00074
1995.0 0.000745
2000.0 0.000749
2005.0 0.000753
2010.0 0.000758
2015.0 0.000762
2020.0 0.000767
2025.0 0.000771
2030.0 0.000776
2035.0 0.000781
2040.0 0.000786
2045.0 0.000791
2050.0 0.000796
2055.0 0.000801
2060.0 0.000806
2065.0 0.000811
2070.0 0.000817
2075.0 0.000822
2080.0 0.000828
2085.0 0.000834
2090.0 0.00084
2095.0 0.000845
2100.0 0.000851
2105.0 0.000857
2110.0 0.000863
2115.0 0.000869
2120.0 0.000876
2125.0 0.000882
2130.0 0.000889
2135.0 0.000895
2140.0 0.000902
2145.0 0.000909
2150.0 0.000915
2155.0 0.000922
2160.0 0.00093
2165.0 0.000937
2170.0 0.000944
2175.0 0.000952
2180.0 0.000959
2185.0 0.000966
2190.0 0.000973
2195.0 0.000981
2200.0 0.000989
2205.0 0.000997
2210.0 0.00101
2215.0 0.00101
2220.0 0.00102
2225.0 0.00103
2230.0 0.00104
2235.0 0.00105
2240.0 0.00105
2245.0 0.00106
2250.0 0.00107
2255.0 0.00108
2260.0 0.00109
2265.0 0.0011
2270.0 0.00111
2275.0 0.00112
2280.0 0.00113
2285.0 0.00113
2290.0 0.00114
2295.0 0.00115
2300.0 0.00116
2305.0 0.00117
2310.0 0.00118
2315.0 0.00119
2320.0 0.0012
2325.0 0.00121
2330.0 0.00122
2335.0 0.00123
2340.0 0.00124
2345.0 0.00125
2350.0 0.00126
2355.0 0.00127
2360.0 0.00128
2365.0 0.00129
2370.0 0.0013
2375.0 0.00131
2380.0 0.00132
2385.0 0.00133
2390.0 0.00134
2395.0 0.00135
2400.0 0.00136
2405.0 0.00137
2410.0 0.00138
2415.0 0.00139
2420.0 0.00141
2425.0 0.00142
2430.0 0.00143
2435.0 0.00144
2440.0 0.00145
2445.0 0.00146
2450.0 0.00147
2455.0 0.00148
2460.0 0.00149
2465.0 0.0015
2470.0 0.00151
2475.0 0.00152
2480.0 0.00153
2485.0 0.00154
2490.0 0.00155
2495.0 0.00156
2500.0 0.00157
2505.0 0.00158
2510.0 0.00159
2515.0 0.0016
2520.0 0.00161
2525.0 0.00162
2530.0 0.00163
2535.0 0.00164
2540.0 0.00165
2545.0 0.00166
2550.0 0.00167
2555.0 0.00168
2560.0 0.00168
2565.0 0.00169
2570.0 0.0017
2575.0 0.00171
2580.0 0.00171
2585.0 0.00172
2590.0 0.00173
2595.0 0.00174
2600.0 0.00174
2605.0 0.00175
2610.0 0.00176
2615.0 0.00176
2620.0 0.00177
2625.0 0.00177
2630.0 0.00178
2635.0 0.00178
2640.0 0.00179
2645.0 0.00179
2650.0 0.0018
2655.0 0.0018
2660.0 0.00181
2665.0 0.00181
2670.0 0.00181
2675.0 0.00182
2680.0 0.00182
2685.0 0.00182
2690.0 0.00182
2695.0 0.00183
2700.0 0.00183
2705.0 0.00183
2710.0 0.00183
2715.0 0.00184
2720.0 0.00184
2725.0 0.00184
2730.0 0.00184
2735.0 0.00184
2740.0 0.00184
2745.0 0.00184
2750.0 0.00185
2755.0 0.00185
2760.0 0.00185
2765.0 0.00185
2770.0 0.00185
2775.0 0.00185
2780.0 0.00185
2785.0 0.00185
2790.0 0.00185
2795.0 0.00185
2800.0 0.00185
2805.0 0.00185
2810.0 0.00186
2815.0 0.00186
2820.0 0.00186
2825.0 0.00186
2830.0 0.00186
2835.0 0.00186
2840.0 0.00186
2845.0 0.00186
2850.0 0.00186
2855.0 0.00186
2860.0 0.00186
2865.0 0.00186
2870.0 0.00186
2875.0 0.00187
2880.0 0.00187
2885.0 0.00187
2890.0 0.00187
2895.0 0.00187
2900.0 0.00187
2905.0 0.00187
2910.0 0.00188
2915.0 0.00188
2920.0 0.00188
2925.0 0.00188
2930.0 0.00188
2935.0 0.00189
2940.0 0.00189
2945.0 0.00189
2950.0 0.00189
2955.0 0.0019
2960.0 0.0019
2965.0 0.0019
2970.0 0.00191
2975.0 0.00191
2980.0 0.00191
2985.0 0.00192
2990.0 0.00192
2995.0 0.00192
3000.0 0.00193
3005.0 0.00193
3010.0 0.00194
3015.0 0.00194
3020.0 0.00195
3025.0 0.00195
3030.0 0.00196
3035.0 0.00196
3040.0 0.00197
3045.0 0.00198
3050.0 0.00198
3055.0 0.00199
3060.0 0.002
3065.0 0.002
3070.0 0.00201
3075.0 0.00202
3080.0 0.00203
3085.0 0.00204
3090.0 0.00205
3095.0 0.00205
3100.0 0.00206
3105.0 0.00207
3110.0 0.00208
3115.0 0.0021
3120.0 0.00211
3125.0 0.00212
3130.0 0.00213
3135.0 0.00214
3140.0 0.00215
3145.0 0.00217
3150.0 0.00218
3155.0 0.0022
3160.0 0.00221
3165.0 0.00223
3170.0 0.00224
3175.0 0.00226
3180.0 0.00227
3185.0 0.00229
3190.0 0.00231
3195.0 0.00233
3200.0 0.00235
3205.0 0.00237
3210.0 0.00239
3215.0 0.00241
3220.0 0.00243
3225.0 0.00245
3230.0 0.00248
3235.0 0.0025
3240.0 0.00252
3245.0 0.00255
3250.0 0.00258
3255.0 0.0026
3260.0 0.00263
3265.0 0.00266
3270.0 0.00269
3275.0 0.00272
3280.0 0.00275
3285.0 0.00278
3290.0 0.00281
3295.0 0.00284
3300.0 0.00288
3305.0 0.00291
3310.0 0.00295
3315.0 0.00298
3320.0 0.00302
3325.0 0.00306
3330.0 0.0031
3335.0 0.00314
3340.0 0.00318
3345.0 0.00322
3350.0 0.00326
3355.0 0.0033
3360.0 0.00334
3365.0 0.00338
3370.0 0.00343
3375.0 0.00347
3380.0 0.00351
3385.0 0.00356
3390.0 0.0036
3395.0 0.00365
3400.0 0.00369
3405.0 0.00373
3410.0 0.00378
3415.0 0.00382
3420.0 0.00386
3425.0 0.00391
3430.0 0.00395
3435.0 0.004
3440.0 0.00404
3445.0 0.00408
3450.0 0.00413
3455.0 0.00417
3460.0 0.00422
3465.0 0.00426
3470.0 0.0043
3475.0 0.00435
3480.0 0.00439
3485.0 0.00443
3490.0 0.00446
3495.0 0.0045
3500.0 0.00453
3505.0 0.00456
3510.0 0.00459
3515.0 0.00461
3520.0 0.00463
3525.0 0.00464
3530.0 0.00465
3535.0 0.00466
3540.0 0.00466
3545.0 0.00466
3550.0 0.00465
3555.0 0.00464
3560.0 0.00462
3565.0 0.00461
3570.0 0.00458
3575.0 0.00455
3580.0 0.00452
3585.0 0.00448
3590.0 0.00443
3595.0 0.00439
3600.0 0.00434
3605.0 0.00429
3610.0 0.00423
3615.0 0.00417
3620.0 0.00411
3625.0 0.00405
3630.0 0.00399
3635.0 0.00392
3640.0 0.00386
3645.0 0.00379
3650.0 0.00372
3655.0 0.00366
3660.0 0.00359
3665.0 0.00353
3670.0 0.00347
3675.0 0.00341
3680.0 0.00336
3685.0 0.0033
3690.0 0.00325
3695.0 0.00321
3700.0 0.00317
3705.0 0.00313
3710.0 0.0031
3715.0 0.00308
3720.0 0.00306
3725.0 0.00305
3730.0 0.00305
3735.0 0.00305
3740.0 0.00306
3745.0 0.00308
3750.0 0.0031
3755.0 0.00314
3760.0 0.00318
3765.0 0.00324
3770.0 0.0033
3775.0 0.00337
3780.0 0.00346
3785.0 0.00355
3790.0 0.00365
3795.0 0.00377
3800.0 0.00389
3805.0 0.00403
3810.0 0.00418
3815.0 0.00433
3820.0 0.0045
3825.0 0.00468
3830.0 0.00486
3835.0 0.00506
3840.0 0.00526
3845.0 0.00546
3850.0 0.00568
3855.0 0.00589
3860.0 0.0061
3865.0 0.00632
3870.0 0.00653
3875.0 0.00673
3880.0 0.00693
3885.0 0.00712
3890.0 0.0073
3895.0 0.00746
3900.0 0.00761
3905.0 0.00775
3910.0 0.00786
3915.0 0.00796
3920.0 0.00804
3925.0 0.0081
3930.0 0.00814
3935.0 0.00816
3940.0 0.00817
3945.0 0.00815
3950.0 0.00812
3955.0 0.00808
3960.0 0.00802
3965.0 0.00795
3970.0 0.00787
3975.0 0.00778
3980.0 0.00769
3985.0 0.00759
3990.0 0.00748
3995.0 0.00737
4000.0 0.00727
4005.0 0.00716
4010.0 0.00705
4015.0 0.00694
4020.0 0.00684
4025.0 0.00674
4030.0 0.00664
4035.0 0.00655
4040.0 0.00647
4045.0 0.00639
4050.0 0.00631
4055.0 0.00624
4060.0 0.00617
4065.0 0.00611
4070.0 0.00606
4075.0 0.00601
4080.0 0.00597
4085.0 0.00593
4090.0 0.0059
4095.0 0.00587
4100.0 0.00584
4105.0 0.00582
4110.0 0.00581
4115.0 0.00579
4120.0 0.00578
4125.0 0.00577
4130.0 0.00576
4135.0 0.00576
4140.0 0.00575
4145.0 0.00575
4150.0 0.00574
4155.0 0.00573
4160.0 0.00573
4165.0 0.00572
4170.0 0.0057
4175.0 0.00569
4180.0 0.00567
4185.0 0.00566
4190.0 0.00563
4195.0 0.00561
4200.0 0.00558
4205.0 0.00555
4210.0 0.00552
4215.0 0.00548
4220.0 0.00544
4225.0 0.0054
4230.0 0.00536
4235.0 0.00532
4240.0 0.00527
4245.0 0.00523
4250.0 0.00518
4255.0 0.00514
4260.0 0.0051
4265.0 0.00505
4270.0 0.00501
4275.0 0.00497
4280.0 0.00494
4285.0 0.00491
4290.0 0.00488
4295.0 0.00486
4300.0 0.00485
4305.0 0.00484
4310.0 0.00484
4315.0 0.00484
4320.0 0.00486
4325.0 0.00488
4330.0 0.0049
4335.0 0.00494
4340.0 0.00498
4345.0 0.00502
4350.0 0.00506
4355.0 0.0051
4360.0 0.00513
4365.0 0.00515
4370.0 0.00516
4375.0 0.00516
4380.0 0.00516
4385.0 0.00515
4390.0 0.00514
4395.0 0.00514
4400.0 0.00514
4405.0 0.00515
4410.0 0.00516
4415.0 0.00519
4420.0 0.00522
4425.0 0.00527
4430.0 0.00533
4435.0 0.0054
4440.0 0.00547
4445.0 0.00556
4450.0 0.00565
4455.0 0.00576
4460.0 0.00586
4465.0 0.00598
4470.0 0.0061
4475.0 0.00622
4480.0 0.00634
4485.0 0.00646
4490.0 0.00658
4495.0 0.0067
4500.0 0.00682
4505.0 0.00693
4510.0 0.00704
4515.0 0.00714
4520.0 0.00723
4525.0 0.00731
4530.0 0.00739
4535.0 0.00745
4540.0 0.0075
4545.0 0.00753
4550.0 0.00756
4555.0 0.00756
4560.0 0.00756
4565.0 0.00754
4570.0 0.00751
4575.0 0.00745
4580.0 0.00739
4585.0 0.00731
4590.0 0.00722
4595.0 0.00711
4600.0 0.007
4605.0 0.00687
4610.0 0.00674
4615.0 0.0066
4620.0 0.00646
4625.0 0.00631
4630.0 0.00616
4635.0 0.00601
4640.0 0.00586
4645.0 0.00571
4650.0 0.00556
4655.0 0.00543
4660.0 0.0053
4665.0 0.00518
4670.0 0.00506
4675.0 0.00497
4680.0 0.00487
4685.0 0.0048
4690.0 0.00473
4695.0 0.00469
4700.0 0.00465
4705.0 0.00463
4710.0 0.00462
4715.0 0.00463
4720.0 0.00464
4725.0 0.00467
4730.0 0.00471
4735.0 0.00474
4740.0 0.00478
4745.0 0.0048
4750.0 0.00481
4755.0 0.00479
4760.0 0.00475
4765.0 0.00468
4770.0 0.0046
4775.0 0.00449
4780.0 0.00438
4785.0 0.00427
4790.0 0.00416
4795.0 0.00406
4800.0 0.00397
4805.0 0.00388
4810.0 0.00381
4815.0 0.00374
4820.0 0.00368
4825.0 0.00364
4830.0 0.0036
4835.0 0.00357
4840.0 0.00354
4845.0 0.00352
4850.0 0.00351
4855.0 0.0035
4860.0 0.00349
4865.0 0.00349
4870.0 0.00349
4875.0 0.0035
4880.0 0.00351
4885.0 0.00352
4890.0 0.00353
4895.0 0.00354
4900.0 0.00355
4905.0 0.00356
4910.0 0.00357
4915.0 0.00358
4920.0 0.00359
4925.0 0.0036
4930.0 0.00361
4935.0 0.00361
4940.0 0.00362
4945.0 0.00362
4950.0 0.00362
4955.0 0.00363
4960.0 0.00363
4965.0 0.00364
4970.0 0.00364
4975.0 0.00365
4980.0 0.00365
4985.0 0.00366
4990.0 0.00368
4995.0 0.00369
5000.0 0.0037
5005.0 0.00372
5010.0 0.00374
5015.0 0.00377
5020.0 0.00379
5025.0 0.00382
5030.0 0.00385
5035.0 0.00388
5040.0 0.00391
5045.0 0.00395
5050.0 0.00398
5055.0 0.00402
5060.0 0.00406
5065.0 0.0041
5070.0 0.00414
5075.0 0.00418
5080.0 0.00422
5085.0 0.00426
5090.0 0.0043
5095.0 0.00435
5100.0 0.00439
5105.0 0.00443
5110.0 0.00448
5115.0 0.00452
5120.0 0.00457
5125.0 0.00461
5130.0 0.00466
5135.0 0.00471
5140.0 0.00476
5145.0 0.00481
5150.0 0.00486
5155.0 0.00492
5160.0 0.00497
5165.0 0.00502
5170.0 0.00508
5175.0 0.00513
5180.0 0.00519
5185.0 0.00524
5190.0 0.00529
5195.0 0.00534
5200.0 0.00539
5205.0 0.00543
5210.0 0.00548
5215.0 0.00552
5220.0 0.00555
5225.0 0.00559
5230.0 0.00562
5235.0 0.00564
5240.0 0.00567
5245.0 0.00568
5250.0 0.00569
5255.0 0.0057
5260.0 0.00571
5265.0 0.00571
5270.0 0.0057
5275.0 0.00569
5280.0 0.00568
5285.0 0.00567
5290.0 0.00565
5295.0 0.00564
5300.0 0.00562
5305.0 0.0056
5310.0 0.00558
5315.0 0.00556
5320.0 0.00553
5325.0 0.00551
5330.0 0.00549
5335.0 0.00547
5340.0 0.00544
5345.0 0.00542
5350.0 0.00539
5355.0 0.00537
5360.0 0.00534
5365.0 0.00531
5370.0 0.00528
5375.0 0.00525
5380.0 0.00522
5385.0 0.00519
5390.0 0.00516
5395.0 0.00513
5400.0 0.0051
5405.0 0.00507
5410.0 0.00504
5415.0 0.00501
5420.0 0.00498
5425.0 0.00495
5430.0 0.00493
5435.0 0.0049
5440.0 0.00488
5445.0 0.00485
5450.0 0.00482
5455.0 0.00479
5460.0 0.00476
5465.0 0.00472
5470.0 0.00468
5475.0 0.00463
5480.0 0.00458
5485.0 0.00454
5490.0 0.00449
5495.0 0.00444
5500.0 0.0044
5505.0 0.00435
5510.0 0.00432
5515.0 0.00428
5520.0 0.00424
5525.0 0.00421
5530.0 0.00418
5535.0 0.00415
5540.0 0.00413
5545.0 0.00411
5550.0 0.00409
5555.0 0.00407
5560.0 0.00405
5565.0 0.00404
5570.0 0.00402
5575.0 0.00401
5580.0 0.004
5585.0 0.004
5590.0 0.00399
5595.0 0.00399
5600.0 0.00399
5605.0 0.00399
5610.0 0.00399
5615.0 0.00399
5620.0 0.004
5625.0 0.00401
5630.0 0.00402
5635.0 0.00403
5640.0 0.00405
5645.0 0.00406
5650.0 0.00408
5655.0 0.0041
5660.0 0.00412
5665.0 0.00415
5670.0 0.00417
5675.0 0.0042
5680.0 0.00422
5685.0 0.00425
5690.0 0.00428
5695.0 0.0043
5700.0 0.00433
5705.0 0.00436
5710.0 0.00438
5715.0 0.00441
5720.0 0.00443
5725.0 0.00446
5730.0 0.00448
5735.0 0.00451
5740.0 0.00453
5745.0 0.00456
5750.0 0.00458
5755.0 0.00461
5760.0 0.00464
5765.0 0.00466
5770.0 0.00469
5775.0 0.00472
5780.0 0.00475
5785.0 0.00478
5790.0 0.00482
5795.0 0.00485
5800.0 0.00488
5805.0 0.00491
5810.0 0.00494
5815.0 0.00496
5820.0 0.00499
5825.0 0.00501
5830.0 0.00503
5835.0 0.00504
5840.0 0.00505
5845.0 0.00506
5850.0 0.00507
5855.0 0.00507
5860.0 0.00507
5865.0 0.00506
5870.0 0.00506
5875.0 0.00505
5880.0 0.00504
5885.0 0.00503
5890.0 0.00502
5895.0 0.00501
5900.0 0.005
5905.0 0.00499
5910.0 0.00498
5915.0 0.00496
5920.0 0.00495
5925.0 0.00493
5930.0 0.00491
5935.0 0.0049
5940.0 0.00488
5945.0 0.00485
5950.0 0.00483
5955.0 0.0048
5960.0 0.00478
5965.0 0.00475
5970.0 0.00471
5975.0 0.00468
5980.0 0.00464
5985.0 0.0046
5990.0 0.00456
5995.0 0.00452
6000.0 0.00447
6005.0 0.00443
6010.0 0.00438
6015.0 0.00434
6020.0 0.00429
6025.0 0.00425
6030.0 0.0042
6035.0 0.00415
6040.0 0.0041
6045.0 0.00406
6050.0 0.00401
6055.0 0.00396
6060.0 0.00391
6065.0 0.00386
6070.0 0.00381
6075.0 0.00376
6080.0 0.00371
6085.0 0.00365
6090.0 0.0036
6095.0 0.00355
6100.0 0.00349
6105.0 0.00344
6110.0 0.00339
6115.0 0.00334
6120.0 0.0033
6125.0 0.00326
6130.0 0.00323
6135.0 0.0032
6140.0 0.00318
6145.0 0.00318
6150.0 0.00319
6155.0 0.00321
6160.0 0.00324
6165.0 0.00329
6170.0 0.00335
6175.0 0.00343
6180.0 0.00352
6185.0 0.00361
6190.0 0.00372
6195.0 0.00381
6200.0 0.0039
6205.0 0.00395
6210.0 0.00399
6215.0 0.00398
6220.0 0.00395
6225.0 0.00389
6230.0 0.00382
6235.0 0.00375
6240.0 0.00367
6245.0 0.0036
6250.0 0.00354
6255.0 0.00349
6260.0 0.00344
6265.0 0.00341
6270.0 0.00339
6275.0 0.00338
6280.0 0.00337
6285.0 0.00337
6290.0 0.00338
6295.0 0.00339
6300.0 0.00341
6305.0 0.00342
6310.0 0.00344
6315.0 0.00346
6320.0 0.00348
6325.0 0.00349
6330.0 0.0035
6335.0 0.00351
6340.0 0.00352
6345.0 0.00352
6350.0 0.00353
6355.0 0.00352
6360.0 0.00352
6365.0 0.00352
6370.0 0.00351
6375.0 0.00351
6380.0 0.0035
6385.0 0.0035
6390.0 0.0035
6395.0 0.00349
6400.0 0.00349
6405.0 0.00349
6410.0 0.00349
6415.0 0.00349
6420.0 0.0035
6425.0 0.0035
6430.0 0.00351
6435.0 0.00352
6440.0 0.00353
6445.0 0.00354
6450.0 0.00355
6455.0 0.00357
6460.0 0.00358
6465.0 0.0036
6470.0 0.00362
6475.0 0.00363
6480.0 0.00365
6485.0 0.00366
6490.0 0.00367
6495.0 0.00367
6500.0 0.00368
6505.0 0.00367
6510.0 0.00366
6515.0 0.00365
6520.0 0.00364
6525.0 0.00362
6530.0 0.0036
6535.0 0.00358
6540.0 0.00356
6545.0 0.00354
6550.0 0.00352
6555.0 0.0035
6560.0 0.00349
6565.0 0.00348
6570.0 0.00347
6575.0 0.00346
6580.0 0.00345
6585.0 0.00345
6590.0 0.00345
6595.0 0.00345
6600.0 0.00345
6605.0 0.00346
6610.0 0.00346
6615.0 0.00347
6620.0 0.00347
6625.0 0.00348
6630.0 0.00348
6635.0 0.00348
6640.0 0.00349
6645.0 0.00349
6650.0 0.00349
6655.0 0.00348
6660.0 0.00348
6665.0 0.00347
6670.0 0.00346
6675.0 0.00345
6680.0 0.00344
6685.0 0.00343
6690.0 0.00342
6695.0 0.00341
6700.0 0.00339
6705.0 0.00337
6710.0 0.00336
6715.0 0.00334
6720.0 0.00332
6725.0 0.00331
6730.0 0.00329
6735.0 0.00327
6740.0 0.00325
6745.0 0.00323
6750.0 0.00322
6755.0 0.0032
6760.0 0.00318
6765.0 0.00317
6770.0 0.00315
6775.0 0.00314
6780.0 0.00313
6785.0 0.00311
6790.0 0.0031
6795.0 0.00309
6800.0 0.00307
6805.0 0.00306
6810.0 0.00305
6815.0 0.00304
6820.0 0.00303
6825.0 0.00302
6830.0 0.00301
6835.0 0.003
6840.0 0.00299
6845.0 0.00298
6850.0 0.00297
6855.0 0.00296
6860.0 0.00295
6865.0 0.00294
6870.0 0.00294
6875.0 0.00293
6880.0 0.00292
6885.0 0.00291
6890.0 0.0029
6895.0 0.00289
6900.0 0.00288
6905.0 0.00288
6910.0 0.00287
6915.0 0.00286
6920.0 0.00285
6925.0 0.00285
6930.0 0.00284
6935.0 0.00283
6940.0 0.00282
6945.0 0.00282
6950.0 0.00281
6955.0 0.0028
6960.0 0.00279
6965.0 0.00278
6970.0 0.00277
6975.0 0.00277
6980.0 0.00276
6985.0 0.00275
6990.0 0.00274
6995.0 0.00273
7000.0 0.00272
7005.0 0.00272
7010.0 0.00271
7015.0 0.0027
7020.0 0.0027
7025.0 0.00269
7030.0 0.00269
7035.0 0.00268
7040.0 0.00268
7045.0 0.00267
7050.0 0.00267
7055.0 0.00266
7060.0 0.00265
7065.0 0.00265
7070.0 0.00264
7075.0 0.00264
7080.0 0.00263
7085.0 0.00262
7090.0 0.00261
7095.0 0.0026
7100.0 0.0026
7105.0 0.00259
7110.0 0.00258
7115.0 0.00257
7120.0 0.00256
7125.0 0.00255
7130.0 0.00254
7135.0 0.00254
7140.0 0.00253
7145.0 0.00252
7150.0 0.00251
7155.0 0.00251
7160.0 0.0025
7165.0 0.00249
7170.0 0.00249
7175.0 0.00248
7180.0 0.00247
7185.0 0.00246
7190.0 0.00245
7195.0 0.00244
7200.0 0.00243
7205.0 0.00242
7210.0 0.00241
7215.0 0.0024
7220.0 0.00239
7225.0 0.00237
7230.0 0.00236
7235.0 0.00235
7240.0 0.00234
7245.0 0.00232
7250.0 0.00231
7255.0 0.0023
7260.0 0.00229
7265.0 0.00228
7270.0 0.00226
7275.0 0.00226
7280.0 0.00225
7285.0 0.00224
7290.0 0.00223
7295.0 0.00222
7300.0 0.00222
7305.0 0.00222
7310.0 0.00221
7315.0 0.00221
7320.0 0.00221
7325.0 0.00221
7330.0 0.00221
7335.0 0.00221
7340.0 0.00221
7345.0 0.00221
7350.0 0.00222
7355.0 0.00222
7360.0 0.00222
7365.0 0.00222
7370.0 0.00222
7375.0 0.00222
7380.0 0.00222
7385.0 0.00222
7390.0 0.00222
7395.0 0.00222
7400.0 0.00222
7405.0 0.00221
7410.0 0.00221
7415.0 0.0022
7420.0 0.0022
7425.0 0.0022
7430.0 0.00219
7435.0 0.00219
7440.0 0.00218
7445.0 0.00217
7450.0 0.00217
7455.0 0.00216
7460.0 0.00216
7465.0 0.00215
7470.0 0.00214
7475.0 0.00214
7480.0 0.00213
7485.0 0.00213
7490.0 0.00213
7495.0 0.00212
7500.0 0.00212
7505.0 0.00211
7510.0 0.00211
7515.0 0.00211
7520.0 0.0021
7525.0 0.0021
7530.0 0.0021
7535.0 0.0021
7540.0 0.0021
7545.0 0.00211
7550.0 0.00211
7555.0 0.00211
7560.0 0.00211
7565.0 0.00212
7570.0 0.00212
7575.0 0.00212
7580.0 0.00211
7585.0 0.00211
7590.0 0.0021
7595.0 0.00209
7600.0 0.00208
7605.0 0.00207
7610.0 0.00206
7615.0 0.00205
7620.0 0.00204
7625.0 0.00203
7630.0 0.00202
7635.0 0.00201
7640.0 0.002
7645.0 0.00199
7650.0 0.00199
7655.0 0.00198
7660.0 0.00197
7665.0 0.00196
7670.0 0.00196
7675.0 0.00195
7680.0 0.00195
7685.0 0.00195
7690.0 0.00194
7695.0 0.00194
7700.0 0.00194
7705.0 0.00194
7710.0 0.00194
7715.0 0.00194
7720.0 0.00194
7725.0 0.00194
7730.0 0.00195
7735.0 0.00195
7740.0 0.00195
7745.0 0.00195
7750.0 0.00195
7755.0 0.00195
7760.0 0.00195
7765.0 0.00194
7770.0 0.00194
7775.0 0.00194
7780.0 0.00193
7785.0 0.00192
7790.0 0.00191
7795.0 0.0019
7800.0 0.00189
7805.0 0.00188
7810.0 0.00186
7815.0 0.00185
7820.0 0.00183
7825.0 0.00181
7830.0 0.00179
7835.0 0.00177
7840.0 0.00176
7845.0 0.00174
7850.0 0.00172
7855.0 0.0017
7860.0 0.00168
7865.0 0.00166
7870.0 0.00165
7875.0 0.00163
7880.0 0.00162
7885.0 0.0016
7890.0 0.00159
7895.0 0.00158
7900.0 0.00157
7905.0 0.00156
7910.0 0.00155
7915.0 0.00155
7920.0 0.00155
7925.0 0.00155
7930.0 0.00155
7935.0 0.00155
7940.0 0.00156
7945.0 0.00156
7950.0 0.00157
7955.0 0.00158
7960.0 0.00158
7965.0 0.00159
7970.0 0.0016
7975.0 0.00161
7980.0 0.00161
7985.0 0.00161
7990.0 0.0016
7995.0 0.00159
8000.0 0.00158
8005.0 0.00155
8010.0 0.00152
8015.0 0.00149
8020.0 0.00146
8025.0 0.00142
8030.0 0.00138
8035.0 0.00134
8040.0 0.0013
8045.0 0.00126
8050.0 0.00123
8055.0 0.00119
8060.0 0.00116
8065.0 0.00113
8070.0 0.0011
8075.0 0.00107
8080.0 0.00104
8085.0 0.00102
8090.0 0.000998
8095.0 0.000977
8100.0 0.000959
8105.0 0.000941
8110.0 0.000927
8115.0 0.000913
8120.0 0.000901
8125.0 0.00089
8130.0 0.000881
8135.0 0.000873
8140.0 0.000867
8145.0 0.000861
8150.0 0.000857
8155.0 0.000854
8160.0 0.000852
8165.0 0.00085
8170.0 0.00085
8175.0 0.00085
8180.0 0.000851
8185.0 0.000852
8190.0 0.000855
8195.0 0.000858
8200.0 0.000862
8205.0 0.000866
8210.0 0.000871
8215.0 0.000876
8220.0 0.000882
8225.0 0.000888
8230.0 0.000895
8235.0 0.000902
8240.0 0.000909
8245.0 0.000917
8250.0 0.000925
8255.0 0.000933
