#lamb flux
1605.0 0.000599
1610.0 0.0006
1615.0 0.000601
1620.0 0.000603
1625.0 0.000604
1630.0 0.000605
1635.0 0.000606
1640.0 0.000608
1645.0 0.000609
1650.0 0.00061
1655.0 0.000612
1660.0 0.000613
1665.0 0.000614
1670.0 0.000616
1675.0 0.000617
1680.0 0.000619
1685.0 0.00062
1690.0 0.000622
1695.0 0.000623
1700.0 0.000625
1705.0 0.000626
1710.0 0.000628
1715.0 0.00063
1720.0 0.000631
1725.0 0.000633
1730.0 0.000635
1735.0 0.000636
1740.0 0.000638
1745.0 0.00064
1750.0 0.000642
1755.0 0.000644
1760.0 0.000645
1765.0 0.000647
1770.0 0.000649
1775.0 0.000651
1780.0 0.000653
1785.0 0.000655
1790.0 0.000657
1795.0 0.000659
1800.0 0.000661
1805.0 0.000663
1810.0 0.000665
1815.0 0.000667
1820.0 0.000669
1825.0 0.000672
1830.0 0.000674
1835.0 0.000676
1840.0 0.000678
1845.0 0.000681
1850.0 0.000683
1855.0 0.000685
1860.0 0.000688
1865.0 0.00069
1870.0 0.000693
1875.0 0.000695
1880.0 0.000698
1885.0 0.0007
1890.0 0.000703
1895.0 0.000705
1900.0 0.000708
1905.0 0.000711
1910.0 0.000714
1915.0 0.000716
1920.0 0.000719
1925.0 0.000722
1930.0 0.000725
1935.0 0.000727
1940.0 0.00073
1945.0 0.000733
1950.0 0.000736
1955.0 0.00074
1960.0 0.000743
1965.0 0.000746
1970.0 0.000749
1975.0 0.000752
1980.0 0.000755
1985.0 0.000758
1990.0 0.000762
1995.0 0.000765
2000.0 0.000768
2005.0 0.000772
2010.0 0.000775
2015.0 0.000779
2020.0 0.000782
2025.0 0.000786
2030.0 0.00079
2035.0 0.000793
2040.0 0.000797
2045.0 0.000801
2050.0 0.000804
2055.0 0.000808
2060.0 0.000812
2065.0 0.000816
2070.0 0.00082
2075.0 0.000824
2080.0 0.000828
2085.0 0.000832
2090.0 0.000836
2095.0 0.000841
2100.0 0.000845
2105.0 0.000849
2110.0 0.000854
2115.0 0.000858
2120.0 0.000863
2125.0 0.000867
2130.0 0.000871
2135.0 0.000876
2140.0 0.000881
2145.0 0.000886
2150.0 0.000891
2155.0 0.000895
2160.0 0.0009
2165.0 0.000905
2170.0 0.00091
2175.0 0.000915
2180.0 0.00092
2185.0 0.000926
2190.0 0.000931
2195.0 0.000936
2200.0 0.000941
2205.0 0.000947
2210.0 0.000952
2215.0 0.000958
2220.0 0.000964
2225.0 0.000969
2230.0 0.000975
2235.0 0.000981
2240.0 0.000986
2245.0 0.000992
2250.0 0.000998
2255.0 0.001
2260.0 0.00101
2265.0 0.00102
2270.0 0.00102
2275.0 0.00103
2280.0 0.00104
2285.0 0.00104
2290.0 0.00105
2295.0 0.00106
2300.0 0.00106
2305.0 0.00107
2310.0 0.00108
2315.0 0.00108
2320.0 0.00109
2325.0 0.0011
2330.0 0.0011
2335.0 0.00111
2340.0 0.00112
2345.0 0.00113
2350.0 0.00113
2355.0 0.00114
2360.0 0.00115
2365.0 0.00116
2370.0 0.00116
2375.0 0.00117
2380.0 0.00118
2385.0 0.00119
2390.0 0.0012
2395.0 0.0012
2400.0 0.00121
2405.0 0.00122
2410.0 0.00123
2415.0 0.00124
2420.0 0.00125
2425.0 0.00126
2430.0 0.00126
2435.0 0.00127
2440.0 0.00128
2445.0 0.00129
2450.0 0.0013
2455.0 0.00131
2460.0 0.00132
2465.0 0.00133
2470.0 0.00134
2475.0 0.00135
2480.0 0.00136
2485.0 0.00137
2490.0 0.00138
2495.0 0.00139
2500.0 0.0014
2505.0 0.00141
2510.0 0.00142
2515.0 0.00143
2520.0 0.00144
2525.0 0.00145
2530.0 0.00146
2535.0 0.00147
2540.0 0.00149
2545.0 0.0015
2550.0 0.00151
2555.0 0.00152
2560.0 0.00153
2565.0 0.00154
2570.0 0.00156
2575.0 0.00157
2580.0 0.00158
2585.0 0.00159
2590.0 0.0016
2595.0 0.00162
2600.0 0.00163
2605.0 0.00164
2610.0 0.00166
2615.0 0.00167
2620.0 0.00168
2625.0 0.0017
2630.0 0.00171
2635.0 0.00172
2640.0 0.00174
2645.0 0.00175
2650.0 0.00177
2655.0 0.00178
2660.0 0.00179
2665.0 0.00181
2670.0 0.00182
2675.0 0.00184
2680.0 0.00185
2685.0 0.00187
2690.0 0.00189
2695.0 0.0019
2700.0 0.00192
2705.0 0.00193
2710.0 0.00195
2715.0 0.00196
2720.0 0.00198
2725.0 0.002
2730.0 0.00201
2735.0 0.00203
2740.0 0.00205
2745.0 0.00207
2750.0 0.00208
2755.0 0.0021
2760.0 0.00212
2765.0 0.00214
2770.0 0.00216
2775.0 0.00217
2780.0 0.00219
2785.0 0.00221
2790.0 0.00223
2795.0 0.00225
2800.0 0.00227
2805.0 0.00229
2810.0 0.00231
2815.0 0.00233
2820.0 0.00235
2825.0 0.00237
2830.0 0.00239
2835.0 0.00241
2840.0 0.00243
2845.0 0.00245
2850.0 0.00247
2855.0 0.00249
2860.0 0.00251
2865.0 0.00254
2870.0 0.00256
2875.0 0.00258
2880.0 0.0026
2885.0 0.00263
2890.0 0.00265
2895.0 0.00267
2900.0 0.0027
2905.0 0.00272
2910.0 0.00274
2915.0 0.00277
2920.0 0.00279
2925.0 0.00281
2930.0 0.00284
2935.0 0.00286
2940.0 0.00289
2945.0 0.00291
2950.0 0.00294
2955.0 0.00297
2960.0 0.00299
2965.0 0.00302
2970.0 0.00304
2975.0 0.00307
2980.0 0.0031
2985.0 0.00312
2990.0 0.00315
2995.0 0.00318
3000.0 0.00321
3005.0 0.00324
3010.0 0.00326
3015.0 0.00329
3020.0 0.00332
3025.0 0.00335
3030.0 0.00338
3035.0 0.00341
3040.0 0.00344
3045.0 0.00347
3050.0 0.0035
3055.0 0.00353
3060.0 0.00356
3065.0 0.00359
3070.0 0.00362
3075.0 0.00365
3080.0 0.00368
3085.0 0.00371
3090.0 0.00374
3095.0 0.00377
3100.0 0.0038
3105.0 0.00383
3110.0 0.00387
3115.0 0.0039
3120.0 0.00393
3125.0 0.00396
3130.0 0.00399
3135.0 0.00403
3140.0 0.00406
3145.0 0.00409
3150.0 0.00413
3155.0 0.00416
3160.0 0.00419
3165.0 0.00422
3170.0 0.00426
3175.0 0.00429
3180.0 0.00432
3185.0 0.00436
3190.0 0.00439
3195.0 0.00443
3200.0 0.00446
3205.0 0.00449
3210.0 0.00453
3215.0 0.00456
3220.0 0.00459
3225.0 0.00463
3230.0 0.00466
3235.0 0.00469
3240.0 0.00473
3245.0 0.00476
3250.0 0.00479
3255.0 0.00483
3260.0 0.00486
3265.0 0.00489
3270.0 0.00493
3275.0 0.00496
3280.0 0.00499
3285.0 0.00502
3290.0 0.00505
3295.0 0.00509
3300.0 0.00512
3305.0 0.00515
3310.0 0.00518
3315.0 0.00521
3320.0 0.00524
3325.0 0.00527
3330.0 0.0053
3335.0 0.00533
3340.0 0.00536
3345.0 0.00539
3350.0 0.00542
3355.0 0.00545
3360.0 0.00548
3365.0 0.00551
3370.0 0.00553
3375.0 0.00556
3380.0 0.00559
3385.0 0.00561
3390.0 0.00564
3395.0 0.00567
3400.0 0.00569
3405.0 0.00572
3410.0 0.00574
3415.0 0.00576
3420.0 0.00579
3425.0 0.00581
3430.0 0.00583
3435.0 0.00586
3440.0 0.00588
3445.0 0.0059
3450.0 0.00592
3455.0 0.00595
3460.0 0.00597
3465.0 0.00599
3470.0 0.00601
3475.0 0.00603
3480.0 0.00605
3485.0 0.00607
3490.0 0.00608
3495.0 0.0061
3500.0 0.00612
3505.0 0.00614
3510.0 0.00616
3515.0 0.00618
3520.0 0.00619
3525.0 0.00621
3530.0 0.00623
3535.0 0.00624
3540.0 0.00626
3545.0 0.00628
3550.0 0.00629
3555.0 0.00631
3560.0 0.00632
3565.0 0.00634
3570.0 0.00635
3575.0 0.00637
3580.0 0.00638
3585.0 0.0064
3590.0 0.00641
3595.0 0.00643
3600.0 0.00644
3605.0 0.00646
3610.0 0.00647
3615.0 0.00648
3620.0 0.0065
3625.0 0.00651
3630.0 0.00652
3635.0 0.00654
3640.0 0.00655
3645.0 0.00656
3650.0 0.00658
3655.0 0.00659
3660.0 0.0066
3665.0 0.00661
3670.0 0.00663
3675.0 0.00664
3680.0 0.00665
3685.0 0.00666
3690.0 0.00668
3695.0 0.00669
3700.0 0.0067
3705.0 0.00671
3710.0 0.00672
3715.0 0.00674
3720.0 0.00675
3725.0 0.00676
3730.0 0.00677
3735.0 0.00678
3740.0 0.00679
3745.0 0.00681
3750.0 0.00682
3755.0 0.00683
3760.0 0.00684
3765.0 0.00685
3770.0 0.00686
3775.0 0.00688
3780.0 0.00689
3785.0 0.0069
3790.0 0.00691
3795.0 0.00692
3800.0 0.00694
3805.0 0.00695
3810.0 0.00696
3815.0 0.00697
3820.0 0.00698
3825.0 0.00699
3830.0 0.00701
3835.0 0.00702
3840.0 0.00703
3845.0 0.00704
3850.0 0.00705
3855.0 0.00706
3860.0 0.00708
3865.0 0.00709
3870.0 0.0071
3875.0 0.00711
3880.0 0.00712
3885.0 0.00714
3890.0 0.00715
3895.0 0.00716
3900.0 0.00717
3905.0 0.00718
3910.0 0.0072
3915.0 0.00721
3920.0 0.00722
3925.0 0.00723
3930.0 0.00725
3935.0 0.00726
3940.0 0.00727
3945.0 0.00728
3950.0 0.0073
3955.0 0.00731
3960.0 0.00732
3965.0 0.00733
3970.0 0.00735
3975.0 0.00736
3980.0 0.00737
3985.0 0.00739
3990.0 0.0074
3995.0 0.00741
4000.0 0.00742
4005.0 0.00744
4010.0 0.00745
4015.0 0.00746
4020.0 0.00748
4025.0 0.00749
4030.0 0.0075
4035.0 0.00752
4040.0 0.00753
4045.0 0.00754
4050.0 0.00756
4055.0 0.00757
4060.0 0.00758
4065.0 0.0076
4070.0 0.00761
4075.0 0.00762
4080.0 0.00764
4085.0 0.00765
4090.0 0.00767
4095.0 0.00768
4100.0 0.00769
4105.0 0.00771
4110.0 0.00772
4115.0 0.00774
4120.0 0.00775
4125.0 0.00777
4130.0 0.00778
4135.0 0.00779
4140.0 0.00781
4145.0 0.00782
4150.0 0.00784
4155.0 0.00785
4160.0 0.00787
4165.0 0.00788
4170.0 0.0079
4175.0 0.00791
4180.0 0.00793
4185.0 0.00794
4190.0 0.00796
4195.0 0.00797
4200.0 0.00799
4205.0 0.008
4210.0 0.00802
4215.0 0.00804
4220.0 0.00805
4225.0 0.00807
4230.0 0.00808
4235.0 0.0081
4240.0 0.00811
4245.0 0.00813
4250.0 0.00814
4255.0 0.00816
4260.0 0.00817
4265.0 0.00819
4270.0 0.0082
4275.0 0.00822
4280.0 0.00823
4285.0 0.00824
4290.0 0.00825
4295.0 0.00827
4300.0 0.00828
4305.0 0.00829
4310.0 0.0083
4315.0 0.00831
4320.0 0.00832
4325.0 0.00833
4330.0 0.00834
4335.0 0.00834
4340.0 0.00835
4345.0 0.00836
4350.0 0.00837
4355.0 0.00837
4360.0 0.00838
4365.0 0.00838
4370.0 0.00839
4375.0 0.00839
4380.0 0.0084
4385.0 0.0084
4390.0 0.00841
4395.0 0.00841
4400.0 0.00842
4405.0 0.00842
4410.0 0.00843
4415.0 0.00843
4420.0 0.00843
4425.0 0.00844
4430.0 0.00844
4435.0 0.00845
4440.0 0.00845
4445.0 0.00845
4450.0 0.00846
4455.0 0.00846
4460.0 0.00846
4465.0 0.00847
4470.0 0.00847
4475.0 0.00847
4480.0 0.00847
4485.0 0.00848
4490.0 0.00848
4495.0 0.00848
4500.0 0.00849
4505.0 0.00849
4510.0 0.00849
4515.0 0.00849
4520.0 0.0085
4525.0 0.0085
4530.0 0.0085
4535.0 0.00851
4540.0 0.00851
4545.0 0.00851
4550.0 0.00852
4555.0 0.00852
4560.0 0.00852
4565.0 0.00853
4570.0 0.00853
4575.0 0.00853
4580.0 0.00854
4585.0 0.00854
4590.0 0.00855
4595.0 0.00855
4600.0 0.00856
4605.0 0.00856
4610.0 0.00857
4615.0 0.00857
4620.0 0.00858
4625.0 0.00858
4630.0 0.00859
4635.0 0.00859
4640.0 0.0086
4645.0 0.00861
4650.0 0.00861
4655.0 0.00862
4660.0 0.00863
4665.0 0.00863
4670.0 0.00864
4675.0 0.00865
4680.0 0.00866
4685.0 0.00866
4690.0 0.00867
4695.0 0.00868
4700.0 0.00869
4705.0 0.0087
4710.0 0.00871
4715.0 0.00872
4720.0 0.00872
4725.0 0.00873
4730.0 0.00874
4735.0 0.00875
4740.0 0.00876
4745.0 0.00877
4750.0 0.00878
4755.0 0.00879
4760.0 0.0088
4765.0 0.00881
4770.0 0.00882
4775.0 0.00883
4780.0 0.00884
4785.0 0.00885
4790.0 0.00886
4795.0 0.00887
4800.0 0.00888
4805.0 0.00889
4810.0 0.0089
4815.0 0.00891
4820.0 0.00893
4825.0 0.00894
4830.0 0.00895
4835.0 0.00896
4840.0 0.00897
4845.0 0.00898
4850.0 0.00899
4855.0 0.009
4860.0 0.00901
4865.0 0.00903
4870.0 0.00904
4875.0 0.00905
4880.0 0.00906
4885.0 0.00907
4890.0 0.00908
4895.0 0.0091
4900.0 0.00911
4905.0 0.00912
4910.0 0.00913
4915.0 0.00914
4920.0 0.00916
4925.0 0.00917
4930.0 0.00918
4935.0 0.00919
4940.0 0.00921
4945.0 0.00922
4950.0 0.00923
4955.0 0.00924
4960.0 0.00926
4965.0 0.00927
4970.0 0.00928
4975.0 0.0093
4980.0 0.00931
4985.0 0.00932
4990.0 0.00934
4995.0 0.00935
5000.0 0.00937
5005.0 0.00938
5010.0 0.00939
5015.0 0.00941
5020.0 0.00942
5025.0 0.00944
5030.0 0.00945
5035.0 0.00946
5040.0 0.00948
5045.0 0.00949
5050.0 0.00951
5055.0 0.00952
5060.0 0.00954
5065.0 0.00956
5070.0 0.00957
5075.0 0.00959
5080.0 0.0096
5085.0 0.00962
5090.0 0.00963
5095.0 0.00965
5100.0 0.00967
5105.0 0.00968
5110.0 0.0097
5115.0 0.00972
5120.0 0.00973
5125.0 0.00975
5130.0 0.00977
5135.0 0.00979
5140.0 0.0098
5145.0 0.00982
5150.0 0.00984
5155.0 0.00986
5160.0 0.00988
5165.0 0.00989
5170.0 0.00991
5175.0 0.00993
5180.0 0.00995
5185.0 0.00997
5190.0 0.00999
5195.0 0.01
5200.0 0.01
5205.0 0.01
5210.0 0.0101
5215.0 0.0101
5220.0 0.0101
5225.0 0.0101
5230.0 0.0101
5235.0 0.0102
5240.0 0.0102
5245.0 0.0102
5250.0 0.0102
5255.0 0.0103
5260.0 0.0103
5265.0 0.0103
5270.0 0.0103
5275.0 0.0103
5280.0 0.0104
5285.0 0.0104
5290.0 0.0104
5295.0 0.0104
5300.0 0.0104
5305.0 0.0105
5310.0 0.0105
5315.0 0.0105
5320.0 0.0105
5325.0 0.0106
5330.0 0.0106
5335.0 0.0106
5340.0 0.0106
5345.0 0.0106
5350.0 0.0107
5355.0 0.0107
5360.0 0.0107
5365.0 0.0107
5370.0 0.0107
5375.0 0.0108
5380.0 0.0108
5385.0 0.0108
5390.0 0.0108
5395.0 0.0109
5400.0 0.0109
5405.0 0.0109
5410.0 0.0109
5415.0 0.0109
5420.0 0.011
5425.0 0.011
5430.0 0.011
5435.0 0.011
5440.0 0.011
5445.0 0.0111
5450.0 0.0111
5455.0 0.0111
5460.0 0.0111
5465.0 0.0111
5470.0 0.0112
5475.0 0.0112
5480.0 0.0112
5485.0 0.0112
5490.0 0.0112
5495.0 0.0113
5500.0 0.0113
5505.0 0.0113
5510.0 0.0113
5515.0 0.0113
5520.0 0.0114
5525.0 0.0114
5530.0 0.0114
5535.0 0.0114
5540.0 0.0114
5545.0 0.0115
5550.0 0.0115
5555.0 0.0115
5560.0 0.0115
5565.0 0.0115
5570.0 0.0116
5575.0 0.0116
5580.0 0.0116
5585.0 0.0116
5590.0 0.0116
5595.0 0.0116
5600.0 0.0117
5605.0 0.0117
5610.0 0.0117
5615.0 0.0117
5620.0 0.0117
5625.0 0.0117
5630.0 0.0118
5635.0 0.0118
5640.0 0.0118
5645.0 0.0118
5650.0 0.0118
5655.0 0.0118
5660.0 0.0119
5665.0 0.0119
5670.0 0.0119
5675.0 0.0119
5680.0 0.0119
5685.0 0.0119
5690.0 0.012
5695.0 0.012
5700.0 0.012
5705.0 0.012
5710.0 0.012
5715.0 0.012
5720.0 0.012
5725.0 0.012
5730.0 0.0121
5735.0 0.0121
5740.0 0.0121
5745.0 0.0121
5750.0 0.0121
5755.0 0.0121
5760.0 0.0121
5765.0 0.0122
5770.0 0.0122
5775.0 0.0122
5780.0 0.0122
5785.0 0.0122
5790.0 0.0122
5795.0 0.0122
5800.0 0.0122
5805.0 0.0122
5810.0 0.0122
5815.0 0.0123
5820.0 0.0123
5825.0 0.0123
5830.0 0.0123
5835.0 0.0123
5840.0 0.0123
5845.0 0.0123
5850.0 0.0123
5855.0 0.0123
5860.0 0.0123
5865.0 0.0123
5870.0 0.0123
5875.0 0.0123
5880.0 0.0124
5885.0 0.0124
5890.0 0.0124
5895.0 0.0124
5900.0 0.0124
5905.0 0.0124
5910.0 0.0124
5915.0 0.0124
5920.0 0.0124
5925.0 0.0124
5930.0 0.0124
5935.0 0.0124
5940.0 0.0124
5945.0 0.0124
5950.0 0.0124
5955.0 0.0124
5960.0 0.0124
5965.0 0.0124
5970.0 0.0124
5975.0 0.0124
5980.0 0.0124
5985.0 0.0124
5990.0 0.0124
5995.0 0.0124
6000.0 0.0124
6005.0 0.0124
6010.0 0.0124
6015.0 0.0124
6020.0 0.0123
6025.0 0.0123
6030.0 0.0123
6035.0 0.0123
6040.0 0.0123
6045.0 0.0123
6050.0 0.0123
6055.0 0.0123
6060.0 0.0123
6065.0 0.0123
6070.0 0.0123
6075.0 0.0122
6080.0 0.0122
6085.0 0.0122
6090.0 0.0122
6095.0 0.0122
6100.0 0.0122
6105.0 0.0122
6110.0 0.0122
6115.0 0.0122
6120.0 0.0121
6125.0 0.0121
6130.0 0.0121
6135.0 0.0121
6140.0 0.0121
6145.0 0.0121
6150.0 0.0121
6155.0 0.0121
6160.0 0.012
6165.0 0.012
6170.0 0.012
6175.0 0.012
6180.0 0.012
6185.0 0.012
6190.0 0.012
6195.0 0.0119
6200.0 0.0119
6205.0 0.0119
6210.0 0.0119
6215.0 0.0119
6220.0 0.0119
6225.0 0.0118
6230.0 0.0118
6235.0 0.0118
6240.0 0.0118
6245.0 0.0118
6250.0 0.0118
6255.0 0.0117
6260.0 0.0117
6265.0 0.0117
6270.0 0.0117
6275.0 0.0117
6280.0 0.0116
6285.0 0.0116
6290.0 0.0116
6295.0 0.0116
6300.0 0.0116
6305.0 0.0115
6310.0 0.0115
6315.0 0.0115
6320.0 0.0115
6325.0 0.0115
6330.0 0.0114
6335.0 0.0114
6340.0 0.0114
6345.0 0.0114
6350.0 0.0113
6355.0 0.0113
6360.0 0.0113
6365.0 0.0113
6370.0 0.0112
6375.0 0.0112
6380.0 0.0112
6385.0 0.0112
6390.0 0.0111
6395.0 0.0111
6400.0 0.0111
6405.0 0.0111
6410.0 0.0111
6415.0 0.011
6420.0 0.011
6425.0 0.011
6430.0 0.011
6435.0 0.0109
6440.0 0.0109
6445.0 0.0109
6450.0 0.0109
6455.0 0.0108
6460.0 0.0108
6465.0 0.0108
6470.0 0.0108
6475.0 0.0107
6480.0 0.0107
6485.0 0.0107
6490.0 0.0107
6495.0 0.0106
6500.0 0.0106
6505.0 0.0106
6510.0 0.0106
6515.0 0.0106
6520.0 0.0105
6525.0 0.0105
6530.0 0.0105
6535.0 0.0105
6540.0 0.0104
6545.0 0.0104
6550.0 0.0104
6555.0 0.0104
6560.0 0.0103
6565.0 0.0103
6570.0 0.0103
6575.0 0.0103
6580.0 0.0102
6585.0 0.0102
6590.0 0.0102
6595.0 0.0102
6600.0 0.0102
6605.0 0.0101
6610.0 0.0101
6615.0 0.0101
6620.0 0.0101
6625.0 0.01
6630.0 0.01
6635.0 0.00999
6640.0 0.00997
6645.0 0.00995
6650.0 0.00993
6655.0 0.0099
6660.0 0.00988
6665.0 0.00986
6670.0 0.00984
6675.0 0.00981
6680.0 0.00979
6685.0 0.00977
6690.0 0.00975
6695.0 0.00972
6700.0 0.0097
6705.0 0.00968
6710.0 0.00966
6715.0 0.00964
6720.0 0.00961
6725.0 0.00959
6730.0 0.00957
6735.0 0.00955
6740.0 0.00953
6745.0 0.0095
6750.0 0.00948
6755.0 0.00946
6760.0 0.00944
6765.0 0.00942
6770.0 0.0094
6775.0 0.00938
6780.0 0.00936
6785.0 0.00933
6790.0 0.00931
6795.0 0.00929
6800.0 0.00927
6805.0 0.00925
6810.0 0.00923
6815.0 0.00921
6820.0 0.00919
6825.0 0.00917
6830.0 0.00915
6835.0 0.00913
6840.0 0.00911
6845.0 0.00909
6850.0 0.00907
6855.0 0.00905
6860.0 0.00903
6865.0 0.00901
6870.0 0.00899
6875.0 0.00897
6880.0 0.00895
6885.0 0.00893
6890.0 0.00891
6895.0 0.00889
6900.0 0.00887
6905.0 0.00886
6910.0 0.00884
6915.0 0.00882
6920.0 0.0088
6925.0 0.00878
6930.0 0.00876
6935.0 0.00874
6940.0 0.00873
6945.0 0.00871
6950.0 0.00869
6955.0 0.00867
6960.0 0.00865
6965.0 0.00864
6970.0 0.00862
6975.0 0.0086
6980.0 0.00858
6985.0 0.00857
6990.0 0.00855
6995.0 0.00853
7000.0 0.00852
7005.0 0.0085
7010.0 0.00848
7015.0 0.00847
7020.0 0.00845
7025.0 0.00843
7030.0 0.00842
7035.0 0.0084
7040.0 0.00839
7045.0 0.00837
7050.0 0.00835
7055.0 0.00834
7060.0 0.00832
7065.0 0.00831
7070.0 0.00829
7075.0 0.00828
7080.0 0.00826
7085.0 0.00825
7090.0 0.00824
7095.0 0.00822
7100.0 0.00821
7105.0 0.00819
7110.0 0.00818
7115.0 0.00817
7120.0 0.00815
7125.0 0.00814
7130.0 0.00813
7135.0 0.00811
7140.0 0.0081
7145.0 0.00809
7150.0 0.00807
7155.0 0.00806
7160.0 0.00805
7165.0 0.00804
7170.0 0.00803
7175.0 0.00802
7180.0 0.008
7185.0 0.00799
7190.0 0.00798
7195.0 0.00797
7200.0 0.00796
7205.0 0.00795
7210.0 0.00794
7215.0 0.00793
7220.0 0.00792
7225.0 0.00791
7230.0 0.0079
7235.0 0.00789
7240.0 0.00788
7245.0 0.00787
7250.0 0.00786
7255.0 0.00785
7260.0 0.00784
7265.0 0.00783
7270.0 0.00783
7275.0 0.00782
7280.0 0.00781
7285.0 0.0078
7290.0 0.00779
7295.0 0.00779
7300.0 0.00778
7305.0 0.00777
7310.0 0.00776
7315.0 0.00776
7320.0 0.00775
7325.0 0.00774
7330.0 0.00773
7335.0 0.00773
7340.0 0.00772
7345.0 0.00771
7350.0 0.00771
7355.0 0.0077
7360.0 0.0077
7365.0 0.00769
7370.0 0.00768
7375.0 0.00768
7380.0 0.00767
7385.0 0.00767
7390.0 0.00766
7395.0 0.00766
7400.0 0.00765
7405.0 0.00765
7410.0 0.00764
7415.0 0.00764
7420.0 0.00763
7425.0 0.00763
7430.0 0.00762
7435.0 0.00762
7440.0 0.00761
7445.0 0.00761
7450.0 0.0076
7455.0 0.0076
7460.0 0.0076
7465.0 0.00759
7470.0 0.00759
7475.0 0.00758
7480.0 0.00758
7485.0 0.00758
7490.0 0.00757
7495.0 0.00757
7500.0 0.00757
7505.0 0.00756
7510.0 0.00756
7515.0 0.00756
7520.0 0.00756
7525.0 0.00755
7530.0 0.00755
7535.0 0.00755
7540.0 0.00755
7545.0 0.00754
7550.0 0.00754
7555.0 0.00754
7560.0 0.00754
7565.0 0.00754
7570.0 0.00754
7575.0 0.00753
7580.0 0.00753
7585.0 0.00753
7590.0 0.00753
7595.0 0.00753
7600.0 0.00753
7605.0 0.00753
7610.0 0.00753
7615.0 0.00753
7620.0 0.00753
7625.0 0.00753
7630.0 0.00753
7635.0 0.00753
7640.0 0.00753
7645.0 0.00753
7650.0 0.00753
7655.0 0.00753
7660.0 0.00753
7665.0 0.00753
7670.0 0.00753
7675.0 0.00753
7680.0 0.00753
7685.0 0.00753
7690.0 0.00754
7695.0 0.00754
7700.0 0.00754
7705.0 0.00754
7710.0 0.00754
7715.0 0.00755
7720.0 0.00755
7725.0 0.00755
7730.0 0.00755
7735.0 0.00756
7740.0 0.00756
7745.0 0.00756
7750.0 0.00757
7755.0 0.00757
7760.0 0.00757
7765.0 0.00758
7770.0 0.00758
7775.0 0.00759
7780.0 0.00759
7785.0 0.0076
7790.0 0.0076
7795.0 0.00761
7800.0 0.00761
7805.0 0.00762
7810.0 0.00762
7815.0 0.00763
7820.0 0.00764
7825.0 0.00764
7830.0 0.00765
7835.0 0.00766
7840.0 0.00766
7845.0 0.00767
7850.0 0.00768
7855.0 0.00768
7860.0 0.00769
7865.0 0.0077
7870.0 0.00771
7875.0 0.00772
7880.0 0.00772
7885.0 0.00773
7890.0 0.00774
7895.0 0.00775
7900.0 0.00776
7905.0 0.00776
7910.0 0.00777
7915.0 0.00778
7920.0 0.00779
7925.0 0.0078
7930.0 0.00781
7935.0 0.00782
7940.0 0.00783
7945.0 0.00783
7950.0 0.00784
7955.0 0.00785
7960.0 0.00786
7965.0 0.00787
7970.0 0.00788
7975.0 0.00789
7980.0 0.0079
7985.0 0.00791
7990.0 0.00792
7995.0 0.00793
8000.0 0.00794
8005.0 0.00795
8010.0 0.00796
8015.0 0.00797
8020.0 0.00798
8025.0 0.00799
8030.0 0.008
8035.0 0.00801
8040.0 0.00802
8045.0 0.00803
8050.0 0.00804
8055.0 0.00805
8060.0 0.00805
8065.0 0.00806
8070.0 0.00807
8075.0 0.00808
8080.0 0.00809
8085.0 0.0081
8090.0 0.00811
8095.0 0.00812
8100.0 0.00813
8105.0 0.00814
8110.0 0.00815
8115.0 0.00816
8120.0 0.00817
8125.0 0.00817
8130.0 0.00818
8135.0 0.00819
8140.0 0.0082
8145.0 0.00821
8150.0 0.00822
8155.0 0.00822
8160.0 0.00823
8165.0 0.00824
8170.0 0.00825
8175.0 0.00825
8180.0 0.00826
8185.0 0.00827
8190.0 0.00827
8195.0 0.00828
8200.0 0.00829
8205.0 0.00829
8210.0 0.0083
8215.0 0.0083
8220.0 0.00831
8225.0 0.00831
8230.0 0.00832
8235.0 0.00832
8240.0 0.00833
8245.0 0.00833
8250.0 0.00834
8255.0 0.00834
8260.0 0.00834
8265.0 0.00835
8270.0 0.00835
8275.0 0.00835
8280.0 0.00835
8285.0 0.00835
8290.0 0.00835
8295.0 0.00836
8300.0 0.00836
8305.0 0.00836
8310.0 0.00836
8315.0 0.00836
8320.0 0.00836
8325.0 0.00835
8330.0 0.00835
8335.0 0.00835
8340.0 0.00835
8345.0 0.00835
8350.0 0.00834
8355.0 0.00834
8360.0 0.00833
