#lamb flux
1605.0 0.000271
1610.0 0.000272
1615.0 0.000273
1620.0 0.000274
1625.0 0.000275
1630.0 0.000276
1635.0 0.000277
1640.0 0.000277
1645.0 0.000278
1650.0 0.000279
1655.0 0.00028
1660.0 0.000281
1665.0 0.000282
1670.0 0.000283
1675.0 0.000284
1680.0 0.000285
1685.0 0.000286
1690.0 0.000287
1695.0 0.000288
1700.0 0.000289
1705.0 0.00029
1710.0 0.000291
1715.0 0.000292
1720.0 0.000293
1725.0 0.000294
1730.0 0.000295
1735.0 0.000296
1740.0 0.000297
1745.0 0.000298
1750.0 0.000299
1755.0 0.0003
1760.0 0.000301
1765.0 0.000303
1770.0 0.000304
1775.0 0.000305
1780.0 0.000306
1785.0 0.000307
1790.0 0.000308
1795.0 0.000309
1800.0 0.00031
1805.0 0.000312
1810.0 0.000313
1815.0 0.000314
1820.0 0.000315
1825.0 0.000316
1830.0 0.000318
1835.0 0.000319
1840.0 0.00032
1845.0 0.000321
1850.0 0.000323
1855.0 0.000324
1860.0 0.000325
1865.0 0.000326
1870.0 0.000328
1875.0 0.000329
1880.0 0.00033
1885.0 0.000332
1890.0 0.000333
1895.0 0.000335
1900.0 0.000336
1905.0 0.000337
1910.0 0.000339
1915.0 0.00034
1920.0 0.000341
1925.0 0.000343
1930.0 0.000344
1935.0 0.000346
1940.0 0.000347
1945.0 0.000349
1950.0 0.00035
1955.0 0.000352
1960.0 0.000353
1965.0 0.000355
1970.0 0.000356
1975.0 0.000358
1980.0 0.000359
1985.0 0.000361
1990.0 0.000362
1995.0 0.000364
2000.0 0.000365
2005.0 0.000367
2010.0 0.000369
2015.0 0.00037
2020.0 0.000372
2025.0 0.000373
2030.0 0.000375
2035.0 0.000377
2040.0 0.000378
2045.0 0.00038
2050.0 0.000382
2055.0 0.000383
2060.0 0.000385
2065.0 0.000387
2070.0 0.000388
2075.0 0.00039
2080.0 0.000392
2085.0 0.000394
2090.0 0.000395
2095.0 0.000397
2100.0 0.000399
2105.0 0.000401
2110.0 0.000403
2115.0 0.000404
2120.0 0.000406
2125.0 0.000408
2130.0 0.00041
2135.0 0.000412
2140.0 0.000413
2145.0 0.000415
2150.0 0.000417
2155.0 0.000419
2160.0 0.000421
2165.0 0.000423
2170.0 0.000424
2175.0 0.000426
2180.0 0.000428
2185.0 0.00043
2190.0 0.000432
2195.0 0.000434
2200.0 0.000436
2205.0 0.000437
2210.0 0.000439
2215.0 0.000441
2220.0 0.000443
2225.0 0.000445
2230.0 0.000447
2235.0 0.000449
2240.0 0.000451
2245.0 0.000452
2250.0 0.000454
2255.0 0.000456
2260.0 0.000458
2265.0 0.00046
2270.0 0.000462
2275.0 0.000464
2280.0 0.000466
2285.0 0.000467
2290.0 0.000469
2295.0 0.000471
2300.0 0.000473
2305.0 0.000475
2310.0 0.000477
2315.0 0.000479
2320.0 0.000481
2325.0 0.000483
2330.0 0.000485
2335.0 0.000487
2340.0 0.000488
2345.0 0.00049
2350.0 0.000492
2355.0 0.000494
2360.0 0.000496
2365.0 0.000498
2370.0 0.0005
2375.0 0.000502
2380.0 0.000504
2385.0 0.000506
2390.0 0.000508
2395.0 0.00051
2400.0 0.000512
2405.0 0.000514
2410.0 0.000516
2415.0 0.000518
2420.0 0.00052
2425.0 0.000523
2430.0 0.000525
2435.0 0.000527
2440.0 0.000529
2445.0 0.000531
2450.0 0.000533
2455.0 0.000535
2460.0 0.000538
2465.0 0.00054
2470.0 0.000542
2475.0 0.000544
2480.0 0.000547
2485.0 0.000549
2490.0 0.000551
2495.0 0.000553
2500.0 0.000556
2505.0 0.000558
2510.0 0.00056
2515.0 0.000563
2520.0 0.000565
2525.0 0.000567
2530.0 0.00057
2535.0 0.000572
2540.0 0.000575
2545.0 0.000577
2550.0 0.00058
2555.0 0.000582
2560.0 0.000585
2565.0 0.000587
2570.0 0.00059
2575.0 0.000592
2580.0 0.000595
2585.0 0.000597
2590.0 0.0006
2595.0 0.000603
2600.0 0.000605
2605.0 0.000608
2610.0 0.000611
2615.0 0.000614
2620.0 0.000616
2625.0 0.000619
2630.0 0.000622
2635.0 0.000625
2640.0 0.000628
2645.0 0.00063
2650.0 0.000633
2655.0 0.000636
2660.0 0.000639
2665.0 0.000642
2670.0 0.000645
2675.0 0.000648
2680.0 0.000651
2685.0 0.000654
2690.0 0.000657
2695.0 0.00066
2700.0 0.000663
2705.0 0.000666
2710.0 0.000669
2715.0 0.000672
2720.0 0.000676
2725.0 0.000679
2730.0 0.000682
2735.0 0.000685
2740.0 0.000688
2745.0 0.000692
2750.0 0.000695
2755.0 0.000698
2760.0 0.000702
2765.0 0.000705
2770.0 0.000708
2775.0 0.000712
2780.0 0.000715
2785.0 0.000719
2790.0 0.000722
2795.0 0.000726
2800.0 0.000729
2805.0 0.000733
2810.0 0.000736
2815.0 0.00074
2820.0 0.000743
2825.0 0.000747
2830.0 0.000751
2835.0 0.000754
2840.0 0.000758
2845.0 0.000762
2850.0 0.000766
2855.0 0.000769
2860.0 0.000773
2865.0 0.000777
2870.0 0.000781
2875.0 0.000785
2880.0 0.000789
2885.0 0.000793
2890.0 0.000797
2895.0 0.0008
2900.0 0.000804
2905.0 0.000808
2910.0 0.000813
2915.0 0.000817
2920.0 0.000821
2925.0 0.000825
2930.0 0.000829
2935.0 0.000833
2940.0 0.000838
2945.0 0.000842
2950.0 0.000846
2955.0 0.000851
2960.0 0.000855
2965.0 0.00086
2970.0 0.000864
2975.0 0.000868
2980.0 0.000873
2985.0 0.000877
2990.0 0.000882
2995.0 0.000887
3000.0 0.000891
3005.0 0.000896
3010.0 0.000901
3015.0 0.000906
3020.0 0.000911
3025.0 0.000915
3030.0 0.00092
3035.0 0.000925
3040.0 0.00093
3045.0 0.000935
3050.0 0.000941
3055.0 0.000946
3060.0 0.000951
3065.0 0.000956
3070.0 0.000961
3075.0 0.000967
3080.0 0.000972
3085.0 0.000978
3090.0 0.000983
3095.0 0.000989
3100.0 0.000994
3105.0 0.001
3110.0 0.00101
3115.0 0.00101
3120.0 0.00102
3125.0 0.00102
3130.0 0.00103
3135.0 0.00103
3140.0 0.00104
3145.0 0.00105
3150.0 0.00105
3155.0 0.00106
3160.0 0.00107
3165.0 0.00107
3170.0 0.00108
3175.0 0.00108
3180.0 0.00109
3185.0 0.0011
3190.0 0.0011
3195.0 0.00111
3200.0 0.00112
3205.0 0.00112
3210.0 0.00113
3215.0 0.00114
3220.0 0.00114
3225.0 0.00115
3230.0 0.00116
3235.0 0.00116
3240.0 0.00117
3245.0 0.00118
3250.0 0.00118
3255.0 0.00119
3260.0 0.0012
3265.0 0.00121
3270.0 0.00121
3275.0 0.00122
3280.0 0.00123
3285.0 0.00123
3290.0 0.00124
3295.0 0.00125
3300.0 0.00125
3305.0 0.00126
3310.0 0.00127
3315.0 0.00127
3320.0 0.00128
3325.0 0.00129
3330.0 0.00129
3335.0 0.0013
3340.0 0.00131
3345.0 0.00131
3350.0 0.00132
3355.0 0.00133
3360.0 0.00133
3365.0 0.00134
3370.0 0.00134
3375.0 0.00135
3380.0 0.00135
3385.0 0.00136
3390.0 0.00136
3395.0 0.00137
3400.0 0.00137
3405.0 0.00138
3410.0 0.00138
3415.0 0.00139
3420.0 0.00139
3425.0 0.0014
3430.0 0.0014
3435.0 0.0014
3440.0 0.00141
3445.0 0.00141
3450.0 0.00141
3455.0 0.00141
3460.0 0.00142
3465.0 0.00142
3470.0 0.00142
3475.0 0.00142
3480.0 0.00142
3485.0 0.00142
3490.0 0.00142
3495.0 0.00142
3500.0 0.00142
3505.0 0.00142
3510.0 0.00142
3515.0 0.00142
3520.0 0.00142
3525.0 0.00142
3530.0 0.00142
3535.0 0.00142
3540.0 0.00142
3545.0 0.00142
3550.0 0.00142
3555.0 0.00141
3560.0 0.00141
3565.0 0.00141
3570.0 0.00141
3575.0 0.0014
3580.0 0.0014
3585.0 0.0014
3590.0 0.0014
3595.0 0.00139
3600.0 0.00139
3605.0 0.00139
3610.0 0.00138
3615.0 0.00138
3620.0 0.00138
3625.0 0.00137
3630.0 0.00137
3635.0 0.00137
3640.0 0.00136
3645.0 0.00136
3650.0 0.00136
3655.0 0.00135
3660.0 0.00135
3665.0 0.00135
3670.0 0.00134
3675.0 0.00134
3680.0 0.00134
3685.0 0.00133
3690.0 0.00133
3695.0 0.00133
3700.0 0.00133
3705.0 0.00132
3710.0 0.00132
3715.0 0.00132
3720.0 0.00132
3725.0 0.00132
3730.0 0.00132
3735.0 0.00132
3740.0 0.00131
3745.0 0.00131
3750.0 0.00132
3755.0 0.00132
3760.0 0.00132
3765.0 0.00132
3770.0 0.00132
3775.0 0.00132
3780.0 0.00133
3785.0 0.00133
3790.0 0.00133
3795.0 0.00134
3800.0 0.00134
3805.0 0.00134
3810.0 0.00135
3815.0 0.00135
3820.0 0.00136
3825.0 0.00136
3830.0 0.00137
3835.0 0.00137
3840.0 0.00138
3845.0 0.00139
3850.0 0.00139
3855.0 0.0014
3860.0 0.0014
3865.0 0.00141
3870.0 0.00142
3875.0 0.00142
3880.0 0.00143
3885.0 0.00143
3890.0 0.00144
3895.0 0.00144
3900.0 0.00145
3905.0 0.00145
3910.0 0.00146
3915.0 0.00146
3920.0 0.00146
3925.0 0.00147
3930.0 0.00147
3935.0 0.00147
3940.0 0.00147
3945.0 0.00147
3950.0 0.00147
3955.0 0.00147
3960.0 0.00147
3965.0 0.00147
3970.0 0.00147
3975.0 0.00147
3980.0 0.00147
3985.0 0.00146
3990.0 0.00146
3995.0 0.00145
4000.0 0.00145
4005.0 0.00144
4010.0 0.00144
4015.0 0.00143
4020.0 0.00143
4025.0 0.00142
4030.0 0.00141
4035.0 0.00141
4040.0 0.0014
4045.0 0.00139
4050.0 0.00138
4055.0 0.00138
4060.0 0.00137
4065.0 0.00136
4070.0 0.00135
4075.0 0.00135
4080.0 0.00134
4085.0 0.00133
4090.0 0.00132
4095.0 0.00131
4100.0 0.00131
4105.0 0.0013
4110.0 0.00129
4115.0 0.00129
4120.0 0.00128
4125.0 0.00127
4130.0 0.00126
4135.0 0.00126
4140.0 0.00125
4145.0 0.00125
4150.0 0.00124
4155.0 0.00123
4160.0 0.00123
4165.0 0.00122
4170.0 0.00122
4175.0 0.00121
4180.0 0.00121
4185.0 0.0012
4190.0 0.0012
4195.0 0.00119
4200.0 0.00119
4205.0 0.00118
4210.0 0.00118
4215.0 0.00118
4220.0 0.00117
4225.0 0.00117
4230.0 0.00117
4235.0 0.00116
4240.0 0.00116
4245.0 0.00116
4250.0 0.00115
4255.0 0.00115
4260.0 0.00115
4265.0 0.00115
4270.0 0.00115
4275.0 0.00114
4280.0 0.00114
4285.0 0.00114
4290.0 0.00114
4295.0 0.00114
4300.0 0.00114
4305.0 0.00114
4310.0 0.00114
4315.0 0.00114
4320.0 0.00114
4325.0 0.00114
4330.0 0.00115
4335.0 0.00115
4340.0 0.00115
4345.0 0.00116
4350.0 0.00116
4355.0 0.00117
4360.0 0.00117
4365.0 0.00118
4370.0 0.00118
4375.0 0.00119
4380.0 0.0012
4385.0 0.00121
4390.0 0.00122
4395.0 0.00123
4400.0 0.00124
4405.0 0.00125
4410.0 0.00126
4415.0 0.00127
4420.0 0.00129
4425.0 0.0013
4430.0 0.00132
4435.0 0.00134
4440.0 0.00135
4445.0 0.00137
4450.0 0.00139
4455.0 0.00141
4460.0 0.00143
4465.0 0.00145
4470.0 0.00147
4475.0 0.0015
4480.0 0.00152
4485.0 0.00154
4490.0 0.00157
4495.0 0.00159
4500.0 0.00162
4505.0 0.00164
4510.0 0.00167
4515.0 0.0017
4520.0 0.00172
4525.0 0.00175
4530.0 0.00178
4535.0 0.0018
4540.0 0.00183
4545.0 0.00185
4550.0 0.00188
4555.0 0.00191
4560.0 0.00193
4565.0 0.00195
4570.0 0.00198
4575.0 0.002
4580.0 0.00202
4585.0 0.00204
4590.0 0.00206
4595.0 0.00208
4600.0 0.00209
4605.0 0.00211
4610.0 0.00212
4615.0 0.00213
4620.0 0.00214
4625.0 0.00215
4630.0 0.00216
4635.0 0.00216
4640.0 0.00217
4645.0 0.00217
4650.0 0.00217
4655.0 0.00217
4660.0 0.00217
4665.0 0.00216
4670.0 0.00216
4675.0 0.00215
4680.0 0.00214
4685.0 0.00214
4690.0 0.00212
4695.0 0.00211
4700.0 0.0021
4705.0 0.00209
4710.0 0.00207
4715.0 0.00206
4720.0 0.00205
4725.0 0.00203
4730.0 0.00201
4735.0 0.002
4740.0 0.00198
4745.0 0.00197
4750.0 0.00195
4755.0 0.00193
4760.0 0.00192
4765.0 0.0019
4770.0 0.00188
4775.0 0.00187
4780.0 0.00185
4785.0 0.00184
4790.0 0.00182
4795.0 0.00181
4800.0 0.00179
4805.0 0.00178
4810.0 0.00177
4815.0 0.00175
4820.0 0.00174
4825.0 0.00173
4830.0 0.00172
4835.0 0.00171
4840.0 0.0017
4845.0 0.00169
4850.0 0.00168
4855.0 0.00167
4860.0 0.00166
4865.0 0.00165
4870.0 0.00165
4875.0 0.00164
4880.0 0.00163
4885.0 0.00162
4890.0 0.00162
4895.0 0.00161
4900.0 0.0016
4905.0 0.0016
4910.0 0.00159
4915.0 0.00158
4920.0 0.00158
4925.0 0.00157
4930.0 0.00156
4935.0 0.00156
4940.0 0.00155
4945.0 0.00154
4950.0 0.00154
4955.0 0.00153
4960.0 0.00152
4965.0 0.00152
4970.0 0.00151
4975.0 0.00151
4980.0 0.0015
4985.0 0.00149
4990.0 0.00149
4995.0 0.00148
5000.0 0.00148
5005.0 0.00147
5010.0 0.00147
5015.0 0.00146
5020.0 0.00146
5025.0 0.00145
5030.0 0.00145
5035.0 0.00144
5040.0 0.00144
5045.0 0.00144
5050.0 0.00144
5055.0 0.00143
5060.0 0.00143
5065.0 0.00143
5070.0 0.00143
5075.0 0.00143
5080.0 0.00143
5085.0 0.00143
5090.0 0.00143
5095.0 0.00143
5100.0 0.00143
5105.0 0.00143
5110.0 0.00143
5115.0 0.00143
5120.0 0.00143
5125.0 0.00144
5130.0 0.00144
5135.0 0.00144
5140.0 0.00144
5145.0 0.00145
5150.0 0.00145
5155.0 0.00145
5160.0 0.00146
5165.0 0.00146
5170.0 0.00147
5175.0 0.00147
5180.0 0.00148
5185.0 0.00148
5190.0 0.00149
5195.0 0.00149
5200.0 0.0015
5205.0 0.0015
5210.0 0.00151
5215.0 0.00151
5220.0 0.00152
5225.0 0.00152
5230.0 0.00153
5235.0 0.00153
5240.0 0.00154
5245.0 0.00154
5250.0 0.00154
5255.0 0.00155
5260.0 0.00155
5265.0 0.00156
5270.0 0.00156
5275.0 0.00156
5280.0 0.00157
5285.0 0.00157
5290.0 0.00157
5295.0 0.00158
5300.0 0.00158
5305.0 0.00158
5310.0 0.00159
5315.0 0.00159
5320.0 0.00159
5325.0 0.00159
5330.0 0.00159
5335.0 0.0016
5340.0 0.0016
5345.0 0.0016
5350.0 0.0016
5355.0 0.0016
5360.0 0.0016
5365.0 0.00161
5370.0 0.00161
5375.0 0.00161
5380.0 0.00161
5385.0 0.00161
5390.0 0.00161
5395.0 0.00161
5400.0 0.00161
5405.0 0.00161
5410.0 0.00161
5415.0 0.00161
5420.0 0.00161
5425.0 0.00161
5430.0 0.00161
5435.0 0.00161
5440.0 0.0016
5445.0 0.00159
5450.0 0.00159
5455.0 0.00158
5460.0 0.00157
5465.0 0.00157
5470.0 0.00156
5475.0 0.00155
5480.0 0.00154
5485.0 0.00153
5490.0 0.00152
5495.0 0.00151
5500.0 0.00149
5505.0 0.00148
5510.0 0.00147
5515.0 0.00145
5520.0 0.00144
5525.0 0.00142
5530.0 0.00141
5535.0 0.0014
5540.0 0.00138
5545.0 0.00137
5550.0 0.00136
5555.0 0.00135
5560.0 0.00133
5565.0 0.00132
5570.0 0.00131
5575.0 0.0013
5580.0 0.00129
5585.0 0.00128
5590.0 0.00127
5595.0 0.00126
5600.0 0.00126
5605.0 0.00125
5610.0 0.00124
5615.0 0.00124
5620.0 0.00123
5625.0 0.00123
5630.0 0.00122
5635.0 0.00122
5640.0 0.00121
5645.0 0.00121
5650.0 0.00121
5655.0 0.00121
5660.0 0.00121
5665.0 0.00121
5670.0 0.00121
5675.0 0.00122
5680.0 0.00122
5685.0 0.00122
5690.0 0.00123
5695.0 0.00123
5700.0 0.00124
5705.0 0.00124
5710.0 0.00125
5715.0 0.00126
5720.0 0.00127
5725.0 0.00128
5730.0 0.00128
5735.0 0.00129
5740.0 0.0013
5745.0 0.00131
5750.0 0.00132
5755.0 0.00133
5760.0 0.00135
5765.0 0.00136
5770.0 0.00137
5775.0 0.00138
5780.0 0.00139
5785.0 0.0014
5790.0 0.00141
5795.0 0.00143
5800.0 0.00144
5805.0 0.00145
5810.0 0.00146
5815.0 0.00147
5820.0 0.00148
5825.0 0.00149
5830.0 0.0015
5835.0 0.00151
5840.0 0.00152
5845.0 0.00153
5850.0 0.00154
5855.0 0.00155
5860.0 0.00156
5865.0 0.00157
5870.0 0.00157
5875.0 0.00158
5880.0 0.00159
5885.0 0.00159
5890.0 0.0016
5895.0 0.00161
5900.0 0.00161
5905.0 0.00161
5910.0 0.00162
5915.0 0.00162
5920.0 0.00163
5925.0 0.00163
5930.0 0.00163
5935.0 0.00164
5940.0 0.00164
5945.0 0.00164
5950.0 0.00164
5955.0 0.00164
5960.0 0.00164
5965.0 0.00164
5970.0 0.00164
5975.0 0.00164
5980.0 0.00164
5985.0 0.00164
5990.0 0.00164
5995.0 0.00164
6000.0 0.00164
6005.0 0.00164
6010.0 0.00163
6015.0 0.00163
6020.0 0.00163
6025.0 0.00163
6030.0 0.00163
6035.0 0.00162
6040.0 0.00162
6045.0 0.00162
6050.0 0.00161
6055.0 0.00161
6060.0 0.00161
6065.0 0.0016
6070.0 0.0016
6075.0 0.0016
6080.0 0.00159
6085.0 0.00159
6090.0 0.00159
6095.0 0.00158
6100.0 0.00158
6105.0 0.00157
6110.0 0.00157
6115.0 0.00157
6120.0 0.00156
6125.0 0.00156
6130.0 0.00156
6135.0 0.00156
6140.0 0.00155
6145.0 0.00155
6150.0 0.00155
6155.0 0.00155
6160.0 0.00155
6165.0 0.00154
6170.0 0.00154
6175.0 0.00154
6180.0 0.00154
6185.0 0.00154
6190.0 0.00155
6195.0 0.00155
6200.0 0.00155
6205.0 0.00155
6210.0 0.00155
6215.0 0.00156
6220.0 0.00156
6225.0 0.00157
6230.0 0.00157
6235.0 0.00158
6240.0 0.00158
6245.0 0.00159
6250.0 0.00159
6255.0 0.0016
6260.0 0.00161
6265.0 0.00161
6270.0 0.00162
6275.0 0.00163
6280.0 0.00163
6285.0 0.00164
6290.0 0.00165
6295.0 0.00166
6300.0 0.00167
6305.0 0.00167
6310.0 0.00168
6315.0 0.00169
6320.0 0.0017
6325.0 0.00171
6330.0 0.00171
6335.0 0.00172
6340.0 0.00173
6345.0 0.00173
6350.0 0.00174
6355.0 0.00175
6360.0 0.00175
6365.0 0.00176
6370.0 0.00177
6375.0 0.00177
6380.0 0.00178
6385.0 0.00178
6390.0 0.00179
6395.0 0.00179
6400.0 0.0018
6405.0 0.0018
6410.0 0.00181
6415.0 0.00181
6420.0 0.00182
6425.0 0.00182
6430.0 0.00182
6435.0 0.00183
6440.0 0.00183
6445.0 0.00184
6450.0 0.00184
6455.0 0.00184
6460.0 0.00185
6465.0 0.00185
6470.0 0.00185
6475.0 0.00186
6480.0 0.00186
6485.0 0.00186
6490.0 0.00187
6495.0 0.00187
6500.0 0.00187
6505.0 0.00187
6510.0 0.00188
6515.0 0.00188
6520.0 0.00188
6525.0 0.00188
6530.0 0.00189
6535.0 0.00189
6540.0 0.00189
6545.0 0.00189
6550.0 0.00189
6555.0 0.00189
6560.0 0.00189
6565.0 0.00189
6570.0 0.00189
6575.0 0.00189
6580.0 0.00189
6585.0 0.00189
6590.0 0.00189
6595.0 0.00189
6600.0 0.00188
6605.0 0.00188
6610.0 0.00188
6615.0 0.00187
6620.0 0.00187
6625.0 0.00187
6630.0 0.00186
6635.0 0.00186
6640.0 0.00185
6645.0 0.00185
6650.0 0.00184
6655.0 0.00184
6660.0 0.00183
6665.0 0.00183
6670.0 0.00182
6675.0 0.00181
6680.0 0.00181
6685.0 0.0018
6690.0 0.00179
6695.0 0.00179
6700.0 0.00178
6705.0 0.00177
6710.0 0.00177
6715.0 0.00176
6720.0 0.00175
6725.0 0.00174
6730.0 0.00174
6735.0 0.00173
6740.0 0.00172
6745.0 0.00172
6750.0 0.00171
6755.0 0.0017
6760.0 0.0017
6765.0 0.00169
6770.0 0.00168
6775.0 0.00168
6780.0 0.00167
6785.0 0.00166
6790.0 0.00166
6795.0 0.00165
6800.0 0.00165
6805.0 0.00164
6810.0 0.00164
6815.0 0.00163
6820.0 0.00163
6825.0 0.00162
6830.0 0.00162
6835.0 0.00162
6840.0 0.00161
6845.0 0.00161
6850.0 0.00161
6855.0 0.0016
6860.0 0.0016
6865.0 0.0016
6870.0 0.0016
6875.0 0.0016
6880.0 0.00159
6885.0 0.00159
6890.0 0.00159
6895.0 0.00159
6900.0 0.00159
6905.0 0.00159
6910.0 0.00159
6915.0 0.00159
6920.0 0.00159
6925.0 0.00159
6930.0 0.00159
6935.0 0.00159
6940.0 0.00159
6945.0 0.00159
6950.0 0.00159
6955.0 0.00159
6960.0 0.00159
6965.0 0.00159
6970.0 0.00159
6975.0 0.00159
6980.0 0.00159
6985.0 0.00159
6990.0 0.00159
6995.0 0.00159
7000.0 0.00159
7005.0 0.00159
7010.0 0.00159
7015.0 0.00159
7020.0 0.00159
7025.0 0.00159
7030.0 0.00159
7035.0 0.00159
7040.0 0.00159
7045.0 0.00159
7050.0 0.00159
7055.0 0.00159
7060.0 0.00159
7065.0 0.00159
7070.0 0.00159
7075.0 0.00159
7080.0 0.00159
7085.0 0.00159
7090.0 0.00159
7095.0 0.00159
7100.0 0.00159
7105.0 0.00159
7110.0 0.00159
7115.0 0.00159
7120.0 0.00159
7125.0 0.00159
7130.0 0.00159
7135.0 0.00159
7140.0 0.00159
7145.0 0.00159
7150.0 0.00159
7155.0 0.00159
7160.0 0.00159
7165.0 0.00159
7170.0 0.00159
7175.0 0.00159
7180.0 0.0016
7185.0 0.0016
7190.0 0.0016
7195.0 0.0016
7200.0 0.0016
7205.0 0.0016
7210.0 0.0016
7215.0 0.0016
7220.0 0.0016
7225.0 0.0016
7230.0 0.00161
7235.0 0.00161
7240.0 0.00161
7245.0 0.00161
7250.0 0.00161
7255.0 0.00161
7260.0 0.00161
7265.0 0.00162
7270.0 0.00162
7275.0 0.00162
7280.0 0.00162
7285.0 0.00162
7290.0 0.00162
7295.0 0.00162
7300.0 0.00162
7305.0 0.00162
7310.0 0.00163
7315.0 0.00163
7320.0 0.00163
7325.0 0.00162
7330.0 0.00162
7335.0 0.00162
7340.0 0.00162
7345.0 0.00162
7350.0 0.00162
7355.0 0.00162
7360.0 0.00162
7365.0 0.00161
7370.0 0.00161
7375.0 0.00161
7380.0 0.0016
7385.0 0.0016
7390.0 0.0016
7395.0 0.00159
7400.0 0.00159
7405.0 0.00158
7410.0 0.00158
7415.0 0.00157
7420.0 0.00157
7425.0 0.00156
7430.0 0.00155
7435.0 0.00155
7440.0 0.00154
7445.0 0.00153
7450.0 0.00153
7455.0 0.00152
7460.0 0.00151
7465.0 0.00151
7470.0 0.0015
7475.0 0.00149
7480.0 0.00149
7485.0 0.00148
7490.0 0.00147
7495.0 0.00147
7500.0 0.00146
7505.0 0.00146
7510.0 0.00145
7515.0 0.00144
7520.0 0.00144
7525.0 0.00144
7530.0 0.00143
7535.0 0.00143
7540.0 0.00142
7545.0 0.00142
7550.0 0.00142
7555.0 0.00142
7560.0 0.00141
7565.0 0.00141
7570.0 0.00141
7575.0 0.00141
7580.0 0.00141
7585.0 0.00141
7590.0 0.00141
7595.0 0.00141
7600.0 0.00141
7605.0 0.00141
7610.0 0.00141
7615.0 0.00142
7620.0 0.00142
7625.0 0.00142
7630.0 0.00143
7635.0 0.00143
7640.0 0.00143
7645.0 0.00144
7650.0 0.00144
7655.0 0.00144
7660.0 0.00145
7665.0 0.00145
7670.0 0.00146
7675.0 0.00146
7680.0 0.00147
7685.0 0.00147
7690.0 0.00148
7695.0 0.00148
7700.0 0.00149
7705.0 0.00149
7710.0 0.00149
7715.0 0.0015
7720.0 0.0015
7725.0 0.00151
7730.0 0.00151
7735.0 0.00151
7740.0 0.00152
7745.0 0.00152
7750.0 0.00152
7755.0 0.00153
7760.0 0.00153
7765.0 0.00153
7770.0 0.00153
7775.0 0.00153
7780.0 0.00154
7785.0 0.00154
7790.0 0.00154
7795.0 0.00154
7800.0 0.00154
7805.0 0.00154
7810.0 0.00153
7815.0 0.00153
7820.0 0.00153
7825.0 0.00153
7830.0 0.00153
7835.0 0.00152
7840.0 0.00152
7845.0 0.00152
7850.0 0.00151
7855.0 0.00151
7860.0 0.00151
7865.0 0.0015
7870.0 0.0015
7875.0 0.00149
7880.0 0.00149
7885.0 0.00148
7890.0 0.00147
7895.0 0.00147
7900.0 0.00146
7905.0 0.00146
7910.0 0.00145
7915.0 0.00144
7920.0 0.00143
7925.0 0.00143
7930.0 0.00142
7935.0 0.00141
7940.0 0.0014
7945.0 0.00139
7950.0 0.00138
7955.0 0.00137
7960.0 0.00136
7965.0 0.00135
7970.0 0.00135
7975.0 0.00134
7980.0 0.00132
7985.0 0.00131
7990.0 0.0013
7995.0 0.00129
8000.0 0.00128
8005.0 0.00127
8010.0 0.00126
8015.0 0.00125
8020.0 0.00124
8025.0 0.00122
8030.0 0.00121
8035.0 0.0012
8040.0 0.00119
8045.0 0.00118
8050.0 0.00117
8055.0 0.00115
8060.0 0.00114
8065.0 0.00113
8070.0 0.00112
8075.0 0.0011
8080.0 0.00109
8085.0 0.00108
8090.0 0.00107
8095.0 0.00106
8100.0 0.00105
8105.0 0.00104
8110.0 0.00102
8115.0 0.00101
8120.0 0.001
8125.0 0.000993
8130.0 0.000983
8135.0 0.000973
8140.0 0.000964
8145.0 0.000954
8150.0 0.000946
8155.0 0.000937
8160.0 0.00093
8165.0 0.000922
8170.0 0.000915
8175.0 0.000908
8180.0 0.000902
8185.0 0.000896
8190.0 0.000891
8195.0 0.000886
