#lamb flux
1605.0 0.000131
1610.0 0.000131
1615.0 0.000132
1620.0 0.000133
1625.0 0.000134
1630.0 0.000135
1635.0 0.000136
1640.0 0.000137
1645.0 0.000138
1650.0 0.000139
1655.0 0.00014
1660.0 0.000141
1665.0 0.000142
1670.0 0.000143
1675.0 0.000144
1680.0 0.000145
1685.0 0.000147
1690.0 0.000148
1695.0 0.000149
1700.0 0.00015
1705.0 0.000151
1710.0 0.000152
1715.0 0.000154
1720.0 0.000155
1725.0 0.000156
1730.0 0.000157
1735.0 0.000159
1740.0 0.00016
1745.0 0.000161
1750.0 0.000162
1755.0 0.000164
1760.0 0.000165
1765.0 0.000167
1770.0 0.000168
1775.0 0.000169
1780.0 0.000171
1785.0 0.000172
1790.0 0.000174
1795.0 0.000175
1800.0 0.000177
1805.0 0.000178
1810.0 0.00018
1815.0 0.000182
1820.0 0.000183
1825.0 0.000185
1830.0 0.000186
1835.0 0.000188
1840.0 0.00019
1845.0 0.000192
1850.0 0.000193
1855.0 0.000195
1860.0 0.000197
1865.0 0.000199
1870.0 0.000201
1875.0 0.000203
1880.0 0.000205
1885.0 0.000206
1890.0 0.000208
1895.0 0.00021
1900.0 0.000212
1905.0 0.000214
1910.0 0.000216
1915.0 0.000219
1920.0 0.000221
1925.0 0.000223
1930.0 0.000225
1935.0 0.000227
1940.0 0.000229
1945.0 0.000232
1950.0 0.000234
1955.0 0.000236
1960.0 0.000238
1965.0 0.000241
1970.0 0.000243
1975.0 0.000245
1980.0 0.000248
1985.0 0.00025
1990.0 0.000252
1995.0 0.000255
2000.0 0.000257
2005.0 0.00026
2010.0 0.000262
2015.0 0.000265
2020.0 0.000267
2025.0 0.00027
2030.0 0.000272
2035.0 0.000274
2040.0 0.000277
2045.0 0.000279
2050.0 0.000282
2055.0 0.000284
2060.0 0.000286
2065.0 0.000289
2070.0 0.000291
2075.0 0.000294
2080.0 0.000296
2085.0 0.000298
2090.0 0.0003
2095.0 0.000303
2100.0 0.000305
2105.0 0.000307
2110.0 0.00031
2115.0 0.000312
2120.0 0.000314
2125.0 0.000316
2130.0 0.000319
2135.0 0.000321
2140.0 0.000323
2145.0 0.000325
2150.0 0.000327
2155.0 0.00033
2160.0 0.000332
2165.0 0.000334
2170.0 0.000336
2175.0 0.000338
2180.0 0.000341
2185.0 0.000343
2190.0 0.000345
2195.0 0.000348
2200.0 0.00035
2205.0 0.000352
2210.0 0.000354
2215.0 0.000357
2220.0 0.000359
2225.0 0.000361
2230.0 0.000364
2235.0 0.000366
2240.0 0.000369
2245.0 0.000371
2250.0 0.000374
2255.0 0.000376
2260.0 0.000379
2265.0 0.000382
2270.0 0.000384
2275.0 0.000387
2280.0 0.00039
2285.0 0.000392
2290.0 0.000395
2295.0 0.000398
2300.0 0.000401
2305.0 0.000404
2310.0 0.000407
2315.0 0.00041
2320.0 0.000413
2325.0 0.000416
2330.0 0.000419
2335.0 0.000422
2340.0 0.000425
2345.0 0.000428
2350.0 0.000432
2355.0 0.000435
2360.0 0.000438
2365.0 0.000442
2370.0 0.000445
2375.0 0.000449
2380.0 0.000452
2385.0 0.000456
2390.0 0.00046
2395.0 0.000464
2400.0 0.000467
2405.0 0.000471
2410.0 0.000475
2415.0 0.000479
2420.0 0.000483
2425.0 0.000487
2430.0 0.000491
2435.0 0.000496
2440.0 0.0005
2445.0 0.000504
2450.0 0.000509
2455.0 0.000513
2460.0 0.000517
2465.0 0.000522
2470.0 0.000526
2475.0 0.000531
2480.0 0.000535
2485.0 0.00054
2490.0 0.000545
2495.0 0.00055
2500.0 0.000554
2505.0 0.000559
2510.0 0.000564
2515.0 0.000568
2520.0 0.000573
2525.0 0.000578
2530.0 0.000583
2535.0 0.000587
2540.0 0.000592
2545.0 0.000597
2550.0 0.000601
2555.0 0.000606
2560.0 0.00061
2565.0 0.000615
2570.0 0.000619
2575.0 0.000623
2580.0 0.000628
2585.0 0.000632
2590.0 0.000635
2595.0 0.000639
2600.0 0.000642
2605.0 0.000646
2610.0 0.000649
2615.0 0.000653
2620.0 0.000656
2625.0 0.000659
2630.0 0.000662
2635.0 0.000664
2640.0 0.000667
2645.0 0.000669
2650.0 0.000671
2655.0 0.000674
2660.0 0.000676
2665.0 0.000679
2670.0 0.00068
2675.0 0.000682
2680.0 0.000684
2685.0 0.000686
2690.0 0.000688
2695.0 0.000689
2700.0 0.000691
2705.0 0.000693
2710.0 0.000694
2715.0 0.000696
2720.0 0.000697
2725.0 0.000699
2730.0 0.000701
2735.0 0.000702
2740.0 0.000704
2745.0 0.000705
2750.0 0.000707
2755.0 0.000708
2760.0 0.00071
2765.0 0.000711
2770.0 0.000713
2775.0 0.000715
2780.0 0.000716
2785.0 0.000718
2790.0 0.000719
2795.0 0.000721
2800.0 0.000723
2805.0 0.000725
2810.0 0.000726
2815.0 0.000728
2820.0 0.00073
2825.0 0.000732
2830.0 0.000734
2835.0 0.000735
2840.0 0.000737
2845.0 0.000739
2850.0 0.000741
2855.0 0.000743
2860.0 0.000745
2865.0 0.000747
2870.0 0.000749
2875.0 0.000752
2880.0 0.000754
2885.0 0.000756
2890.0 0.000758
2895.0 0.00076
2900.0 0.000763
2905.0 0.000765
2910.0 0.000767
2915.0 0.00077
2920.0 0.000772
2925.0 0.000775
2930.0 0.000777
2935.0 0.00078
2940.0 0.000782
2945.0 0.000785
2950.0 0.000788
2955.0 0.000791
2960.0 0.000793
2965.0 0.000796
2970.0 0.000799
2975.0 0.000802
2980.0 0.000804
2985.0 0.000807
2990.0 0.00081
2995.0 0.000813
3000.0 0.000816
3005.0 0.000819
3010.0 0.000823
3015.0 0.000826
3020.0 0.000829
3025.0 0.000832
3030.0 0.000836
3035.0 0.000839
3040.0 0.000842
3045.0 0.000846
3050.0 0.000849
3055.0 0.000853
3060.0 0.000856
3065.0 0.00086
3070.0 0.000864
3075.0 0.000868
3080.0 0.000871
3085.0 0.000875
3090.0 0.000879
3095.0 0.000883
3100.0 0.000887
3105.0 0.000891
3110.0 0.000896
3115.0 0.0009
3120.0 0.000904
3125.0 0.000909
3130.0 0.000913
3135.0 0.000918
3140.0 0.000922
3145.0 0.000927
3150.0 0.000932
3155.0 0.000937
3160.0 0.000942
3165.0 0.000947
3170.0 0.000952
3175.0 0.000957
3180.0 0.000963
3185.0 0.000968
3190.0 0.000974
3195.0 0.000979
3200.0 0.000985
3205.0 0.000991
3210.0 0.000997
3215.0 0.001
3220.0 0.00101
3225.0 0.00102
3230.0 0.00102
3235.0 0.00103
3240.0 0.00104
3245.0 0.00104
3250.0 0.00105
3255.0 0.00106
3260.0 0.00106
3265.0 0.00107
3270.0 0.00108
3275.0 0.00109
3280.0 0.0011
3285.0 0.0011
3290.0 0.00111
3295.0 0.00112
3300.0 0.00113
3305.0 0.00114
3310.0 0.00115
3315.0 0.00116
3320.0 0.00116
3325.0 0.00117
3330.0 0.00118
3335.0 0.00119
3340.0 0.0012
3345.0 0.00121
3350.0 0.00122
3355.0 0.00123
3360.0 0.00124
3365.0 0.00125
3370.0 0.00126
3375.0 0.00127
3380.0 0.00128
3385.0 0.00129
3390.0 0.0013
3395.0 0.00131
3400.0 0.00132
3405.0 0.00133
3410.0 0.00134
3415.0 0.00134
3420.0 0.00135
3425.0 0.00136
3430.0 0.00137
3435.0 0.00138
3440.0 0.00138
3445.0 0.00139
3450.0 0.0014
3455.0 0.0014
3460.0 0.00141
3465.0 0.00141
3470.0 0.00142
3475.0 0.00142
3480.0 0.00143
3485.0 0.00143
3490.0 0.00144
3495.0 0.00144
3500.0 0.00144
3505.0 0.00145
3510.0 0.00145
3515.0 0.00145
3520.0 0.00145
3525.0 0.00145
3530.0 0.00145
3535.0 0.00146
3540.0 0.00146
3545.0 0.00146
3550.0 0.00146
3555.0 0.00146
3560.0 0.00146
3565.0 0.00145
3570.0 0.00145
3575.0 0.00145
3580.0 0.00145
3585.0 0.00145
3590.0 0.00145
3595.0 0.00145
3600.0 0.00144
3605.0 0.00144
3610.0 0.00144
3615.0 0.00143
3620.0 0.00143
3625.0 0.00143
3630.0 0.00142
3635.0 0.00142
3640.0 0.00141
3645.0 0.00141
3650.0 0.0014
3655.0 0.0014
3660.0 0.00139
3665.0 0.00138
3670.0 0.00138
3675.0 0.00137
3680.0 0.00136
3685.0 0.00136
3690.0 0.00135
3695.0 0.00134
3700.0 0.00134
3705.0 0.00133
3710.0 0.00133
3715.0 0.00132
3720.0 0.00132
3725.0 0.00131
3730.0 0.00131
3735.0 0.00131
3740.0 0.00131
3745.0 0.00131
3750.0 0.00131
3755.0 0.00131
3760.0 0.00132
3765.0 0.00132
3770.0 0.00133
3775.0 0.00134
3780.0 0.00134
3785.0 0.00135
3790.0 0.00136
3795.0 0.00137
3800.0 0.00139
3805.0 0.0014
3810.0 0.00141
3815.0 0.00142
3820.0 0.00143
3825.0 0.00145
3830.0 0.00146
3835.0 0.00147
3840.0 0.00148
3845.0 0.00149
3850.0 0.0015
3855.0 0.0015
3860.0 0.00151
3865.0 0.00152
3870.0 0.00152
3875.0 0.00152
3880.0 0.00152
3885.0 0.00152
3890.0 0.00152
3895.0 0.00152
3900.0 0.00152
3905.0 0.00152
3910.0 0.00151
3915.0 0.00151
3920.0 0.0015
3925.0 0.0015
3930.0 0.00149
3935.0 0.00149
3940.0 0.00148
3945.0 0.00147
3950.0 0.00146
3955.0 0.00146
3960.0 0.00145
3965.0 0.00144
3970.0 0.00144
3975.0 0.00143
3980.0 0.00142
3985.0 0.00141
3990.0 0.00141
3995.0 0.0014
4000.0 0.00139
4005.0 0.00138
4010.0 0.00138
4015.0 0.00137
4020.0 0.00136
4025.0 0.00135
4030.0 0.00134
4035.0 0.00134
4040.0 0.00133
4045.0 0.00132
4050.0 0.00131
4055.0 0.00131
4060.0 0.0013
4065.0 0.00129
4070.0 0.00128
4075.0 0.00128
4080.0 0.00127
4085.0 0.00126
4090.0 0.00126
4095.0 0.00125
4100.0 0.00124
4105.0 0.00123
4110.0 0.00123
4115.0 0.00122
4120.0 0.00121
4125.0 0.00121
4130.0 0.0012
4135.0 0.00119
4140.0 0.00119
4145.0 0.00118
4150.0 0.00117
4155.0 0.00117
4160.0 0.00116
4165.0 0.00115
4170.0 0.00114
4175.0 0.00114
4180.0 0.00113
4185.0 0.00112
4190.0 0.00111
4195.0 0.0011
4200.0 0.00109
4205.0 0.00108
4210.0 0.00107
4215.0 0.00106
4220.0 0.00105
4225.0 0.00104
4230.0 0.00102
4235.0 0.00101
4240.0 0.001
4245.0 0.00099
4250.0 0.000978
4255.0 0.000967
4260.0 0.000956
4265.0 0.000945
4270.0 0.000934
4275.0 0.000924
4280.0 0.000914
4285.0 0.000904
4290.0 0.000895
4295.0 0.000886
4300.0 0.000878
4305.0 0.000871
4310.0 0.000864
4315.0 0.000857
4320.0 0.000852
4325.0 0.000847
4330.0 0.000843
4335.0 0.000839
4340.0 0.000837
4345.0 0.000834
4350.0 0.000833
4355.0 0.000832
4360.0 0.000832
4365.0 0.000833
4370.0 0.000834
4375.0 0.000835
4380.0 0.000837
4385.0 0.000839
4390.0 0.000841
4395.0 0.000844
4400.0 0.000847
4405.0 0.000849
4410.0 0.000852
4415.0 0.000854
4420.0 0.000856
4425.0 0.000858
4430.0 0.00086
4435.0 0.000861
4440.0 0.000862
4445.0 0.000862
4450.0 0.000862
4455.0 0.000862
4460.0 0.00086
4465.0 0.000859
4470.0 0.000856
4475.0 0.000853
4480.0 0.00085
4485.0 0.000846
4490.0 0.000841
4495.0 0.000837
4500.0 0.000832
4505.0 0.000826
4510.0 0.000821
4515.0 0.000815
4520.0 0.000809
4525.0 0.000804
4530.0 0.000798
4535.0 0.000793
4540.0 0.000788
4545.0 0.000783
4550.0 0.000778
4555.0 0.000774
4560.0 0.000771
4565.0 0.000768
4570.0 0.000766
4575.0 0.000765
4580.0 0.000764
4585.0 0.000764
4590.0 0.000765
4595.0 0.000766
4600.0 0.000769
4605.0 0.000772
4610.0 0.000777
4615.0 0.000782
4620.0 0.000789
4625.0 0.000796
4630.0 0.000805
4635.0 0.000815
4640.0 0.000826
4645.0 0.000838
4650.0 0.000853
4655.0 0.000867
4660.0 0.000884
4665.0 0.000902
4670.0 0.000921
4675.0 0.000942
4680.0 0.000964
4685.0 0.000986
4690.0 0.00101
4695.0 0.00103
4700.0 0.00106
4705.0 0.00109
4710.0 0.00111
4715.0 0.00114
4720.0 0.00116
4725.0 0.00118
4730.0 0.0012
4735.0 0.00122
4740.0 0.00124
4745.0 0.00125
4750.0 0.00126
4755.0 0.00126
4760.0 0.00126
4765.0 0.00126
4770.0 0.00125
4775.0 0.00123
4780.0 0.00122
4785.0 0.0012
4790.0 0.00118
4795.0 0.00116
4800.0 0.00114
4805.0 0.00112
4810.0 0.00109
4815.0 0.00107
4820.0 0.00105
4825.0 0.00103
4830.0 0.001
4835.0 0.000983
4840.0 0.000962
4845.0 0.000942
4850.0 0.000922
4855.0 0.000903
4860.0 0.000885
4865.0 0.000867
4870.0 0.00085
4875.0 0.000834
4880.0 0.000818
4885.0 0.000803
4890.0 0.000789
4895.0 0.000775
4900.0 0.000762
4905.0 0.00075
4910.0 0.000737
4915.0 0.000726
4920.0 0.000715
4925.0 0.000705
4930.0 0.000695
4935.0 0.000686
4940.0 0.000678
4945.0 0.00067
4950.0 0.000662
4955.0 0.000655
4960.0 0.000649
4965.0 0.000643
4970.0 0.000637
4975.0 0.000632
4980.0 0.000628
4985.0 0.000623
4990.0 0.00062
4995.0 0.000617
5000.0 0.000614
5005.0 0.000611
5010.0 0.000609
5015.0 0.000607
5020.0 0.000605
5025.0 0.000604
5030.0 0.000603
5035.0 0.000603
5040.0 0.000602
5045.0 0.000602
5050.0 0.000602
5055.0 0.000602
5060.0 0.000602
5065.0 0.000603
5070.0 0.000603
5075.0 0.000604
5080.0 0.000605
5085.0 0.000606
5090.0 0.000607
5095.0 0.000608
5100.0 0.00061
5105.0 0.000611
5110.0 0.000612
5115.0 0.000614
5120.0 0.000616
5125.0 0.000617
5130.0 0.000619
5135.0 0.00062
5140.0 0.000622
5145.0 0.000624
5150.0 0.000625
5155.0 0.000627
5160.0 0.000628
5165.0 0.00063
5170.0 0.000631
5175.0 0.000632
5180.0 0.000634
5185.0 0.000635
5190.0 0.000636
5195.0 0.000638
5200.0 0.000639
5205.0 0.00064
5210.0 0.000642
5215.0 0.000643
5220.0 0.000645
5225.0 0.000647
5230.0 0.000649
5235.0 0.000651
5240.0 0.000653
5245.0 0.000656
5250.0 0.000659
5255.0 0.000662
5260.0 0.000665
5265.0 0.000669
5270.0 0.000673
5275.0 0.000677
5280.0 0.000681
5285.0 0.000686
5290.0 0.000691
5295.0 0.000696
5300.0 0.000701
5305.0 0.000707
5310.0 0.000713
5315.0 0.000719
5320.0 0.000726
5325.0 0.000732
5330.0 0.000739
5335.0 0.000747
5340.0 0.000755
5345.0 0.000763
5350.0 0.000771
5355.0 0.00078
5360.0 0.000789
5365.0 0.000799
5370.0 0.000809
5375.0 0.000819
5380.0 0.00083
5385.0 0.000841
5390.0 0.000852
5395.0 0.000863
5400.0 0.000874
5405.0 0.000885
5410.0 0.000896
5415.0 0.000906
5420.0 0.000916
5425.0 0.000924
5430.0 0.000931
5435.0 0.000936
5440.0 0.000939
5445.0 0.000939
5450.0 0.000938
5455.0 0.000932
5460.0 0.000926
5465.0 0.000915
5470.0 0.000903
5475.0 0.000887
5480.0 0.000871
5485.0 0.000852
5490.0 0.000833
5495.0 0.000813
5500.0 0.000792
5505.0 0.000771
5510.0 0.000751
5515.0 0.00073
5520.0 0.00071
5525.0 0.000691
5530.0 0.000672
5535.0 0.000655
5540.0 0.000637
5545.0 0.000621
5550.0 0.000605
5555.0 0.000591
5560.0 0.000576
5565.0 0.000563
5570.0 0.00055
5575.0 0.000539
5580.0 0.000527
5585.0 0.000517
5590.0 0.000507
5595.0 0.000498
5600.0 0.000489
5605.0 0.000481
5610.0 0.000473
5615.0 0.000466
5620.0 0.000459
5625.0 0.000453
5630.0 0.000447
5635.0 0.000441
5640.0 0.000436
5645.0 0.000431
5650.0 0.000426
5655.0 0.000422
5660.0 0.000418
5665.0 0.000414
5670.0 0.000411
5675.0 0.000407
5680.0 0.000404
5685.0 0.000402
5690.0 0.000399
5695.0 0.000396
5700.0 0.000394
5705.0 0.000392
5710.0 0.00039
5715.0 0.000388
5720.0 0.000387
5725.0 0.000385
5730.0 0.000384
5735.0 0.000382
5740.0 0.000381
5745.0 0.00038
5750.0 0.000378
5755.0 0.000377
5760.0 0.000376
5765.0 0.000375
5770.0 0.000374
5775.0 0.000373
5780.0 0.000372
5785.0 0.00037
5790.0 0.000369
5795.0 0.000368
5800.0 0.000367
5805.0 0.000366
5810.0 0.000365
5815.0 0.000364
5820.0 0.000363
5825.0 0.000362
5830.0 0.000361
5835.0 0.00036
5840.0 0.00036
5845.0 0.000359
5850.0 0.000358
5855.0 0.000358
5860.0 0.000357
5865.0 0.000357
5870.0 0.000356
5875.0 0.000356
5880.0 0.000356
5885.0 0.000356
5890.0 0.000356
5895.0 0.000357
5900.0 0.000357
5905.0 0.000358
5910.0 0.000359
5915.0 0.000359
5920.0 0.000361
5925.0 0.000362
5930.0 0.000363
5935.0 0.000365
5940.0 0.000367
5945.0 0.000369
5950.0 0.000371
5955.0 0.000373
5960.0 0.000376
5965.0 0.000378
5970.0 0.000381
5975.0 0.000384
5980.0 0.000388
5985.0 0.000391
5990.0 0.000395
5995.0 0.000399
6000.0 0.000403
6005.0 0.000407
6010.0 0.000412
6015.0 0.000417
6020.0 0.000422
6025.0 0.000428
6030.0 0.000434
6035.0 0.00044
6040.0 0.000447
6045.0 0.000453
6050.0 0.000461
6055.0 0.000468
6060.0 0.000477
6065.0 0.000485
6070.0 0.000495
6075.0 0.000505
6080.0 0.000516
6085.0 0.000527
6090.0 0.000539
6095.0 0.000552
6100.0 0.000566
6105.0 0.000581
6110.0 0.000598
6115.0 0.000615
6120.0 0.000634
6125.0 0.000653
6130.0 0.000675
6135.0 0.000696
6140.0 0.000721
6145.0 0.000745
6150.0 0.000771
6155.0 0.000798
6160.0 0.000825
6165.0 0.000853
6170.0 0.000881
6175.0 0.000908
6180.0 0.000934
6185.0 0.00096
6190.0 0.000983
6195.0 0.001
6200.0 0.00102
6205.0 0.00104
6210.0 0.00105
6215.0 0.00106
6220.0 0.00107
6225.0 0.00107
6230.0 0.00108
6235.0 0.00108
6240.0 0.00108
6245.0 0.00108
6250.0 0.00107
6255.0 0.00107
6260.0 0.00107
6265.0 0.00107
6270.0 0.00106
6275.0 0.00106
6280.0 0.00106
6285.0 0.00106
6290.0 0.00106
6295.0 0.00107
6300.0 0.00107
6305.0 0.00107
6310.0 0.00108
6315.0 0.00108
6320.0 0.00109
6325.0 0.00109
6330.0 0.0011
6335.0 0.00111
6340.0 0.00112
6345.0 0.00113
6350.0 0.00114
6355.0 0.00115
6360.0 0.00116
6365.0 0.00117
6370.0 0.00118
6375.0 0.00119
6380.0 0.0012
6385.0 0.00121
6390.0 0.00122
6395.0 0.00123
6400.0 0.00123
6405.0 0.00124
6410.0 0.00125
6415.0 0.00126
6420.0 0.00126
6425.0 0.00127
6430.0 0.00127
6435.0 0.00128
6440.0 0.00128
6445.0 0.00128
6450.0 0.00128
6455.0 0.00129
6460.0 0.00129
6465.0 0.00129
6470.0 0.00129
6475.0 0.00129
6480.0 0.00129
6485.0 0.00129
6490.0 0.00129
6495.0 0.00129
6500.0 0.00129
6505.0 0.00128
6510.0 0.00128
6515.0 0.00128
6520.0 0.00127
6525.0 0.00127
6530.0 0.00126
6535.0 0.00126
6540.0 0.00125
6545.0 0.00125
6550.0 0.00124
6555.0 0.00124
6560.0 0.00123
6565.0 0.00123
6570.0 0.00122
6575.0 0.00121
6580.0 0.00121
6585.0 0.0012
6590.0 0.00119
6595.0 0.00118
6600.0 0.00117
6605.0 0.00116
6610.0 0.00115
6615.0 0.00114
6620.0 0.00114
6625.0 0.00113
6630.0 0.00112
6635.0 0.00111
6640.0 0.0011
6645.0 0.00109
6650.0 0.00108
6655.0 0.00107
6660.0 0.00106
6665.0 0.00106
6670.0 0.00105
6675.0 0.00104
6680.0 0.00103
6685.0 0.00102
6690.0 0.00102
6695.0 0.00101
6700.0 0.000999
6705.0 0.000991
6710.0 0.000983
6715.0 0.000975
6720.0 0.000967
6725.0 0.000959
6730.0 0.00095
6735.0 0.000942
6740.0 0.000933
6745.0 0.000924
6750.0 0.000915
6755.0 0.000905
6760.0 0.000896
6765.0 0.000886
6770.0 0.000876
6775.0 0.000866
6780.0 0.000855
6785.0 0.000845
6790.0 0.000834
6795.0 0.000824
6800.0 0.000813
6805.0 0.000803
6810.0 0.000792
6815.0 0.000782
6820.0 0.000772
6825.0 0.000763
6830.0 0.000754
6835.0 0.000745
6840.0 0.000737
6845.0 0.000729
6850.0 0.000722
6855.0 0.000715
6860.0 0.000709
6865.0 0.000704
6870.0 0.000698
6875.0 0.000693
6880.0 0.000689
6885.0 0.000685
6890.0 0.000681
6895.0 0.000678
6900.0 0.000674
6905.0 0.000671
6910.0 0.000668
6915.0 0.000666
6920.0 0.000663
6925.0 0.00066
6930.0 0.000658
6935.0 0.000655
6940.0 0.000652
6945.0 0.000649
6950.0 0.000647
6955.0 0.000644
6960.0 0.000641
6965.0 0.000638
6970.0 0.000635
6975.0 0.000632
6980.0 0.000629
6985.0 0.000626
6990.0 0.000623
6995.0 0.00062
7000.0 0.000617
7005.0 0.000614
7010.0 0.000611
7015.0 0.000607
7020.0 0.000604
7025.0 0.0006
7030.0 0.000597
7035.0 0.000593
7040.0 0.00059
7045.0 0.000586
7050.0 0.000582
7055.0 0.000578
7060.0 0.000574
7065.0 0.000569
7070.0 0.000565
7075.0 0.000561
7080.0 0.000556
7085.0 0.000551
7090.0 0.000547
7095.0 0.000542
7100.0 0.000537
7105.0 0.000532
7110.0 0.000527
7115.0 0.000522
7120.0 0.000518
7125.0 0.000513
7130.0 0.000508
7135.0 0.000504
7140.0 0.000499
7145.0 0.000495
7150.0 0.000491
7155.0 0.000487
7160.0 0.000484
7165.0 0.00048
7170.0 0.000477
7175.0 0.000474
7180.0 0.000471
7185.0 0.000469
7190.0 0.000467
7195.0 0.000465
7200.0 0.000463
7205.0 0.000461
7210.0 0.000459
7215.0 0.000458
7220.0 0.000457
7225.0 0.000456
7230.0 0.000456
7235.0 0.000455
7240.0 0.000455
7245.0 0.000455
7250.0 0.000454
7255.0 0.000455
7260.0 0.000455
7265.0 0.000455
7270.0 0.000456
7275.0 0.000456
7280.0 0.000457
7285.0 0.000457
7290.0 0.000458
7295.0 0.000459
7300.0 0.000459
7305.0 0.00046
7310.0 0.000461
7315.0 0.000461
7320.0 0.000462
7325.0 0.000463
7330.0 0.000464
7335.0 0.000464
7340.0 0.000465
7345.0 0.000466
7350.0 0.000466
7355.0 0.000467
7360.0 0.000468
7365.0 0.000469
7370.0 0.00047
7375.0 0.000471
7380.0 0.000472
7385.0 0.000473
7390.0 0.000474
7395.0 0.000476
7400.0 0.000477
7405.0 0.000479
7410.0 0.000481
7415.0 0.000483
7420.0 0.000485
7425.0 0.000487
7430.0 0.00049
7435.0 0.000493
7440.0 0.000496
7445.0 0.000499
7450.0 0.000503
7455.0 0.000507
7460.0 0.000511
7465.0 0.000515
7470.0 0.000519
7475.0 0.000524
7480.0 0.000529
7485.0 0.000533
7490.0 0.000538
7495.0 0.000543
7500.0 0.000547
7505.0 0.000552
7510.0 0.000555
7515.0 0.000559
7520.0 0.000562
7525.0 0.000564
7530.0 0.000565
7535.0 0.000566
7540.0 0.000565
7545.0 0.000563
7550.0 0.00056
7555.0 0.000557
7560.0 0.000551
7565.0 0.000545
7570.0 0.000538
7575.0 0.00053
7580.0 0.000521
7585.0 0.000512
7590.0 0.000502
7595.0 0.000493
7600.0 0.000484
7605.0 0.000474
7610.0 0.000466
7615.0 0.000457
7620.0 0.000449
7625.0 0.000442
7630.0 0.000435
7635.0 0.000429
7640.0 0.000423
7645.0 0.000417
7650.0 0.000412
7655.0 0.000407
7660.0 0.000403
7665.0 0.000399
7670.0 0.000395
7675.0 0.000391
7680.0 0.000387
7685.0 0.000384
7690.0 0.000381
7695.0 0.000377
7700.0 0.000374
7705.0 0.000371
7710.0 0.000368
7715.0 0.000365
7720.0 0.000363
7725.0 0.00036
7730.0 0.000358
7735.0 0.000356
7740.0 0.000354
7745.0 0.000352
7750.0 0.00035
7755.0 0.000348
7760.0 0.000347
7765.0 0.000346
7770.0 0.000345
7775.0 0.000343
7780.0 0.000343
7785.0 0.000342
7790.0 0.000342
7795.0 0.000341
7800.0 0.000341
7805.0 0.000341
7810.0 0.000341
7815.0 0.000341
7820.0 0.000342
7825.0 0.000342
7830.0 0.000343
7835.0 0.000344
7840.0 0.000345
7845.0 0.000347
7850.0 0.000348
7855.0 0.00035
7860.0 0.000352
7865.0 0.000354
7870.0 0.000357
7875.0 0.000359
7880.0 0.000362
7885.0 0.000365
7890.0 0.000368
7895.0 0.000372
7900.0 0.000376
7905.0 0.00038
7910.0 0.000384
7915.0 0.000388
7920.0 0.000393
7925.0 0.000398
7930.0 0.000403
7935.0 0.000408
7940.0 0.000413
7945.0 0.000417
7950.0 0.000422
7955.0 0.000426
7960.0 0.000429
7965.0 0.000432
7970.0 0.000434
7975.0 0.000436
7980.0 0.000435
