#lamb flux
1605.0 0.00403
1610.0 0.00403
1615.0 0.00404
1620.0 0.00405
1625.0 0.00406
1630.0 0.00407
1635.0 0.00407
1640.0 0.00408
1645.0 0.00409
1650.0 0.0041
1655.0 0.00411
1660.0 0.00411
1665.0 0.00412
1670.0 0.00413
1675.0 0.00414
1680.0 0.00415
1685.0 0.00416
1690.0 0.00417
1695.0 0.00418
1700.0 0.00418
1705.0 0.00419
1710.0 0.0042
1715.0 0.00421
1720.0 0.00422
1725.0 0.00423
1730.0 0.00424
1735.0 0.00425
1740.0 0.00426
1745.0 0.00427
1750.0 0.00428
1755.0 0.00429
1760.0 0.0043
1765.0 0.00431
1770.0 0.00432
1775.0 0.00433
1780.0 0.00434
1785.0 0.00435
1790.0 0.00436
1795.0 0.00437
1800.0 0.00438
1805.0 0.00439
1810.0 0.0044
1815.0 0.00441
1820.0 0.00442
1825.0 0.00443
1830.0 0.00444
1835.0 0.00446
1840.0 0.00447
1845.0 0.00448
1850.0 0.00449
1855.0 0.0045
1860.0 0.00451
1865.0 0.00452
1870.0 0.00454
1875.0 0.00455
1880.0 0.00456
1885.0 0.00457
1890.0 0.00459
1895.0 0.0046
1900.0 0.00461
1905.0 0.00462
1910.0 0.00464
1915.0 0.00465
1920.0 0.00466
1925.0 0.00468
1930.0 0.00469
1935.0 0.0047
1940.0 0.00471
1945.0 0.00473
1950.0 0.00474
1955.0 0.00476
1960.0 0.00477
1965.0 0.00478
1970.0 0.0048
1975.0 0.00481
1980.0 0.00483
1985.0 0.00484
1990.0 0.00486
1995.0 0.00487
2000.0 0.00489
2005.0 0.0049
2010.0 0.00492
2015.0 0.00493
2020.0 0.00495
2025.0 0.00496
2030.0 0.00498
2035.0 0.005
2040.0 0.00501
2045.0 0.00503
2050.0 0.00505
2055.0 0.00506
2060.0 0.00508
2065.0 0.0051
2070.0 0.00512
2075.0 0.00513
2080.0 0.00515
2085.0 0.00517
2090.0 0.00519
2095.0 0.00521
2100.0 0.00522
2105.0 0.00524
2110.0 0.00526
2115.0 0.00528
2120.0 0.0053
2125.0 0.00532
2130.0 0.00534
2135.0 0.00536
2140.0 0.00538
2145.0 0.0054
2150.0 0.00542
2155.0 0.00545
2160.0 0.00547
2165.0 0.00549
2170.0 0.00551
2175.0 0.00553
2180.0 0.00556
2185.0 0.00558
2190.0 0.0056
2195.0 0.00563
2200.0 0.00565
2205.0 0.00568
2210.0 0.0057
2215.0 0.00573
2220.0 0.00575
2225.0 0.00578
2230.0 0.0058
2235.0 0.00583
2240.0 0.00586
2245.0 0.00589
2250.0 0.00591
2255.0 0.00594
2260.0 0.00597
2265.0 0.006
2270.0 0.00603
2275.0 0.00606
2280.0 0.00609
2285.0 0.00612
2290.0 0.00615
2295.0 0.00618
2300.0 0.00621
2305.0 0.00624
2310.0 0.00628
2315.0 0.00631
2320.0 0.00635
2325.0 0.00638
2330.0 0.00641
2335.0 0.00645
2340.0 0.00648
2345.0 0.00652
2350.0 0.00655
2355.0 0.00659
2360.0 0.00663
2365.0 0.00667
2370.0 0.00671
2375.0 0.00674
2380.0 0.00678
2385.0 0.00682
2390.0 0.00686
2395.0 0.0069
2400.0 0.00694
2405.0 0.00699
2410.0 0.00703
2415.0 0.00707
2420.0 0.00711
2425.0 0.00715
2430.0 0.0072
2435.0 0.00724
2440.0 0.00729
2445.0 0.00733
2450.0 0.00738
2455.0 0.00743
2460.0 0.00747
2465.0 0.00752
2470.0 0.00757
2475.0 0.00762
2480.0 0.00767
2485.0 0.00772
2490.0 0.00777
2495.0 0.00782
2500.0 0.00787
2505.0 0.00792
2510.0 0.00797
2515.0 0.00803
2520.0 0.00808
2525.0 0.00814
2530.0 0.00819
2535.0 0.00824
2540.0 0.0083
2545.0 0.00836
2550.0 0.00842
2555.0 0.00847
2560.0 0.00853
2565.0 0.00859
2570.0 0.00865
2575.0 0.00871
2580.0 0.00877
2585.0 0.00883
2590.0 0.0089
2595.0 0.00896
2600.0 0.00903
2605.0 0.00909
2610.0 0.00915
2615.0 0.00922
2620.0 0.00928
2625.0 0.00935
2630.0 0.00942
2635.0 0.00949
2640.0 0.00956
2645.0 0.00963
2650.0 0.0097
2655.0 0.00977
2660.0 0.00985
2665.0 0.00992
2670.0 0.01
2675.0 0.0101
2680.0 0.0101
2685.0 0.0102
2690.0 0.0103
2695.0 0.0104
2700.0 0.0105
2705.0 0.0105
2710.0 0.0106
2715.0 0.0107
2720.0 0.0108
2725.0 0.0109
2730.0 0.011
2735.0 0.011
2740.0 0.0111
2745.0 0.0112
2750.0 0.0113
2755.0 0.0114
2760.0 0.0115
2765.0 0.0116
2770.0 0.0117
2775.0 0.0118
2780.0 0.0118
2785.0 0.0119
2790.0 0.012
2795.0 0.0121
2800.0 0.0122
2805.0 0.0123
2810.0 0.0124
2815.0 0.0125
2820.0 0.0126
2825.0 0.0128
2830.0 0.0129
2835.0 0.013
2840.0 0.0131
2845.0 0.0132
2850.0 0.0133
2855.0 0.0134
2860.0 0.0135
2865.0 0.0136
2870.0 0.0137
2875.0 0.0139
2880.0 0.014
2885.0 0.0141
2890.0 0.0142
2895.0 0.0143
2900.0 0.0145
2905.0 0.0146
2910.0 0.0147
2915.0 0.0149
2920.0 0.015
2925.0 0.0151
2930.0 0.0153
2935.0 0.0154
2940.0 0.0155
2945.0 0.0157
2950.0 0.0158
2955.0 0.016
2960.0 0.0161
2965.0 0.0163
2970.0 0.0164
2975.0 0.0165
2980.0 0.0167
2985.0 0.0169
2990.0 0.017
2995.0 0.0172
3000.0 0.0173
3005.0 0.0175
3010.0 0.0177
3015.0 0.0178
3020.0 0.018
3025.0 0.0182
3030.0 0.0184
3035.0 0.0186
3040.0 0.0187
3045.0 0.0189
3050.0 0.0191
3055.0 0.0193
3060.0 0.0195
3065.0 0.0197
3070.0 0.0199
3075.0 0.0201
3080.0 0.0203
3085.0 0.0205
3090.0 0.0207
3095.0 0.021
3100.0 0.0212
3105.0 0.0214
3110.0 0.0216
3115.0 0.0219
3120.0 0.0221
3125.0 0.0224
3130.0 0.0226
3135.0 0.0228
3140.0 0.0231
3145.0 0.0234
3150.0 0.0236
3155.0 0.0239
3160.0 0.0242
3165.0 0.0244
3170.0 0.0247
3175.0 0.025
3180.0 0.0253
3185.0 0.0256
3190.0 0.0259
3195.0 0.0262
3200.0 0.0265
3205.0 0.0268
3210.0 0.0271
3215.0 0.0274
3220.0 0.0278
3225.0 0.0281
3230.0 0.0284
3235.0 0.0288
3240.0 0.0291
3245.0 0.0295
3250.0 0.0299
3255.0 0.0302
3260.0 0.0306
3265.0 0.031
3270.0 0.0313
3275.0 0.0317
3280.0 0.0321
3285.0 0.0325
3290.0 0.0329
3295.0 0.0334
3300.0 0.0338
3305.0 0.0343
3310.0 0.0347
3315.0 0.0352
3320.0 0.0357
3325.0 0.0363
3330.0 0.0368
3335.0 0.0374
3340.0 0.038
3345.0 0.0386
3350.0 0.0393
3355.0 0.0399
3360.0 0.0406
3365.0 0.0413
3370.0 0.042
3375.0 0.0427
3380.0 0.0435
3385.0 0.0442
3390.0 0.0449
3395.0 0.0455
3400.0 0.0462
3405.0 0.0468
3410.0 0.0473
3415.0 0.0479
3420.0 0.0483
3425.0 0.0487
3430.0 0.0491
3435.0 0.0493
3440.0 0.0496
3445.0 0.0497
3450.0 0.0498
3455.0 0.0499
3460.0 0.0499
3465.0 0.0499
3470.0 0.0499
3475.0 0.0498
3480.0 0.0498
3485.0 0.0496
3490.0 0.0492
3495.0 0.0488
3500.0 0.0488
3505.0 0.0487
3510.0 0.0487
3515.0 0.0479
3520.0 0.0468
3525.0 0.0457
3530.0 0.0451
3535.0 0.0433
3540.0 0.0438
3545.0 0.0457
3550.0 0.0485
3555.0 0.0492
3560.0 0.0504
3565.0 0.0506
3570.0 0.0517
3575.0 0.0522
3580.0 0.0534
3585.0 0.054
3590.0 0.0532
3595.0 0.053
3600.0 0.0535
3605.0 0.0533
3610.0 0.0521
3615.0 0.0511
3620.0 0.0497
3625.0 0.0481
3630.0 0.0466
3635.0 0.0468
3640.0 0.0478
3645.0 0.0483
3650.0 0.0493
3655.0 0.0506
3660.0 0.0503
3665.0 0.0506
3670.0 0.0512
3675.0 0.051
3680.0 0.0504
3685.0 0.0492
3690.0 0.048
3695.0 0.0465
3700.0 0.0431
3705.0 0.0401
3710.0 0.0363
3715.0 0.033
3720.0 0.03
3725.0 0.0263
3730.0 0.023
3735.0 0.0206
3740.0 0.0187
3745.0 0.0186
3750.0 0.0178
3755.0 0.0173
3760.0 0.0168
3765.0 0.0174
3770.0 0.0181
3775.0 0.019
3780.0 0.0203
3785.0 0.0215
3790.0 0.0226
3795.0 0.0241
3800.0 0.0258
3805.0 0.0274
3810.0 0.0295
3815.0 0.0317
3820.0 0.0341
3825.0 0.0363
3830.0 0.0388
3835.0 0.0417
3840.0 0.0447
3845.0 0.0485
3850.0 0.0521
3855.0 0.0555
3860.0 0.0589
3865.0 0.062
3870.0 0.065
3875.0 0.0684
3880.0 0.0713
3885.0 0.0744
3890.0 0.0769
3895.0 0.0793
3900.0 0.0806
3905.0 0.0822
3910.0 0.0843
3915.0 0.0862
3920.0 0.0879
3925.0 0.0893
3930.0 0.0907
3935.0 0.092
3940.0 0.0933
3945.0 0.0943
3950.0 0.0951
3955.0 0.0955
3960.0 0.0959
3965.0 0.0959
3970.0 0.0951
3975.0 0.0946
3980.0 0.093
3985.0 0.0913
3990.0 0.0898
3995.0 0.0878
4000.0 0.0856
4005.0 0.0837
4010.0 0.0812
4015.0 0.0795
4020.0 0.0781
4025.0 0.077
4030.0 0.0758
4035.0 0.0747
4040.0 0.0737
4045.0 0.0726
4050.0 0.0715
4055.0 0.0708
4060.0 0.0702
4065.0 0.0698
4070.0 0.0693
4075.0 0.0691
4080.0 0.069
4085.0 0.0688
4090.0 0.068
4095.0 0.0674
4100.0 0.0668
4105.0 0.0666
4110.0 0.066
4115.0 0.0657
4120.0 0.0657
4125.0 0.0652
4130.0 0.0651
4135.0 0.0649
4140.0 0.0647
4145.0 0.0644
4150.0 0.0644
4155.0 0.0642
4160.0 0.0645
4165.0 0.0648
4170.0 0.0652
4175.0 0.0659
4180.0 0.0663
4185.0 0.0667
4190.0 0.0672
4195.0 0.067
4200.0 0.0671
4205.0 0.0667
4210.0 0.0667
4215.0 0.0665
4220.0 0.0666
4225.0 0.0665
4230.0 0.0664
4235.0 0.0663
4240.0 0.0665
4245.0 0.0666
4250.0 0.067
4255.0 0.0675
4260.0 0.0671
4265.0 0.0674
4270.0 0.0674
4275.0 0.0684
4280.0 0.0687
4285.0 0.0688
4290.0 0.0689
4295.0 0.0687
4300.0 0.0681
4305.0 0.0675
4310.0 0.0662
4315.0 0.0651
4320.0 0.0643
4325.0 0.0624
4330.0 0.0608
4335.0 0.0593
4340.0 0.0575
4345.0 0.0561
4350.0 0.0543
4355.0 0.0532
4360.0 0.0523
4365.0 0.052
4370.0 0.0512
4375.0 0.0509
4380.0 0.0506
4385.0 0.0507
4390.0 0.0511
4395.0 0.0515
4400.0 0.052
4405.0 0.052
4410.0 0.0528
4415.0 0.0536
4420.0 0.0547
4425.0 0.0556
4430.0 0.0571
4435.0 0.0587
4440.0 0.0601
4445.0 0.0619
4450.0 0.0636
4455.0 0.065
4460.0 0.0671
4465.0 0.0693
4470.0 0.0708
4475.0 0.0725
4480.0 0.0741
4485.0 0.0755
4490.0 0.0772
4495.0 0.0779
4500.0 0.0791
4505.0 0.08
4510.0 0.0814
4515.0 0.0824
4520.0 0.0832
4525.0 0.084
4530.0 0.0847
4535.0 0.0856
4540.0 0.0856
4545.0 0.0858
4550.0 0.0859
4555.0 0.0863
4560.0 0.0862
4565.0 0.0861
4570.0 0.086
4575.0 0.086
4580.0 0.0857
4585.0 0.0851
4590.0 0.0848
4595.0 0.0841
4600.0 0.0834
4605.0 0.083
4610.0 0.0825
4615.0 0.0817
4620.0 0.0809
4625.0 0.0802
4630.0 0.0795
4635.0 0.079
4640.0 0.078
4645.0 0.0772
4650.0 0.0763
4655.0 0.0759
4660.0 0.0754
4665.0 0.0745
4670.0 0.0739
4675.0 0.0731
4680.0 0.0722
4685.0 0.0709
4690.0 0.0698
4695.0 0.0681
4700.0 0.0664
4705.0 0.0643
4710.0 0.0623
4715.0 0.0603
4720.0 0.0582
4725.0 0.0562
4730.0 0.0544
4735.0 0.0526
4740.0 0.0513
4745.0 0.0502
4750.0 0.0495
4755.0 0.0491
4760.0 0.0487
4765.0 0.0488
4770.0 0.0491
4775.0 0.0493
4780.0 0.0495
4785.0 0.0493
4790.0 0.049
4795.0 0.0483
4800.0 0.0476
4805.0 0.0468
4810.0 0.046
4815.0 0.045
4820.0 0.0444
4825.0 0.044
4830.0 0.0435
4835.0 0.0434
4840.0 0.0434
4845.0 0.0438
4850.0 0.0443
4855.0 0.0452
4860.0 0.0466
4865.0 0.0482
4870.0 0.0494
4875.0 0.0508
4880.0 0.0523
4885.0 0.0539
4890.0 0.0551
4895.0 0.0564
4900.0 0.0574
4905.0 0.0582
4910.0 0.059
4915.0 0.0595
4920.0 0.0598
4925.0 0.0597
4930.0 0.0594
4935.0 0.0587
4940.0 0.0574
4945.0 0.0559
4950.0 0.0543
4955.0 0.0528
4960.0 0.0511
4965.0 0.0498
4970.0 0.0487
4975.0 0.0474
4980.0 0.0464
4985.0 0.0457
4990.0 0.0455
4995.0 0.0458
5000.0 0.0464
5005.0 0.0475
5010.0 0.0486
5015.0 0.0497
5020.0 0.051
5025.0 0.0521
5030.0 0.0532
5035.0 0.0541
5040.0 0.0549
5045.0 0.0556
5050.0 0.0561
5055.0 0.0567
5060.0 0.057
5065.0 0.057
5070.0 0.057
5075.0 0.057
5080.0 0.0569
5085.0 0.0563
5090.0 0.056
5095.0 0.0557
5100.0 0.0556
5105.0 0.0557
5110.0 0.0557
5115.0 0.0558
5120.0 0.0558
5125.0 0.0558
5130.0 0.0558
5135.0 0.056
5140.0 0.0567
5145.0 0.0572
5150.0 0.058
5155.0 0.0589
5160.0 0.0599
5165.0 0.0608
5170.0 0.0615
5175.0 0.0621
5180.0 0.063
5185.0 0.0639
5190.0 0.0645
5195.0 0.065
5200.0 0.0654
5205.0 0.0657
5210.0 0.0661
5215.0 0.0667
5220.0 0.067
5225.0 0.0671
5230.0 0.0672
5235.0 0.0672
5240.0 0.0672
5245.0 0.067
5250.0 0.0668
5255.0 0.0664
5260.0 0.0666
5265.0 0.0663
5270.0 0.066
5275.0 0.0655
5280.0 0.0651
5285.0 0.0649
5290.0 0.0641
5295.0 0.0637
5300.0 0.0634
5305.0 0.0632
5310.0 0.0627
5315.0 0.0623
5320.0 0.0621
5325.0 0.0621
5330.0 0.0621
5335.0 0.0621
5340.0 0.0619
5345.0 0.0617
5350.0 0.0615
5355.0 0.0616
5360.0 0.0614
5365.0 0.0612
5370.0 0.0609
5375.0 0.0607
5380.0 0.0605
5385.0 0.0601
5390.0 0.0595
5395.0 0.059
5400.0 0.0587
5405.0 0.0583
5410.0 0.0579
5415.0 0.0575
5420.0 0.0573
5425.0 0.0571
5430.0 0.057
5435.0 0.0565
5440.0 0.0562
5445.0 0.0561
5450.0 0.0558
5455.0 0.0552
5460.0 0.0549
5465.0 0.0545
5470.0 0.0541
5475.0 0.0537
5480.0 0.0534
5485.0 0.0532
5490.0 0.053
5495.0 0.0529
5500.0 0.0528
5505.0 0.0526
5510.0 0.0523
5515.0 0.052
5520.0 0.0518
5525.0 0.0514
5530.0 0.0508
5535.0 0.0504
5540.0 0.05
5545.0 0.0494
5550.0 0.0486
5555.0 0.0479
5560.0 0.0469
5565.0 0.0461
5570.0 0.0449
5575.0 0.0441
5580.0 0.0432
5585.0 0.0423
5590.0 0.0412
5595.0 0.0404
5600.0 0.0396
5605.0 0.039
5610.0 0.038
5615.0 0.0375
5620.0 0.0368
5625.0 0.0363
5630.0 0.0362
5635.0 0.0359
5640.0 0.036
5645.0 0.0359
5650.0 0.036
5655.0 0.0361
5660.0 0.0359
5665.0 0.036
5670.0 0.0358
5675.0 0.0357
5680.0 0.0361
5685.0 0.0364
5690.0 0.0367
5695.0 0.0371
5700.0 0.0375
5705.0 0.0381
5710.0 0.0386
5715.0 0.0391
5720.0 0.0398
5725.0 0.0403
5730.0 0.0406
5735.0 0.041
5740.0 0.0415
5745.0 0.0422
5750.0 0.0425
5755.0 0.043
5760.0 0.0433
5765.0 0.0436
5770.0 0.044
5775.0 0.0444
5780.0 0.0448
5785.0 0.0452
5790.0 0.0458
5795.0 0.0463
5800.0 0.0468
5805.0 0.0472
5810.0 0.0473
5815.0 0.0474
5820.0 0.0473
5825.0 0.0474
5830.0 0.0472
5835.0 0.0469
5840.0 0.0468
5845.0 0.0468
5850.0 0.0469
5855.0 0.0469
5860.0 0.0469
5865.0 0.047
5870.0 0.047
5875.0 0.0471
5880.0 0.0472
5885.0 0.0476
5890.0 0.0478
5895.0 0.0477
5900.0 0.0476
5905.0 0.0476
5910.0 0.0474
5915.0 0.0473
5920.0 0.0471
5925.0 0.0467
5930.0 0.0461
5935.0 0.0459
5940.0 0.0453
5945.0 0.045
5950.0 0.0446
5955.0 0.0441
5960.0 0.0436
5965.0 0.0433
5970.0 0.0429
5975.0 0.0425
5980.0 0.0422
5985.0 0.0424
5990.0 0.0424
5995.0 0.0425
6000.0 0.0425
6005.0 0.0424
6010.0 0.0424
6015.0 0.0421
6020.0 0.0419
6025.0 0.0416
6030.0 0.0416
6035.0 0.0415
6040.0 0.0413
6045.0 0.0409
6050.0 0.0409
6055.0 0.0408
6060.0 0.0408
6065.0 0.041
6070.0 0.0412
6075.0 0.0416
6080.0 0.0417
6085.0 0.0418
6090.0 0.0419
6095.0 0.0418
6100.0 0.0416
6105.0 0.041
6110.0 0.0402
6115.0 0.0394
6120.0 0.0381
6125.0 0.0369
6130.0 0.0359
6135.0 0.0347
6140.0 0.0337
6145.0 0.0328
6150.0 0.0321
6155.0 0.0317
6160.0 0.0314
6165.0 0.0312
6170.0 0.0313
6175.0 0.0314
6180.0 0.0317
6185.0 0.0317
6190.0 0.0319
6195.0 0.0321
6200.0 0.0322
6205.0 0.0323
6210.0 0.0324
6215.0 0.0327
6220.0 0.033
6225.0 0.033
6230.0 0.033
6235.0 0.0332
6240.0 0.0334
6245.0 0.0337
6250.0 0.034
6255.0 0.0343
6260.0 0.0347
6265.0 0.0351
6270.0 0.0356
6275.0 0.0362
6280.0 0.0366
6285.0 0.0369
6290.0 0.0373
6295.0 0.0375
6300.0 0.0378
6305.0 0.038
6310.0 0.038
6315.0 0.038
6320.0 0.038
6325.0 0.0378
6330.0 0.0375
6335.0 0.0372
6340.0 0.0368
6345.0 0.0364
6350.0 0.0361
6355.0 0.0357
6360.0 0.0354
6365.0 0.0349
6370.0 0.0344
6375.0 0.0339
6380.0 0.0336
6385.0 0.0333
6390.0 0.0331
6395.0 0.0329
6400.0 0.0328
6405.0 0.0327
6410.0 0.0325
6415.0 0.0325
6420.0 0.0324
6425.0 0.0325
6430.0 0.0325
6435.0 0.0327
6440.0 0.0326
6445.0 0.0329
6450.0 0.033
6455.0 0.033
6460.0 0.033
6465.0 0.0329
6470.0 0.0328
6475.0 0.0326
6480.0 0.0325
6485.0 0.0325
6490.0 0.0327
6495.0 0.033
6500.0 0.0332
6505.0 0.0335
6510.0 0.0339
6515.0 0.034
6520.0 0.034
6525.0 0.0342
6530.0 0.0342
6535.0 0.0343
6540.0 0.0344
6545.0 0.0345
6550.0 0.0344
6555.0 0.0342
6560.0 0.0339
6565.0 0.0338
6570.0 0.0337
6575.0 0.0335
6580.0 0.0333
6585.0 0.0332
6590.0 0.0331
6595.0 0.0332
6600.0 0.0331
6605.0 0.0332
6610.0 0.033
6615.0 0.0328
6620.0 0.0327
6625.0 0.0325
6630.0 0.0323
6635.0 0.0322
6640.0 0.0319
6645.0 0.0318
6650.0 0.0316
6655.0 0.0317
6660.0 0.0314
6665.0 0.0312
6670.0 0.0311
6675.0 0.0311
6680.0 0.0313
6685.0 0.0313
6690.0 0.0314
6695.0 0.0314
6700.0 0.0314
6705.0 0.0311
6710.0 0.031
6715.0 0.0308
6720.0 0.0305
6725.0 0.0301
6730.0 0.0301
6735.0 0.0298
6740.0 0.0296
6745.0 0.0293
6750.0 0.029
6755.0 0.0285
6760.0 0.0282
6765.0 0.0279
6770.0 0.0277
6775.0 0.0275
6780.0 0.0273
6785.0 0.0272
6790.0 0.0271
6795.0 0.027
6800.0 0.0268
6805.0 0.0266
6810.0 0.0264
6815.0 0.0262
6820.0 0.0263
6825.0 0.0265
6830.0 0.0266
6835.0 0.0268
6840.0 0.027
6845.0 0.0268
6850.0 0.0266
6855.0 0.0262
6860.0 0.0258
6865.0 0.0254
6870.0 0.025
6875.0 0.0248
6880.0 0.0246
6885.0 0.0245
6890.0 0.0244
6895.0 0.0245
6900.0 0.0246
6905.0 0.0248
6910.0 0.025
6915.0 0.0253
6920.0 0.0254
6925.0 0.0256
6930.0 0.0258
6935.0 0.0259
6940.0 0.026
6945.0 0.0259
6950.0 0.0256
6955.0 0.0255
6960.0 0.0255
6965.0 0.0254
6970.0 0.0254
6975.0 0.0257
6980.0 0.0258
6985.0 0.026
6990.0 0.0261
6995.0 0.0262
7000.0 0.0264
7005.0 0.0266
7010.0 0.0266
7015.0 0.0267
7020.0 0.0267
7025.0 0.0265
7030.0 0.0265
7035.0 0.0264
7040.0 0.0265
7045.0 0.0266
7050.0 0.0267
7055.0 0.0268
7060.0 0.027
7065.0 0.0271
7070.0 0.0271
7075.0 0.0273
7080.0 0.0274
7085.0 0.0274
7090.0 0.0271
7095.0 0.0268
7100.0 0.0267
7105.0 0.0266
7110.0 0.0263
7115.0 0.0261
7120.0 0.0261
7125.0 0.0261
7130.0 0.0259
7135.0 0.026
7140.0 0.0262
7145.0 0.0265
7150.0 0.0267
7155.0 0.0269
7160.0 0.0271
7165.0 0.0271
7170.0 0.027
7175.0 0.0271
7180.0 0.0271
7185.0 0.027
7190.0 0.027
7195.0 0.027
7200.0 0.0267
7205.0 0.0266
7210.0 0.0264
7215.0 0.026
7220.0 0.0261
7225.0 0.0262
7230.0 0.0264
7235.0 0.0265
7240.0 0.0268
7245.0 0.0268
7250.0 0.0267
7255.0 0.0265
7260.0 0.0266
7265.0 0.0265
7270.0 0.0263
7275.0 0.0259
7280.0 0.0256
7285.0 0.0255
7290.0 0.0254
7295.0 0.0253
7300.0 0.0252
7305.0 0.025
7310.0 0.0248
7315.0 0.0246
7320.0 0.0245
7325.0 0.0245
7330.0 0.0245
7335.0 0.0247
7340.0 0.0249
7345.0 0.025
7350.0 0.0253
7355.0 0.0253
7360.0 0.025
7365.0 0.0249
7370.0 0.0248
7375.0 0.0247
7380.0 0.0247
7385.0 0.0246
7390.0 0.0245
7395.0 0.0244
7400.0 0.0243
7405.0 0.0242
7410.0 0.0241
7415.0 0.024
7420.0 0.0239
7425.0 0.0237
7430.0 0.0235
7435.0 0.0233
7440.0 0.023
7445.0 0.0226
7450.0 0.0222
7455.0 0.0217
7460.0 0.0212
7465.0 0.0206
7470.0 0.02
7475.0 0.0195
7480.0 0.019
7485.0 0.0186
7490.0 0.0182
7495.0 0.0179
7500.0 0.0176
7505.0 0.0175
7510.0 0.0174
7515.0 0.0175
7520.0 0.0175
7525.0 0.0177
7530.0 0.0178
7535.0 0.018
7540.0 0.0182
7545.0 0.0183
7550.0 0.0185
7555.0 0.0186
7560.0 0.0187
7565.0 0.0187
7570.0 0.0187
7575.0 0.0187
7580.0 0.0187
7585.0 0.0187
7590.0 0.0186
7595.0 0.0186
7600.0 0.0186
7605.0 0.0186
7610.0 0.0186
7615.0 0.0187
7620.0 0.0187
7625.0 0.0188
7630.0 0.0189
7635.0 0.019
7640.0 0.0192
7645.0 0.0193
7650.0 0.0195
7655.0 0.0196
7660.0 0.0198
7665.0 0.02
7670.0 0.0202
7675.0 0.0204
7680.0 0.0206
7685.0 0.0208
7690.0 0.021
7695.0 0.0212
7700.0 0.0215
7705.0 0.0217
7710.0 0.0219
7715.0 0.0221
7720.0 0.0223
7725.0 0.0224
7730.0 0.0226
7735.0 0.0228
7740.0 0.0229
7745.0 0.023
7750.0 0.0232
7755.0 0.0233
7760.0 0.0233
7765.0 0.0234
7770.0 0.0235
7775.0 0.0235
7780.0 0.0235
7785.0 0.0235
7790.0 0.0235
7795.0 0.0234
7800.0 0.0234
7805.0 0.0233
7810.0 0.0233
7815.0 0.0232
7820.0 0.0231
7825.0 0.023
7830.0 0.0229
7835.0 0.0228
7840.0 0.0228
7845.0 0.0227
7850.0 0.0226
7855.0 0.0225
7860.0 0.0225
7865.0 0.0224
7870.0 0.0224
7875.0 0.0223
7880.0 0.0223
7885.0 0.0222
7890.0 0.0222
7895.0 0.0221
7900.0 0.022
7905.0 0.0219
7910.0 0.0218
7915.0 0.0216
7920.0 0.0214
7925.0 0.0212
7930.0 0.021
7935.0 0.0207
7940.0 0.0204
7945.0 0.0202
7950.0 0.0199
7955.0 0.0196
7960.0 0.0194
7965.0 0.0192
7970.0 0.0191
7975.0 0.019
7980.0 0.019
7985.0 0.019
7990.0 0.019
7995.0 0.019
8000.0 0.0191
8005.0 0.0191
8010.0 0.019
8015.0 0.0189
8020.0 0.0188
8025.0 0.0187
8030.0 0.0185
8035.0 0.0183
8040.0 0.0181
8045.0 0.0179
8050.0 0.0176
8055.0 0.0173
8060.0 0.017
8065.0 0.0167
8070.0 0.0163
8075.0 0.016
8080.0 0.0156
8085.0 0.0152
8090.0 0.0148
8095.0 0.0144
8100.0 0.014
8105.0 0.0136
8110.0 0.0132
8115.0 0.0128
8120.0 0.0123
8125.0 0.0119
8130.0 0.0115
8135.0 0.0111
8140.0 0.0108
8145.0 0.0104
8150.0 0.0101
8155.0 0.00984
8160.0 0.0096
8165.0 0.00937
8170.0 0.00919
8175.0 0.00901
8180.0 0.00888
8185.0 0.00876
8190.0 0.00868
8195.0 0.00861
8200.0 0.00857
8205.0 0.00854
8210.0 0.00855
8215.0 0.00856
8220.0 0.0086
8225.0 0.00865
8230.0 0.00872
8235.0 0.00879
8240.0 0.00888
8245.0 0.00898
8250.0 0.00909
8255.0 0.00921
8260.0 0.00933
8265.0 0.00945
8270.0 0.00958
8275.0 0.00971
8280.0 0.00985
8285.0 0.00998
8290.0 0.0101
8295.0 0.0102
8300.0 0.0104
8305.0 0.0105
8310.0 0.0107
8315.0 0.0108
8320.0 0.0109
8325.0 0.0111
8330.0 0.0113
8335.0 0.0114
8340.0 0.0116
8345.0 0.0118
8350.0 0.012
8355.0 0.0122
8360.0 0.0124
8365.0 0.0127
8370.0 0.0129
8375.0 0.0132
8380.0 0.0134
8385.0 0.0137
8390.0 0.014
8395.0 0.0143
8400.0 0.0146
8405.0 0.0149
8410.0 0.0152
8415.0 0.0155
8420.0 0.0159
8425.0 0.0162
8430.0 0.0165
8435.0 0.0168
8440.0 0.0171
8445.0 0.0173
8450.0 0.0176
8455.0 0.0179
8460.0 0.0181
8465.0 0.0184
8470.0 0.0186
8475.0 0.0188
8480.0 0.019
8485.0 0.0192
8490.0 0.0193
8495.0 0.0195
8500.0 0.0196
8505.0 0.0197
8510.0 0.0198
8515.0 0.0198
8520.0 0.0199
8525.0 0.0199
8530.0 0.0199
8535.0 0.0199
8540.0 0.0199
8545.0 0.0199
8550.0 0.0199
8555.0 0.0199
8560.0 0.0199
8565.0 0.0199
8570.0 0.0198
8575.0 0.0198
8580.0 0.0198
8585.0 0.0198
8590.0 0.0197
8595.0 0.0197
8600.0 0.0197
8605.0 0.0196
8610.0 0.0196
8615.0 0.0196
8620.0 0.0195
8625.0 0.0195
8630.0 0.0195
8635.0 0.0194
8640.0 0.0194
8645.0 0.0194
8650.0 0.0193
8655.0 0.0193
8660.0 0.0192
8665.0 0.0191
8670.0 0.0191
8675.0 0.019
8680.0 0.0189
8685.0 0.0187
8690.0 0.0186
8695.0 0.0185
8700.0 0.0183
8705.0 0.0181
8710.0 0.0179
