#lamb flux
1605.0 0.00168
1610.0 0.00169
1615.0 0.0017
1620.0 0.00171
1625.0 0.00172
1630.0 0.00173
1635.0 0.00174
1640.0 0.00175
1645.0 0.00176
1650.0 0.00177
1655.0 0.00179
1660.0 0.0018
1665.0 0.00181
1670.0 0.00182
1675.0 0.00183
1680.0 0.00184
1685.0 0.00185
1690.0 0.00186
1695.0 0.00187
1700.0 0.00189
1705.0 0.0019
1710.0 0.00191
1715.0 0.00192
1720.0 0.00193
1725.0 0.00195
1730.0 0.00196
1735.0 0.00197
1740.0 0.00198
1745.0 0.002
1750.0 0.00201
1755.0 0.00202
1760.0 0.00203
1765.0 0.00205
1770.0 0.00206
1775.0 0.00208
1780.0 0.00209
1785.0 0.0021
1790.0 0.00212
1795.0 0.00213
1800.0 0.00214
1805.0 0.00216
1810.0 0.00217
1815.0 0.00219
1820.0 0.0022
1825.0 0.00222
1830.0 0.00223
1835.0 0.00225
1840.0 0.00226
1845.0 0.00228
1850.0 0.0023
1855.0 0.00231
1860.0 0.00233
1865.0 0.00234
1870.0 0.00236
1875.0 0.00238
1880.0 0.00239
1885.0 0.00241
1890.0 0.00243
1895.0 0.00245
1900.0 0.00246
1905.0 0.00248
1910.0 0.0025
1915.0 0.00252
1920.0 0.00254
1925.0 0.00255
1930.0 0.00257
1935.0 0.00259
1940.0 0.00261
1945.0 0.00263
1950.0 0.00265
1955.0 0.00267
1960.0 0.00269
1965.0 0.00271
1970.0 0.00273
1975.0 0.00275
1980.0 0.00277
1985.0 0.00279
1990.0 0.00281
1995.0 0.00283
2000.0 0.00285
2005.0 0.00288
2010.0 0.0029
2015.0 0.00292
2020.0 0.00294
2025.0 0.00296
2030.0 0.00299
2035.0 0.00301
2040.0 0.00303
2045.0 0.00306
2050.0 0.00308
2055.0 0.00311
2060.0 0.00313
2065.0 0.00315
2070.0 0.00318
2075.0 0.0032
2080.0 0.00323
2085.0 0.00325
2090.0 0.00328
2095.0 0.00331
2100.0 0.00333
2105.0 0.00336
2110.0 0.00338
2115.0 0.00341
2120.0 0.00344
2125.0 0.00346
2130.0 0.00349
2135.0 0.00352
2140.0 0.00355
2145.0 0.00358
2150.0 0.0036
2155.0 0.00363
2160.0 0.00366
2165.0 0.00369
2170.0 0.00372
2175.0 0.00375
2180.0 0.00378
2185.0 0.00381
2190.0 0.00384
2195.0 0.00387
2200.0 0.00391
2205.0 0.00394
2210.0 0.00397
2215.0 0.004
2220.0 0.00404
2225.0 0.00407
2230.0 0.0041
2235.0 0.00413
2240.0 0.00417
2245.0 0.0042
2250.0 0.00424
2255.0 0.00427
2260.0 0.00431
2265.0 0.00434
2270.0 0.00438
2275.0 0.00441
2280.0 0.00445
2285.0 0.00449
2290.0 0.00453
2295.0 0.00457
2300.0 0.0046
2305.0 0.00464
2310.0 0.00468
2315.0 0.00472
2320.0 0.00476
2325.0 0.0048
2330.0 0.00484
2335.0 0.00488
2340.0 0.00492
2345.0 0.00496
2350.0 0.005
2355.0 0.00505
2360.0 0.00509
2365.0 0.00513
2370.0 0.00518
2375.0 0.00522
2380.0 0.00526
2385.0 0.00531
2390.0 0.00535
2395.0 0.0054
2400.0 0.00544
2405.0 0.00549
2410.0 0.00554
2415.0 0.00558
2420.0 0.00563
2425.0 0.00568
2430.0 0.00572
2435.0 0.00577
2440.0 0.00582
2445.0 0.00587
2450.0 0.00592
2455.0 0.00597
2460.0 0.00602
2465.0 0.00607
2470.0 0.00612
2475.0 0.00616
2480.0 0.00622
2485.0 0.00627
2490.0 0.00632
2495.0 0.00637
2500.0 0.00643
2505.0 0.00648
2510.0 0.00653
2515.0 0.00658
2520.0 0.00664
2525.0 0.00669
2530.0 0.00675
2535.0 0.0068
2540.0 0.00686
2545.0 0.00691
2550.0 0.00697
2555.0 0.00702
2560.0 0.00708
2565.0 0.00714
2570.0 0.00719
2575.0 0.00725
2580.0 0.00731
2585.0 0.00736
2590.0 0.00742
2595.0 0.00748
2600.0 0.00754
2605.0 0.0076
2610.0 0.00765
2615.0 0.00771
2620.0 0.00777
2625.0 0.00783
2630.0 0.00789
2635.0 0.00795
2640.0 0.00801
2645.0 0.00807
2650.0 0.00813
2655.0 0.00819
2660.0 0.00825
2665.0 0.0083
2670.0 0.00836
2675.0 0.00842
2680.0 0.00848
2685.0 0.00854
2690.0 0.0086
2695.0 0.00866
2700.0 0.00872
2705.0 0.00878
2710.0 0.00884
2715.0 0.0089
2720.0 0.00896
2725.0 0.00901
2730.0 0.00907
2735.0 0.00913
2740.0 0.00919
2745.0 0.00924
2750.0 0.0093
2755.0 0.00936
2760.0 0.00941
2765.0 0.00947
2770.0 0.00952
2775.0 0.00958
2780.0 0.00963
2785.0 0.00969
2790.0 0.00974
2795.0 0.0098
2800.0 0.00985
2805.0 0.0099
2810.0 0.00994
2815.0 0.00999
2820.0 0.01
2825.0 0.0101
2830.0 0.0101
2835.0 0.0102
2840.0 0.0102
2845.0 0.0103
2850.0 0.0103
2855.0 0.0104
2860.0 0.0104
2865.0 0.0104
2870.0 0.0105
2875.0 0.0105
2880.0 0.0106
2885.0 0.0106
2890.0 0.0106
2895.0 0.0107
2900.0 0.0107
2905.0 0.0107
2910.0 0.0108
2915.0 0.0108
2920.0 0.0108
2925.0 0.0108
2930.0 0.0109
2935.0 0.0109
2940.0 0.0109
2945.0 0.0109
2950.0 0.0109
2955.0 0.011
2960.0 0.011
2965.0 0.011
2970.0 0.011
2975.0 0.011
2980.0 0.011
2985.0 0.011
2990.0 0.011
2995.0 0.011
3000.0 0.011
3005.0 0.011
3010.0 0.011
3015.0 0.011
3020.0 0.011
3025.0 0.011
3030.0 0.011
3035.0 0.011
3040.0 0.011
3045.0 0.011
3050.0 0.011
3055.0 0.011
3060.0 0.0109
3065.0 0.0109
3070.0 0.0109
3075.0 0.0109
3080.0 0.0108
3085.0 0.0108
3090.0 0.0108
3095.0 0.0107
3100.0 0.0107
3105.0 0.0107
3110.0 0.0106
3115.0 0.0106
3120.0 0.0105
3125.0 0.0105
3130.0 0.0104
3135.0 0.0103
3140.0 0.0103
3145.0 0.0102
3150.0 0.0102
3155.0 0.0101
3160.0 0.01
3165.0 0.00995
3170.0 0.00989
3175.0 0.00982
3180.0 0.00975
3185.0 0.00969
3190.0 0.00963
3195.0 0.00956
3200.0 0.00951
3205.0 0.00945
3210.0 0.0094
3215.0 0.00935
3220.0 0.00931
3225.0 0.00927
3230.0 0.00924
3235.0 0.00921
3240.0 0.00919
3245.0 0.00917
3250.0 0.00917
3255.0 0.00916
3260.0 0.00918
3265.0 0.00919
3270.0 0.00922
3275.0 0.00925
3280.0 0.0093
3285.0 0.00935
3290.0 0.00941
3295.0 0.00948
3300.0 0.00956
3305.0 0.00965
3310.0 0.00975
3315.0 0.00985
3320.0 0.00997
3325.0 0.0101
3330.0 0.0102
3335.0 0.0104
3340.0 0.0105
3345.0 0.0107
3350.0 0.0108
3355.0 0.011
3360.0 0.0111
3365.0 0.0113
3370.0 0.0115
3375.0 0.0117
3380.0 0.0118
3385.0 0.012
3390.0 0.0122
3395.0 0.0124
3400.0 0.0125
3405.0 0.0127
3410.0 0.0128
3415.0 0.0129
3420.0 0.013
3425.0 0.0131
3430.0 0.0132
3435.0 0.0133
3440.0 0.0133
3445.0 0.0134
3450.0 0.0134
3455.0 0.0134
3460.0 0.0133
3465.0 0.0133
3470.0 0.0133
3475.0 0.0132
3480.0 0.0132
3485.0 0.0132
3490.0 0.0132
3495.0 0.0131
3500.0 0.0129
3505.0 0.0127
3510.0 0.0125
3515.0 0.0123
3520.0 0.0121
3525.0 0.012
3530.0 0.0118
3535.0 0.0118
3540.0 0.0117
3545.0 0.0117
3550.0 0.0117
3555.0 0.0116
3560.0 0.0115
3565.0 0.0114
3570.0 0.0114
3575.0 0.0113
3580.0 0.0113
3585.0 0.0113
3590.0 0.0113
3595.0 0.0113
3600.0 0.0113
3605.0 0.0113
3610.0 0.0112
3615.0 0.0112
3620.0 0.0112
3625.0 0.0112
3630.0 0.0112
3635.0 0.0112
3640.0 0.0111
3645.0 0.0111
3650.0 0.011
3655.0 0.0109
3660.0 0.0108
3665.0 0.0106
3670.0 0.0104
3675.0 0.0103
3680.0 0.0102
3685.0 0.0101
3690.0 0.00997
3695.0 0.0099
3700.0 0.00984
3705.0 0.00974
3710.0 0.00966
3715.0 0.00958
3720.0 0.00948
3725.0 0.00938
3730.0 0.00931
3735.0 0.0092
3740.0 0.00909
3745.0 0.00896
3750.0 0.00882
3755.0 0.00867
3760.0 0.00852
3765.0 0.00838
3770.0 0.00827
3775.0 0.00818
3780.0 0.00813
3785.0 0.00811
3790.0 0.00816
3795.0 0.00826
3800.0 0.00844
3805.0 0.00866
3810.0 0.00893
3815.0 0.00925
3820.0 0.00959
3825.0 0.00995
3830.0 0.0103
3835.0 0.0107
3840.0 0.0112
3845.0 0.0116
3850.0 0.012
3855.0 0.0123
3860.0 0.0127
3865.0 0.013
3870.0 0.0133
3875.0 0.0136
3880.0 0.0139
3885.0 0.0141
3890.0 0.0143
3895.0 0.0146
3900.0 0.0148
3905.0 0.015
3910.0 0.0151
3915.0 0.0153
3920.0 0.0154
3925.0 0.0155
3930.0 0.0156
3935.0 0.0157
3940.0 0.0158
3945.0 0.0158
3950.0 0.0159
3955.0 0.0158
3960.0 0.0158
3965.0 0.0158
3970.0 0.0157
3975.0 0.0156
3980.0 0.0154
3985.0 0.0153
3990.0 0.0151
3995.0 0.0149
4000.0 0.0146
4005.0 0.0145
4010.0 0.0143
4015.0 0.0141
4020.0 0.014
4025.0 0.0138
4030.0 0.0137
4035.0 0.0135
4040.0 0.0134
4045.0 0.0133
4050.0 0.0133
4055.0 0.0132
4060.0 0.0131
4065.0 0.0131
4070.0 0.013
4075.0 0.013
4080.0 0.013
4085.0 0.013
4090.0 0.0129
4095.0 0.0128
4100.0 0.0127
4105.0 0.0126
4110.0 0.0125
4115.0 0.0124
4120.0 0.0123
4125.0 0.0122
4130.0 0.0121
4135.0 0.0121
4140.0 0.0121
4145.0 0.0122
4150.0 0.0122
4155.0 0.0123
4160.0 0.0124
4165.0 0.0125
4170.0 0.0127
4175.0 0.0128
4180.0 0.0129
4185.0 0.0129
4190.0 0.013
4195.0 0.013
4200.0 0.0129
4205.0 0.0128
4210.0 0.0127
4215.0 0.0126
4220.0 0.0125
4225.0 0.0124
4230.0 0.0124
4235.0 0.0123
4240.0 0.0123
4245.0 0.0123
4250.0 0.0123
4255.0 0.0123
4260.0 0.0124
4265.0 0.0124
4270.0 0.0124
4275.0 0.0124
4280.0 0.0124
4285.0 0.0123
4290.0 0.0123
4295.0 0.0122
4300.0 0.012
4305.0 0.0119
4310.0 0.0117
4315.0 0.0115
4320.0 0.0114
4325.0 0.0112
4330.0 0.0111
4335.0 0.011
4340.0 0.0109
4345.0 0.0108
4350.0 0.0107
4355.0 0.0107
4360.0 0.0107
4365.0 0.0107
4370.0 0.0107
4375.0 0.0108
4380.0 0.0108
4385.0 0.0108
4390.0 0.0108
4395.0 0.0109
4400.0 0.0109
4405.0 0.0109
4410.0 0.011
4415.0 0.0111
4420.0 0.0112
4425.0 0.0113
4430.0 0.0114
4435.0 0.0115
4440.0 0.0116
4445.0 0.0118
4450.0 0.0119
4455.0 0.012
4460.0 0.0122
4465.0 0.0123
4470.0 0.0125
4475.0 0.0126
4480.0 0.0127
4485.0 0.0128
4490.0 0.0129
4495.0 0.013
4500.0 0.0132
4505.0 0.0133
4510.0 0.0135
4515.0 0.0136
4520.0 0.0138
4525.0 0.014
4530.0 0.0141
4535.0 0.0143
4540.0 0.0144
4545.0 0.0145
4550.0 0.0145
4555.0 0.0146
4560.0 0.0146
4565.0 0.0146
4570.0 0.0146
4575.0 0.0146
4580.0 0.0145
4585.0 0.0145
4590.0 0.0144
4595.0 0.0144
4600.0 0.0143
4605.0 0.0143
4610.0 0.0142
4615.0 0.0142
4620.0 0.0142
4625.0 0.0141
4630.0 0.014
4635.0 0.0139
4640.0 0.0138
4645.0 0.0137
4650.0 0.0135
4655.0 0.0133
4660.0 0.0131
4665.0 0.0129
4670.0 0.0127
4675.0 0.0125
4680.0 0.0122
4685.0 0.012
4690.0 0.0118
4695.0 0.0116
4700.0 0.0114
4705.0 0.0112
4710.0 0.011
4715.0 0.0108
4720.0 0.0106
4725.0 0.0104
4730.0 0.0102
4735.0 0.01
4740.0 0.00989
4745.0 0.00977
4750.0 0.00969
4755.0 0.00964
4760.0 0.00961
4765.0 0.00961
4770.0 0.00961
4775.0 0.00963
4780.0 0.00965
4785.0 0.00965
4790.0 0.00965
4795.0 0.00964
4800.0 0.00962
4805.0 0.00958
4810.0 0.00953
4815.0 0.00948
4820.0 0.00943
4825.0 0.0094
4830.0 0.0094
4835.0 0.00942
4840.0 0.00946
4845.0 0.00953
4850.0 0.00963
4855.0 0.00973
4860.0 0.00984
4865.0 0.00995
4870.0 0.0101
4875.0 0.0101
4880.0 0.0102
4885.0 0.0103
4890.0 0.0103
4895.0 0.0103
4900.0 0.0104
4905.0 0.0103
4910.0 0.0103
4915.0 0.0103
4920.0 0.0102
4925.0 0.0102
4930.0 0.0101
4935.0 0.0101
4940.0 0.00998
4945.0 0.00988
4950.0 0.00977
4955.0 0.00966
4960.0 0.00953
4965.0 0.00941
4970.0 0.00931
4975.0 0.00922
4980.0 0.00915
4985.0 0.00912
4990.0 0.00912
4995.0 0.00916
5000.0 0.00923
5005.0 0.00931
5010.0 0.00941
5015.0 0.00952
5020.0 0.00964
5025.0 0.00975
5030.0 0.00987
5035.0 0.00997
5040.0 0.01
5045.0 0.0101
5050.0 0.0101
5055.0 0.0102
5060.0 0.0102
5065.0 0.0102
5070.0 0.0102
5075.0 0.0102
5080.0 0.0102
5085.0 0.0102
5090.0 0.0102
5095.0 0.0102
5100.0 0.0102
5105.0 0.0102
5110.0 0.0103
5115.0 0.0103
5120.0 0.0103
5125.0 0.0104
5130.0 0.0104
5135.0 0.0105
5140.0 0.0106
5145.0 0.0107
5150.0 0.0108
5155.0 0.0109
5160.0 0.011
5165.0 0.0111
5170.0 0.0112
5175.0 0.0113
5180.0 0.0114
5185.0 0.0115
5190.0 0.0116
5195.0 0.0116
5200.0 0.0117
5205.0 0.0117
5210.0 0.0118
5215.0 0.0118
5220.0 0.0118
5225.0 0.0119
5230.0 0.0119
5235.0 0.0119
5240.0 0.0119
5245.0 0.0119
5250.0 0.0119
5255.0 0.0119
5260.0 0.0119
5265.0 0.0119
5270.0 0.0118
5275.0 0.0118
5280.0 0.0118
5285.0 0.0117
5290.0 0.0117
5295.0 0.0116
5300.0 0.0115
5305.0 0.0114
5310.0 0.0114
5315.0 0.0113
5320.0 0.0112
5325.0 0.0112
5330.0 0.0112
5335.0 0.0111
5340.0 0.0111
5345.0 0.0111
5350.0 0.0111
5355.0 0.0111
5360.0 0.0111
5365.0 0.0111
5370.0 0.0111
5375.0 0.0111
5380.0 0.0111
5385.0 0.0111
5390.0 0.011
5395.0 0.011
5400.0 0.011
5405.0 0.011
5410.0 0.0109
5415.0 0.0109
5420.0 0.0108
5425.0 0.0107
5430.0 0.0107
5435.0 0.0106
5440.0 0.0105
5445.0 0.0104
5450.0 0.0104
5455.0 0.0103
5460.0 0.0102
5465.0 0.0101
5470.0 0.00999
5475.0 0.0099
5480.0 0.00982
5485.0 0.00974
5490.0 0.00967
5495.0 0.00962
5500.0 0.00958
5505.0 0.00954
5510.0 0.00951
5515.0 0.00948
5520.0 0.00947
5525.0 0.00946
5530.0 0.00946
5535.0 0.00945
5540.0 0.00945
5545.0 0.00943
5550.0 0.0094
5555.0 0.00938
5560.0 0.00935
5565.0 0.00931
5570.0 0.00927
5575.0 0.00923
5580.0 0.00919
5585.0 0.00914
5590.0 0.0091
5595.0 0.00905
5600.0 0.009
5605.0 0.00894
5610.0 0.00889
5615.0 0.00882
5620.0 0.00875
5625.0 0.00868
5630.0 0.0086
5635.0 0.00852
5640.0 0.00844
5645.0 0.00835
5650.0 0.00825
5655.0 0.00814
5660.0 0.00804
5665.0 0.00794
5670.0 0.00784
5675.0 0.00776
5680.0 0.00769
5685.0 0.00764
5690.0 0.00759
5695.0 0.00758
5700.0 0.0076
5705.0 0.00764
5710.0 0.00771
5715.0 0.00779
5720.0 0.00789
5725.0 0.008
5730.0 0.00811
5735.0 0.00822
5740.0 0.00833
5745.0 0.00841
5750.0 0.00848
5755.0 0.00854
5760.0 0.00858
5765.0 0.0086
5770.0 0.00862
5775.0 0.00864
5780.0 0.00864
5785.0 0.00865
5790.0 0.00865
5795.0 0.00866
5800.0 0.00866
5805.0 0.00866
5810.0 0.00868
5815.0 0.00871
5820.0 0.00875
5825.0 0.00878
5830.0 0.00879
5835.0 0.00876
5840.0 0.00872
5845.0 0.00865
5850.0 0.00857
5855.0 0.00848
5860.0 0.00837
5865.0 0.00828
5870.0 0.00819
5875.0 0.00811
5880.0 0.00803
5885.0 0.00797
5890.0 0.00791
5895.0 0.00787
5900.0 0.00784
5905.0 0.00782
5910.0 0.00781
5915.0 0.0078
5920.0 0.00781
5925.0 0.00781
5930.0 0.00781
5935.0 0.0078
5940.0 0.00778
5945.0 0.00774
5950.0 0.0077
5955.0 0.00767
5960.0 0.00767
5965.0 0.00769
5970.0 0.00771
5975.0 0.00774
5980.0 0.00776
5985.0 0.00777
5990.0 0.00779
5995.0 0.00781
6000.0 0.00781
6005.0 0.00781
6010.0 0.00781
6015.0 0.0078
6020.0 0.00779
6025.0 0.00779
6030.0 0.00777
6035.0 0.00776
6040.0 0.00775
6045.0 0.00775
6050.0 0.00775
6055.0 0.00775
6060.0 0.00776
6065.0 0.00778
6070.0 0.00778
6075.0 0.00779
6080.0 0.00778
6085.0 0.00775
6090.0 0.0077
6095.0 0.00763
6100.0 0.00755
6105.0 0.00747
6110.0 0.00736
6115.0 0.00724
6120.0 0.00712
6125.0 0.00699
6130.0 0.00686
6135.0 0.00674
6140.0 0.00663
6145.0 0.00653
6150.0 0.00645
6155.0 0.00638
6160.0 0.00633
6165.0 0.0063
6170.0 0.00629
6175.0 0.00628
6180.0 0.00629
6185.0 0.0063
6190.0 0.00631
6195.0 0.00632
6200.0 0.00634
6205.0 0.00637
6210.0 0.00641
6215.0 0.00644
6220.0 0.00648
6225.0 0.00652
6230.0 0.00655
6235.0 0.00658
6240.0 0.00661
6245.0 0.00663
6250.0 0.00666
6255.0 0.00669
6260.0 0.00672
6265.0 0.00675
6270.0 0.00678
6275.0 0.0068
6280.0 0.00682
6285.0 0.00683
6290.0 0.00684
6295.0 0.00684
6300.0 0.00684
6305.0 0.00683
6310.0 0.00681
6315.0 0.00679
6320.0 0.00676
6325.0 0.00672
6330.0 0.00666
6335.0 0.0066
6340.0 0.00653
6345.0 0.00648
6350.0 0.00645
6355.0 0.00642
6360.0 0.00641
6365.0 0.00642
6370.0 0.00645
6375.0 0.0065
6380.0 0.00656
6385.0 0.00664
6390.0 0.00672
6395.0 0.00682
6400.0 0.00693
6405.0 0.00703
6410.0 0.00714
6415.0 0.00723
6420.0 0.0073
6425.0 0.00735
6430.0 0.00737
6435.0 0.00738
6440.0 0.00739
6445.0 0.00738
6450.0 0.00736
6455.0 0.00733
6460.0 0.0073
6465.0 0.00727
6470.0 0.00725
6475.0 0.00724
6480.0 0.00723
6485.0 0.00723
6490.0 0.00723
6495.0 0.00724
6500.0 0.00725
6505.0 0.00726
6510.0 0.00726
6515.0 0.00726
6520.0 0.00725
6525.0 0.00723
6530.0 0.0072
6535.0 0.00716
6540.0 0.00712
6545.0 0.00707
6550.0 0.00702
6555.0 0.00697
6560.0 0.00692
6565.0 0.00686
6570.0 0.00679
6575.0 0.00674
6580.0 0.00669
6585.0 0.00666
6590.0 0.00662
6595.0 0.0066
6600.0 0.00657
6605.0 0.00654
6610.0 0.00652
6615.0 0.0065
6620.0 0.00648
6625.0 0.00647
6630.0 0.00645
6635.0 0.00643
6640.0 0.0064
6645.0 0.00638
6650.0 0.00635
6655.0 0.00632
6660.0 0.00628
6665.0 0.00625
6670.0 0.00621
6675.0 0.00618
6680.0 0.00616
6685.0 0.00614
6690.0 0.00612
6695.0 0.00609
6700.0 0.00607
6705.0 0.00605
6710.0 0.00602
6715.0 0.00599
6720.0 0.00596
6725.0 0.00593
6730.0 0.0059
6735.0 0.00586
6740.0 0.00582
6745.0 0.00578
6750.0 0.00573
6755.0 0.00568
6760.0 0.00564
6765.0 0.0056
6770.0 0.00557
6775.0 0.00553
6780.0 0.0055
6785.0 0.00547
6790.0 0.00544
6795.0 0.00542
6800.0 0.00539
6805.0 0.00536
6810.0 0.00533
6815.0 0.0053
6820.0 0.00527
6825.0 0.00524
6830.0 0.00522
6835.0 0.00519
6840.0 0.00517
6845.0 0.00515
6850.0 0.00512
6855.0 0.0051
6860.0 0.00509
6865.0 0.00507
6870.0 0.00506
6875.0 0.00504
6880.0 0.00502
6885.0 0.00501
6890.0 0.00499
6895.0 0.00497
6900.0 0.00495
6905.0 0.00494
6910.0 0.00493
6915.0 0.00493
6920.0 0.00494
6925.0 0.00494
6930.0 0.00495
6935.0 0.00495
6940.0 0.00494
6945.0 0.00493
6950.0 0.00492
6955.0 0.00489
6960.0 0.00486
6965.0 0.00482
6970.0 0.00478
6975.0 0.00474
6980.0 0.0047
6985.0 0.00466
6990.0 0.00463
6995.0 0.0046
7000.0 0.00459
7005.0 0.0046
7010.0 0.00461
7015.0 0.00464
7020.0 0.00468
7025.0 0.00473
7030.0 0.00478
7035.0 0.00483
7040.0 0.00488
7045.0 0.00492
7050.0 0.00496
7055.0 0.005
7060.0 0.00503
7065.0 0.00507
7070.0 0.0051
7075.0 0.00513
7080.0 0.00515
7085.0 0.00517
7090.0 0.00519
7095.0 0.0052
7100.0 0.00521
7105.0 0.00522
7110.0 0.00522
7115.0 0.00521
7120.0 0.0052
7125.0 0.00519
7130.0 0.00516
7135.0 0.00513
7140.0 0.0051
7145.0 0.00506
7150.0 0.00502
7155.0 0.00498
7160.0 0.00495
7165.0 0.00492
7170.0 0.00489
7175.0 0.00487
7180.0 0.00485
7185.0 0.00483
7190.0 0.00481
7195.0 0.00479
7200.0 0.00477
7205.0 0.00475
7210.0 0.00473
7215.0 0.00471
7220.0 0.00469
7225.0 0.00467
7230.0 0.00465
7235.0 0.00464
7240.0 0.00462
7245.0 0.0046
7250.0 0.00459
7255.0 0.00458
7260.0 0.00456
7265.0 0.00455
7270.0 0.00454
7275.0 0.00453
7280.0 0.00452
7285.0 0.00451
7290.0 0.0045
7295.0 0.00449
7300.0 0.00448
7305.0 0.00447
7310.0 0.00447
7315.0 0.00446
7320.0 0.00445
7325.0 0.00444
7330.0 0.00443
7335.0 0.00442
7340.0 0.00441
7345.0 0.00439
7350.0 0.00438
7355.0 0.00436
7360.0 0.00433
7365.0 0.0043
7370.0 0.00426
7375.0 0.00422
7380.0 0.00417
7385.0 0.00413
7390.0 0.00407
7395.0 0.00402
7400.0 0.00396
7405.0 0.00389
7410.0 0.00382
7415.0 0.00375
7420.0 0.00367
7425.0 0.00359
7430.0 0.00351
7435.0 0.00343
7440.0 0.00335
7445.0 0.00326
7450.0 0.00319
7455.0 0.00312
7460.0 0.00306
7465.0 0.003
7470.0 0.00294
7475.0 0.00289
7480.0 0.00285
7485.0 0.00283
7490.0 0.00281
7495.0 0.0028
7500.0 0.0028
7505.0 0.00281
7510.0 0.00282
7515.0 0.00284
7520.0 0.00287
7525.0 0.0029
7530.0 0.00293
7535.0 0.00297
7540.0 0.00301
7545.0 0.00305
7550.0 0.00309
7555.0 0.00313
7560.0 0.00317
7565.0 0.00321
7570.0 0.00325
7575.0 0.00328
7580.0 0.00332
7585.0 0.00335
7590.0 0.00338
7595.0 0.00341
7600.0 0.00345
7605.0 0.00348
7610.0 0.00351
7615.0 0.00355
7620.0 0.00358
7625.0 0.00361
7630.0 0.00365
7635.0 0.00369
7640.0 0.00372
7645.0 0.00376
7650.0 0.00379
7655.0 0.00383
7660.0 0.00386
7665.0 0.0039
7670.0 0.00393
7675.0 0.00397
7680.0 0.004
7685.0 0.00403
7690.0 0.00406
7695.0 0.00408
7700.0 0.00411
7705.0 0.00413
7710.0 0.00415
7715.0 0.00417
7720.0 0.00419
7725.0 0.00421
7730.0 0.00423
7735.0 0.00424
7740.0 0.00426
7745.0 0.00427
7750.0 0.00428
7755.0 0.00428
7760.0 0.00428
7765.0 0.00428
7770.0 0.00427
7775.0 0.00428
7780.0 0.00428
7785.0 0.00427
7790.0 0.00427
7795.0 0.00427
7800.0 0.00427
7805.0 0.00428
7810.0 0.00428
7815.0 0.00429
7820.0 0.00429
7825.0 0.00429
7830.0 0.00429
7835.0 0.00428
7840.0 0.00426
7845.0 0.00425
7850.0 0.00423
7855.0 0.0042
7860.0 0.00418
7865.0 0.00415
7870.0 0.00412
7875.0 0.00409
7880.0 0.00406
7885.0 0.00403
7890.0 0.004
7895.0 0.00397
7900.0 0.00394
7905.0 0.00391
7910.0 0.00387
7915.0 0.00383
7920.0 0.00379
7925.0 0.00374
7930.0 0.00368
7935.0 0.00363
7940.0 0.00356
7945.0 0.0035
7950.0 0.00343
7955.0 0.00336
7960.0 0.00329
7965.0 0.00322
7970.0 0.00315
7975.0 0.00308
7980.0 0.00302
7985.0 0.00295
7990.0 0.0029
7995.0 0.00284
8000.0 0.00279
8005.0 0.00274
8010.0 0.0027
8015.0 0.00266
8020.0 0.00262
8025.0 0.00259
8030.0 0.00256
8035.0 0.00253
8040.0 0.0025
8045.0 0.00247
8050.0 0.00244
8055.0 0.00241
8060.0 0.00238
8065.0 0.00234
8070.0 0.00231
8075.0 0.00227
8080.0 0.00224
8085.0 0.0022
8090.0 0.00217
8095.0 0.00214
8100.0 0.00211
8105.0 0.00208
8110.0 0.00205
8115.0 0.00203
8120.0 0.00201
8125.0 0.00199
8130.0 0.00197
8135.0 0.00196
8140.0 0.00194
8145.0 0.00193
8150.0 0.00191
8155.0 0.0019
8160.0 0.00189
8165.0 0.00187
8170.0 0.00187
8175.0 0.00186
8180.0 0.00186
8185.0 0.00186
8190.0 0.00186
8195.0 0.00187
8200.0 0.00188
8205.0 0.0019
8210.0 0.00191
8215.0 0.00193
8220.0 0.00194
8225.0 0.00195
8230.0 0.00197
8235.0 0.00199
8240.0 0.002
8245.0 0.00202
8250.0 0.00203
8255.0 0.00204
8260.0 0.00205
8265.0 0.00207
8270.0 0.00208
8275.0 0.0021
8280.0 0.00212
8285.0 0.00214
8290.0 0.00217
8295.0 0.00219
8300.0 0.00222
8305.0 0.00225
8310.0 0.00227
8315.0 0.0023
8320.0 0.00233
8325.0 0.00235
8330.0 0.00238
8335.0 0.00241
8340.0 0.00244
8345.0 0.00247
8350.0 0.0025
8355.0 0.00253
8360.0 0.00256
8365.0 0.00259
8370.0 0.00263
8375.0 0.00266
8380.0 0.0027
8385.0 0.00275
8390.0 0.0028
8395.0 0.00285
8400.0 0.0029
8405.0 0.00296
8410.0 0.00302
8415.0 0.00308
8420.0 0.00313
8425.0 0.00319
8430.0 0.00324
8435.0 0.00329
8440.0 0.00333
8445.0 0.00337
8450.0 0.00341
8455.0 0.00344
