#lamb flux
1605.0 8.38e-05
1610.0 8.4e-05
1615.0 8.43e-05
1620.0 8.45e-05
1625.0 8.47e-05
1630.0 8.5e-05
1635.0 8.52e-05
1640.0 8.54e-05
1645.0 8.57e-05
1650.0 8.59e-05
1655.0 8.62e-05
1660.0 8.64e-05
1665.0 8.66e-05
1670.0 8.69e-05
1675.0 8.71e-05
1680.0 8.74e-05
1685.0 8.76e-05
1690.0 8.79e-05
1695.0 8.81e-05
1700.0 8.84e-05
1705.0 8.86e-05
1710.0 8.89e-05
1715.0 8.91e-05
1720.0 8.94e-05
1725.0 8.97e-05
1730.0 8.99e-05
1735.0 9.02e-05
1740.0 9.04e-05
1745.0 9.07e-05
1750.0 9.1e-05
1755.0 9.12e-05
1760.0 9.15e-05
1765.0 9.18e-05
1770.0 9.21e-05
1775.0 9.23e-05
1780.0 9.26e-05
1785.0 9.29e-05
1790.0 9.32e-05
1795.0 9.34e-05
1800.0 9.37e-05
1805.0 9.4e-05
1810.0 9.43e-05
1815.0 9.46e-05
1820.0 9.49e-05
1825.0 9.52e-05
1830.0 9.55e-05
1835.0 9.58e-05
1840.0 9.61e-05
1845.0 9.64e-05
1850.0 9.67e-05
1855.0 9.7e-05
1860.0 9.73e-05
1865.0 9.76e-05
1870.0 9.79e-05
1875.0 9.82e-05
1880.0 9.85e-05
1885.0 9.88e-05
1890.0 9.91e-05
1895.0 9.94e-05
1900.0 9.97e-05
1905.0 0.0001
1910.0 0.0001
1915.0 0.000101
1920.0 0.000101
1925.0 0.000101
1930.0 0.000102
1935.0 0.000102
1940.0 0.000102
1945.0 0.000103
1950.0 0.000103
1955.0 0.000103
1960.0 0.000104
1965.0 0.000104
1970.0 0.000104
1975.0 0.000105
1980.0 0.000105
1985.0 0.000105
1990.0 0.000106
1995.0 0.000106
2000.0 0.000107
2005.0 0.000107
2010.0 0.000107
2015.0 0.000108
2020.0 0.000108
2025.0 0.000108
2030.0 0.000109
2035.0 0.000109
2040.0 0.000109
2045.0 0.00011
2050.0 0.00011
2055.0 0.000111
2060.0 0.000111
2065.0 0.000111
2070.0 0.000112
2075.0 0.000112
2080.0 0.000113
2085.0 0.000113
2090.0 0.000113
2095.0 0.000114
2100.0 0.000114
2105.0 0.000115
2110.0 0.000115
2115.0 0.000115
2120.0 0.000116
2125.0 0.000116
2130.0 0.000117
2135.0 0.000117
2140.0 0.000118
2145.0 0.000118
2150.0 0.000118
2155.0 0.000119
2160.0 0.000119
2165.0 0.00012
2170.0 0.00012
2175.0 0.000121
2180.0 0.000121
2185.0 0.000121
2190.0 0.000122
2195.0 0.000122
2200.0 0.000123
2205.0 0.000123
2210.0 0.000124
2215.0 0.000124
2220.0 0.000125
2225.0 0.000125
2230.0 0.000126
2235.0 0.000126
2240.0 0.000127
2245.0 0.000127
2250.0 0.000128
2255.0 0.000128
2260.0 0.000129
2265.0 0.000129
2270.0 0.00013
2275.0 0.00013
2280.0 0.000131
2285.0 0.000131
2290.0 0.000132
2295.0 0.000132
2300.0 0.000133
2305.0 0.000133
2310.0 0.000134
2315.0 0.000134
2320.0 0.000135
2325.0 0.000136
2330.0 0.000136
2335.0 0.000137
2340.0 0.000137
2345.0 0.000138
2350.0 0.000138
2355.0 0.000139
2360.0 0.000139
2365.0 0.00014
2370.0 0.000141
2375.0 0.000141
2380.0 0.000142
2385.0 0.000142
2390.0 0.000143
2395.0 0.000144
2400.0 0.000144
2405.0 0.000145
2410.0 0.000145
2415.0 0.000146
2420.0 0.000147
2425.0 0.000147
2430.0 0.000148
2435.0 0.000149
2440.0 0.000149
2445.0 0.00015
2450.0 0.000151
2455.0 0.000151
2460.0 0.000152
2465.0 0.000153
2470.0 0.000153
2475.0 0.000154
2480.0 0.000155
2485.0 0.000155
2490.0 0.000156
2495.0 0.000157
2500.0 0.000157
2505.0 0.000158
2510.0 0.000159
2515.0 0.00016
2520.0 0.00016
2525.0 0.000161
2530.0 0.000162
2535.0 0.000162
2540.0 0.000163
2545.0 0.000164
2550.0 0.000165
2555.0 0.000165
2560.0 0.000166
2565.0 0.000167
2570.0 0.000168
2575.0 0.000169
2580.0 0.000169
2585.0 0.00017
2590.0 0.000171
2595.0 0.000172
2600.0 0.000173
2605.0 0.000173
2610.0 0.000174
2615.0 0.000175
2620.0 0.000176
2625.0 0.000177
2630.0 0.000178
2635.0 0.000178
2640.0 0.000179
2645.0 0.00018
2650.0 0.000181
2655.0 0.000182
2660.0 0.000183
2665.0 0.000184
2670.0 0.000185
2675.0 0.000186
2680.0 0.000186
2685.0 0.000187
2690.0 0.000188
2695.0 0.000189
2700.0 0.00019
2705.0 0.000191
2710.0 0.000192
2715.0 0.000193
2720.0 0.000194
2725.0 0.000195
2730.0 0.000196
2735.0 0.000197
2740.0 0.000198
2745.0 0.000199
2750.0 0.0002
2755.0 0.000201
2760.0 0.000202
2765.0 0.000203
2770.0 0.000204
2775.0 0.000205
2780.0 0.000206
2785.0 0.000207
2790.0 0.000208
2795.0 0.00021
2800.0 0.000211
2805.0 0.000212
2810.0 0.000213
2815.0 0.000214
2820.0 0.000215
2825.0 0.000216
2830.0 0.000217
2835.0 0.000219
2840.0 0.00022
2845.0 0.000221
2850.0 0.000222
2855.0 0.000223
2860.0 0.000224
2865.0 0.000226
2870.0 0.000227
2875.0 0.000228
2880.0 0.000229
2885.0 0.000231
2890.0 0.000232
2895.0 0.000233
2900.0 0.000234
2905.0 0.000236
2910.0 0.000237
2915.0 0.000238
2920.0 0.000239
2925.0 0.000241
2930.0 0.000242
2935.0 0.000243
2940.0 0.000245
2945.0 0.000246
2950.0 0.000247
2955.0 0.000249
2960.0 0.00025
2965.0 0.000252
2970.0 0.000253
2975.0 0.000254
2980.0 0.000256
2985.0 0.000257
2990.0 0.000259
2995.0 0.00026
3000.0 0.000262
3005.0 0.000263
3010.0 0.000265
3015.0 0.000266
3020.0 0.000268
3025.0 0.000269
3030.0 0.000271
3035.0 0.000272
3040.0 0.000274
3045.0 0.000275
3050.0 0.000277
3055.0 0.000278
3060.0 0.00028
3065.0 0.000281
3070.0 0.000283
3075.0 0.000285
3080.0 0.000286
3085.0 0.000288
3090.0 0.00029
3095.0 0.000291
3100.0 0.000293
3105.0 0.000295
3110.0 0.000296
3115.0 0.000298
3120.0 0.0003
3125.0 0.000301
3130.0 0.000303
3135.0 0.000305
3140.0 0.000307
3145.0 0.000308
3150.0 0.00031
3155.0 0.000312
3160.0 0.000314
3165.0 0.000316
3170.0 0.000317
3175.0 0.000319
3180.0 0.000321
3185.0 0.000323
3190.0 0.000325
3195.0 0.000327
3200.0 0.000329
3205.0 0.000331
3210.0 0.000332
3215.0 0.000334
3220.0 0.000336
3225.0 0.000338
3230.0 0.00034
3235.0 0.000342
3240.0 0.000344
3245.0 0.000346
3250.0 0.000348
3255.0 0.00035
3260.0 0.000352
3265.0 0.000354
3270.0 0.000356
3275.0 0.000358
3280.0 0.00036
3285.0 0.000362
3290.0 0.000365
3295.0 0.000367
3300.0 0.000369
3305.0 0.000371
3310.0 0.000373
3315.0 0.000375
3320.0 0.000377
3325.0 0.000379
3330.0 0.000382
3335.0 0.000384
3340.0 0.000386
3345.0 0.000388
3350.0 0.00039
3355.0 0.000393
3360.0 0.000395
3365.0 0.000397
3370.0 0.000399
3375.0 0.000402
3380.0 0.000404
3385.0 0.000406
3390.0 0.000409
3395.0 0.000411
3400.0 0.000413
3405.0 0.000416
3410.0 0.000418
3415.0 0.00042
3420.0 0.000423
3425.0 0.000425
3430.0 0.000427
3435.0 0.00043
3440.0 0.000432
3445.0 0.000435
3450.0 0.000437
3455.0 0.00044
3460.0 0.000442
3465.0 0.000444
3470.0 0.000447
3475.0 0.000449
3480.0 0.000452
3485.0 0.000454
3490.0 0.000457
3495.0 0.000459
3500.0 0.000462
3505.0 0.000465
3510.0 0.000467
3515.0 0.00047
3520.0 0.000472
3525.0 0.000475
3530.0 0.000477
3535.0 0.00048
3540.0 0.000482
3545.0 0.000485
3550.0 0.000488
3555.0 0.00049
3560.0 0.000493
3565.0 0.000495
3570.0 0.000498
3575.0 0.000501
3580.0 0.000503
3585.0 0.000506
3590.0 0.000508
3595.0 0.000511
3600.0 0.000514
3605.0 0.000516
3610.0 0.000519
3615.0 0.000522
3620.0 0.000524
3625.0 0.000527
3630.0 0.00053
3635.0 0.000532
3640.0 0.000535
3645.0 0.000538
3650.0 0.00054
3655.0 0.000543
3660.0 0.000546
3665.0 0.000548
3670.0 0.000551
3675.0 0.000554
3680.0 0.000556
3685.0 0.000559
3690.0 0.000562
3695.0 0.000564
3700.0 0.000567
3705.0 0.00057
3710.0 0.000572
3715.0 0.000575
3720.0 0.000578
3725.0 0.00058
3730.0 0.000583
3735.0 0.000586
3740.0 0.000589
3745.0 0.000591
3750.0 0.000594
3755.0 0.000597
3760.0 0.000599
3765.0 0.000602
3770.0 0.000605
3775.0 0.000607
3780.0 0.00061
3785.0 0.000613
3790.0 0.000615
3795.0 0.000618
3800.0 0.000621
3805.0 0.000623
3810.0 0.000626
3815.0 0.000629
3820.0 0.000631
3825.0 0.000634
3830.0 0.000636
3835.0 0.000639
3840.0 0.000642
3845.0 0.000644
3850.0 0.000647
3855.0 0.00065
3860.0 0.000652
3865.0 0.000655
3870.0 0.000658
3875.0 0.00066
3880.0 0.000663
3885.0 0.000666
3890.0 0.000668
3895.0 0.000671
3900.0 0.000674
3905.0 0.000676
3910.0 0.000679
3915.0 0.000682
3920.0 0.000685
3925.0 0.000687
3930.0 0.00069
3935.0 0.000693
3940.0 0.000695
3945.0 0.000698
3950.0 0.000701
3955.0 0.000704
3960.0 0.000706
3965.0 0.000709
3970.0 0.000712
3975.0 0.000715
3980.0 0.000718
3985.0 0.00072
3990.0 0.000723
3995.0 0.000726
4000.0 0.000729
4005.0 0.000732
4010.0 0.000735
4015.0 0.000738
4020.0 0.000741
4025.0 0.000744
4030.0 0.000747
4035.0 0.00075
4040.0 0.000753
4045.0 0.000756
4050.0 0.000759
4055.0 0.000762
4060.0 0.000765
4065.0 0.000768
4070.0 0.000771
4075.0 0.000775
4080.0 0.000778
4085.0 0.000781
4090.0 0.000784
4095.0 0.000788
4100.0 0.000791
4105.0 0.000795
4110.0 0.000798
4115.0 0.000802
4120.0 0.000805
4125.0 0.000809
4130.0 0.000812
4135.0 0.000816
4140.0 0.00082
4145.0 0.000824
4150.0 0.000827
4155.0 0.000831
4160.0 0.000835
4165.0 0.000839
4170.0 0.000843
4175.0 0.000847
4180.0 0.000851
4185.0 0.000855
4190.0 0.000859
4195.0 0.000864
4200.0 0.000868
4205.0 0.000872
4210.0 0.000877
4215.0 0.000881
4220.0 0.000886
4225.0 0.00089
4230.0 0.000895
4235.0 0.000899
4240.0 0.000904
4245.0 0.000909
4250.0 0.000914
4255.0 0.000919
4260.0 0.000924
4265.0 0.000929
4270.0 0.000934
4275.0 0.000939
4280.0 0.000944
4285.0 0.00095
4290.0 0.000955
4295.0 0.00096
4300.0 0.000966
4305.0 0.000971
4310.0 0.000977
4315.0 0.000983
4320.0 0.000988
4325.0 0.000994
4330.0 0.001
4335.0 0.00101
4340.0 0.00101
4345.0 0.00102
4350.0 0.00102
4355.0 0.00103
4360.0 0.00104
4365.0 0.00104
4370.0 0.00105
4375.0 0.00106
4380.0 0.00106
4385.0 0.00107
4390.0 0.00108
4395.0 0.00108
4400.0 0.00109
4405.0 0.0011
4410.0 0.0011
4415.0 0.00111
4420.0 0.00109
4425.0 0.00106
4430.0 0.00104
4435.0 0.00102
4440.0 0.00101
4445.0 0.000989
4450.0 0.00097
4455.0 0.000946
4460.0 0.000925
4465.0 0.000904
4470.0 0.000882
4475.0 0.000858
4480.0 0.000828
4485.0 0.000792
4490.0 0.000758
4495.0 0.000722
4500.0 0.000684
4505.0 0.000653
4510.0 0.000639
4515.0 0.000642
4520.0 0.000657
4525.0 0.000687
4530.0 0.000717
4535.0 0.000784
4540.0 0.000856
4545.0 0.000935
4550.0 0.00104
4555.0 0.00114
4560.0 0.00125
4565.0 0.00134
4570.0 0.00143
4575.0 0.00151
4580.0 0.00158
4585.0 0.00165
4590.0 0.00169
4595.0 0.00173
4600.0 0.00176
4605.0 0.00178
4610.0 0.00179
4615.0 0.00179
4620.0 0.0018
4625.0 0.00179
4630.0 0.00179
4635.0 0.00177
4640.0 0.00176
4645.0 0.00173
4650.0 0.00172
4655.0 0.00171
4660.0 0.00171
4665.0 0.00172
4670.0 0.00172
4675.0 0.00173
4680.0 0.00173
4685.0 0.00173
4690.0 0.00172
4695.0 0.0017
4700.0 0.00169
4705.0 0.0017
4710.0 0.00171
4715.0 0.00172
4720.0 0.00174
4725.0 0.00174
4730.0 0.00173
4735.0 0.00174
4740.0 0.00174
4745.0 0.00172
4750.0 0.00166
4755.0 0.00157
4760.0 0.00144
4765.0 0.0013
4770.0 0.00114
4775.0 0.000961
4780.0 0.000785
4785.0 0.000632
4790.0 0.000521
4795.0 0.00046
4800.0 0.000457
4805.0 0.00052
4810.0 0.000637
4815.0 0.000801
4820.0 0.000995
4825.0 0.00121
4830.0 0.00142
4835.0 0.00162
4840.0 0.00182
4845.0 0.00201
4850.0 0.00218
4855.0 0.00233
4860.0 0.00247
4865.0 0.00257
4870.0 0.00265
4875.0 0.0027
4880.0 0.00272
4885.0 0.0027
4890.0 0.00267
4895.0 0.00263
4900.0 0.00258
4905.0 0.00252
4910.0 0.00246
4915.0 0.00239
4920.0 0.00232
4925.0 0.00227
4930.0 0.00225
4935.0 0.00223
4940.0 0.00221
4945.0 0.00218
4950.0 0.00214
4955.0 0.0021
4960.0 0.00205
4965.0 0.00199
4970.0 0.00191
4975.0 0.00183
4980.0 0.00176
4985.0 0.00171
4990.0 0.00168
4995.0 0.00169
5000.0 0.00171
5005.0 0.00176
5010.0 0.00183
5015.0 0.00191
5020.0 0.00199
5025.0 0.00206
5030.0 0.00213
5035.0 0.00218
5040.0 0.00224
5045.0 0.00228
5050.0 0.0023
5055.0 0.00232
5060.0 0.0023
5065.0 0.00226
5070.0 0.00219
5075.0 0.0021
5080.0 0.00199
5085.0 0.00188
5090.0 0.00177
5095.0 0.00166
5100.0 0.00155
5105.0 0.00144
5110.0 0.00135
5115.0 0.00127
5120.0 0.0012
5125.0 0.00115
5130.0 0.00112
5135.0 0.00111
5140.0 0.00111
5145.0 0.00112
5150.0 0.00115
5155.0 0.00121
5160.0 0.00127
5165.0 0.00135
5170.0 0.00143
5175.0 0.00151
5180.0 0.00159
5185.0 0.00166
5190.0 0.00172
5195.0 0.00178
5200.0 0.00184
5205.0 0.00189
5210.0 0.00192
5215.0 0.00193
5220.0 0.00193
5225.0 0.00191
5230.0 0.00187
5235.0 0.00183
5240.0 0.00179
5245.0 0.00175
5250.0 0.00172
5255.0 0.0017
5260.0 0.0017
5265.0 0.0017
5270.0 0.00172
5275.0 0.00174
5280.0 0.00176
5285.0 0.00179
5290.0 0.00181
5295.0 0.00183
5300.0 0.00185
5305.0 0.00187
5310.0 0.00188
5315.0 0.0019
5320.0 0.00191
5325.0 0.00192
5330.0 0.00192
5335.0 0.00193
5340.0 0.00193
5345.0 0.00194
5350.0 0.00194
5355.0 0.00195
5360.0 0.00194
5365.0 0.00194
5370.0 0.00192
5375.0 0.0019
5380.0 0.00188
5385.0 0.00187
5390.0 0.00187
5395.0 0.00188
5400.0 0.0019
5405.0 0.00192
5410.0 0.00195
5415.0 0.002
5420.0 0.00204
5425.0 0.00207
5430.0 0.0021
5435.0 0.00211
5440.0 0.00212
5445.0 0.00212
5450.0 0.00212
5455.0 0.00211
5460.0 0.0021
5465.0 0.00208
5470.0 0.00207
5475.0 0.00205
5480.0 0.00204
5485.0 0.00204
5490.0 0.00205
5495.0 0.00206
5500.0 0.00208
5505.0 0.0021
5510.0 0.00214
5515.0 0.00218
5520.0 0.00223
5525.0 0.00228
5530.0 0.00234
5535.0 0.0024
5540.0 0.00246
5545.0 0.0025
5550.0 0.00254
5555.0 0.00257
5560.0 0.00259
5565.0 0.00259
5570.0 0.00258
5575.0 0.00255
5580.0 0.0025
5585.0 0.00244
5590.0 0.00237
5595.0 0.0023
5600.0 0.00222
5605.0 0.00216
5610.0 0.00211
5615.0 0.00206
5620.0 0.00202
5625.0 0.00198
5630.0 0.00195
5635.0 0.00192
5640.0 0.0019
5645.0 0.00189
5650.0 0.00188
5655.0 0.00188
5660.0 0.00187
5665.0 0.00188
5670.0 0.00189
5675.0 0.00191
5680.0 0.00193
5685.0 0.00196
5690.0 0.00199
5695.0 0.00202
5700.0 0.00204
5705.0 0.00204
5710.0 0.00204
5715.0 0.00201
5720.0 0.00197
5725.0 0.00191
5730.0 0.00183
5735.0 0.00174
5740.0 0.00164
5745.0 0.00153
5750.0 0.00141
5755.0 0.00128
5760.0 0.00116
5765.0 0.00103
5770.0 0.000904
5775.0 0.000788
5780.0 0.000675
5785.0 0.000565
5790.0 0.000459
5795.0 0.000368
5800.0 0.000295
5805.0 0.000245
5810.0 0.000214
5815.0 0.000212
5820.0 0.000243
5825.0 0.00031
5830.0 0.000413
5835.0 0.000551
5840.0 0.000716
5845.0 0.000901
5850.0 0.0011
5855.0 0.00131
5860.0 0.00153
5865.0 0.00174
5870.0 0.00195
5875.0 0.00216
5880.0 0.00235
5885.0 0.00253
5890.0 0.00268
5895.0 0.00281
5900.0 0.0029
5905.0 0.00296
5910.0 0.00299
5915.0 0.00299
5920.0 0.00296
5925.0 0.0029
5930.0 0.00283
5935.0 0.00274
5940.0 0.00263
5945.0 0.00253
5950.0 0.00243
5955.0 0.00235
5960.0 0.00228
5965.0 0.00222
5970.0 0.00219
5975.0 0.00216
5980.0 0.00214
5985.0 0.00212
5990.0 0.00211
5995.0 0.00209
6000.0 0.00208
6005.0 0.00205
6010.0 0.00202
6015.0 0.00198
6020.0 0.00195
6025.0 0.00191
6030.0 0.00187
6035.0 0.00184
6040.0 0.0018
6045.0 0.00177
6050.0 0.00174
6055.0 0.00171
6060.0 0.00169
6065.0 0.00168
6070.0 0.00167
6075.0 0.00167
6080.0 0.00168
6085.0 0.00169
6090.0 0.00171
6095.0 0.00172
6100.0 0.00174
6105.0 0.00176
6110.0 0.00179
6115.0 0.00182
6120.0 0.00185
6125.0 0.00189
6130.0 0.00193
6135.0 0.00196
6140.0 0.00199
6145.0 0.00201
6150.0 0.00203
6155.0 0.00203
6160.0 0.00203
6165.0 0.00203
6170.0 0.00202
6175.0 0.002
6180.0 0.00198
6185.0 0.00195
6190.0 0.00193
6195.0 0.0019
6200.0 0.00188
6205.0 0.00185
6210.0 0.00183
6215.0 0.00182
6220.0 0.00182
6225.0 0.00183
6230.0 0.00187
6235.0 0.00192
6240.0 0.00198
6245.0 0.00205
6250.0 0.00212
6255.0 0.0022
6260.0 0.00228
6265.0 0.00235
6270.0 0.00242
6275.0 0.00249
6280.0 0.00255
6285.0 0.00259
6290.0 0.00262
6295.0 0.00262
6300.0 0.00261
6305.0 0.00259
6310.0 0.00255
6315.0 0.00251
6320.0 0.00246
6325.0 0.0024
6330.0 0.00234
6335.0 0.00228
6340.0 0.00221
6345.0 0.00215
6350.0 0.00209
6355.0 0.00204
6360.0 0.002
6365.0 0.00197
6370.0 0.00194
6375.0 0.00191
6380.0 0.00188
6385.0 0.00186
6390.0 0.00183
6395.0 0.00179
6400.0 0.00173
6405.0 0.00167
6410.0 0.0016
6415.0 0.00152
6420.0 0.00145
6425.0 0.00138
6430.0 0.00131
6435.0 0.00124
6440.0 0.00114
6445.0 0.000995
6450.0 0.000828
6455.0 0.000643
6460.0 0.000459
6465.0 0.000312
6470.0 0.000223
6475.0 0.000191
6480.0 0.00023
6485.0 0.000376
6490.0 0.000663
6495.0 0.0011
6500.0 0.00169
6505.0 0.00243
6510.0 0.0033
6515.0 0.00428
6520.0 0.00535
6525.0 0.00646
6530.0 0.00759
6535.0 0.00868
6540.0 0.00971
6545.0 0.0106
6550.0 0.0114
6555.0 0.0121
6560.0 0.0126
6565.0 0.0129
6570.0 0.0129
6575.0 0.0128
6580.0 0.0125
6585.0 0.012
6590.0 0.0114
6595.0 0.0106
6600.0 0.00977
6605.0 0.00886
6610.0 0.00793
6615.0 0.00704
6620.0 0.00623
6625.0 0.00551
6630.0 0.00488
6635.0 0.00435
6640.0 0.0039
6645.0 0.00355
6650.0 0.00328
6655.0 0.00308
6660.0 0.00295
6665.0 0.00284
6670.0 0.00273
6675.0 0.00262
6680.0 0.00252
6685.0 0.00244
6690.0 0.00235
6695.0 0.00227
6700.0 0.00219
6705.0 0.00212
6710.0 0.00205
6715.0 0.00199
6720.0 0.00193
6725.0 0.00188
6730.0 0.00183
6735.0 0.00178
6740.0 0.00173
6745.0 0.00168
6750.0 0.00165
6755.0 0.00162
6760.0 0.0016
6765.0 0.00158
6770.0 0.00157
6775.0 0.00156
6780.0 0.00156
6785.0 0.00156
6790.0 0.00155
6795.0 0.00155
6800.0 0.00155
6805.0 0.00155
6810.0 0.00155
6815.0 0.00155
6820.0 0.00155
6825.0 0.00155
6830.0 0.00155
6835.0 0.00154
6840.0 0.00154
6845.0 0.00153
6850.0 0.00153
6855.0 0.00152
6860.0 0.0015
6865.0 0.00149
6870.0 0.00148
6875.0 0.00146
6880.0 0.00145
6885.0 0.00144
6890.0 0.00143
6895.0 0.00142
6900.0 0.00141
6905.0 0.00141
6910.0 0.0014
6915.0 0.00139
6920.0 0.00139
6925.0 0.00138
6930.0 0.00137
6935.0 0.00137
6940.0 0.00137
6945.0 0.00138
6950.0 0.00138
6955.0 0.00139
6960.0 0.00139
6965.0 0.0014
6970.0 0.0014
6975.0 0.00141
6980.0 0.00141
6985.0 0.00141
6990.0 0.00141
6995.0 0.00142
7000.0 0.00143
7005.0 0.00146
7010.0 0.00149
7015.0 0.00153
7020.0 0.00157
7025.0 0.00162
7030.0 0.00167
7035.0 0.00172
7040.0 0.00177
7045.0 0.00181
7050.0 0.00184
7055.0 0.00187
7060.0 0.0019
7065.0 0.00192
7070.0 0.00193
7075.0 0.00193
7080.0 0.00193
7085.0 0.00193
7090.0 0.00193
7095.0 0.00192
7100.0 0.00191
7105.0 0.0019
7110.0 0.00188
7115.0 0.00187
7120.0 0.00185
7125.0 0.00183
7130.0 0.00182
7135.0 0.00182
7140.0 0.00182
7145.0 0.00182
7150.0 0.00182
7155.0 0.00183
7160.0 0.00184
7165.0 0.00186
7170.0 0.00187
7175.0 0.00187
7180.0 0.00187
7185.0 0.00186
7190.0 0.00186
7195.0 0.00185
7200.0 0.00184
7205.0 0.00182
7210.0 0.00179
7215.0 0.00178
7220.0 0.00177
7225.0 0.00177
7230.0 0.00178
7235.0 0.00179
7240.0 0.00182
7245.0 0.00187
7250.0 0.00193
7255.0 0.002
7260.0 0.00209
7265.0 0.00218
7270.0 0.00228
7275.0 0.00239
7280.0 0.00249
7285.0 0.0026
7290.0 0.0027
7295.0 0.00279
7300.0 0.00288
7305.0 0.00295
7310.0 0.00299
7315.0 0.00302
7320.0 0.00302
7325.0 0.003
7330.0 0.00296
7335.0 0.0029
7340.0 0.00283
7345.0 0.00274
7350.0 0.00264
7355.0 0.00253
7360.0 0.00243
7365.0 0.00232
7370.0 0.00222
7375.0 0.00212
7380.0 0.00204
7385.0 0.00198
7390.0 0.00192
7395.0 0.00187
7400.0 0.00184
7405.0 0.00182
7410.0 0.00181
7415.0 0.00181
7420.0 0.00181
7425.0 0.00182
7430.0 0.00182
7435.0 0.00183
7440.0 0.00183
7445.0 0.00184
7450.0 0.00184
7455.0 0.00185
7460.0 0.00186
7465.0 0.00187
7470.0 0.00187
7475.0 0.00187
7480.0 0.00187
7485.0 0.00187
7490.0 0.00187
7495.0 0.00186
7500.0 0.00184
7505.0 0.00182
7510.0 0.00179
7515.0 0.00175
7520.0 0.00171
7525.0 0.00165
7530.0 0.00159
7535.0 0.00153
7540.0 0.00146
7545.0 0.00138
7550.0 0.0013
7555.0 0.00122
7560.0 0.00113
7565.0 0.00105
7570.0 0.000962
7575.0 0.000882
7580.0 0.00081
7585.0 0.000746
7590.0 0.000698
7595.0 0.000667
7600.0 0.000651
7605.0 0.000654
7610.0 0.000671
7615.0 0.000708
7620.0 0.000756
7625.0 0.00082
7630.0 0.0009
7635.0 0.000999
7640.0 0.00112
7645.0 0.00125
7650.0 0.00139
7655.0 0.00153
7660.0 0.00167
7665.0 0.00179
7670.0 0.0019
7675.0 0.00198
7680.0 0.00205
7685.0 0.00209
7690.0 0.00211
7695.0 0.00212
7700.0 0.0021
7705.0 0.00208
7710.0 0.00205
7715.0 0.00201
7720.0 0.00197
7725.0 0.00193
7730.0 0.0019
7735.0 0.00187
7740.0 0.00185
7745.0 0.00184
7750.0 0.00183
7755.0 0.00183
7760.0 0.00184
7765.0 0.00185
7770.0 0.00186
7775.0 0.00188
7780.0 0.0019
7785.0 0.00193
7790.0 0.00194
7795.0 0.00195
7800.0 0.00194
7805.0 0.00192
7810.0 0.00189
7815.0 0.00184
7820.0 0.00178
7825.0 0.00172
7830.0 0.00166
7835.0 0.0016
7840.0 0.00156
7845.0 0.00151
7850.0 0.00148
7855.0 0.00146
7860.0 0.00144
7865.0 0.00143
7870.0 0.00142
7875.0 0.00141
7880.0 0.00141
7885.0 0.00141
7890.0 0.0014
7895.0 0.0014
7900.0 0.0014
7905.0 0.0014
7910.0 0.00139
7915.0 0.00139
7920.0 0.0014
7925.0 0.0014
7930.0 0.0014
7935.0 0.0014
7940.0 0.00141
7945.0 0.00141
7950.0 0.00142
7955.0 0.00143
7960.0 0.00143
7965.0 0.00143
7970.0 0.00144
7975.0 0.00144
7980.0 0.00145
7985.0 0.00146
7990.0 0.00147
7995.0 0.00147
8000.0 0.00148
8005.0 0.00149
8010.0 0.00149
8015.0 0.0015
8020.0 0.0015
8025.0 0.0015
8030.0 0.0015
8035.0 0.00149
8040.0 0.00149
8045.0 0.00148
8050.0 0.00148
8055.0 0.00147
8060.0 0.00147
8065.0 0.00146
8070.0 0.00145
8075.0 0.00144
8080.0 0.00143
8085.0 0.00141
8090.0 0.00139
8095.0 0.00137
8100.0 0.00134
8105.0 0.00132
