#lamb flux
1605.0 0.000176
1610.0 0.000177
1615.0 0.000178
1620.0 0.000179
1625.0 0.00018
1630.0 0.00018
1635.0 0.000181
1640.0 0.000182
1645.0 0.000183
1650.0 0.000184
1655.0 0.000185
1660.0 0.000186
1665.0 0.000187
1670.0 0.000188
1675.0 0.000189
1680.0 0.00019
1685.0 0.000191
1690.0 0.000192
1695.0 0.000193
1700.0 0.000194
1705.0 0.000195
1710.0 0.000195
1715.0 0.000196
1720.0 0.000197
1725.0 0.000199
1730.0 0.0002
1735.0 0.000201
1740.0 0.000202
1745.0 0.000203
1750.0 0.000204
1755.0 0.000205
1760.0 0.000206
1765.0 0.000207
1770.0 0.000208
1775.0 0.000209
1780.0 0.00021
1785.0 0.000211
1790.0 0.000212
1795.0 0.000213
1800.0 0.000214
1805.0 0.000215
1810.0 0.000216
1815.0 0.000218
1820.0 0.000219
1825.0 0.00022
1830.0 0.000221
1835.0 0.000222
1840.0 0.000223
1845.0 0.000224
1850.0 0.000225
1855.0 0.000227
1860.0 0.000228
1865.0 0.000229
1870.0 0.00023
1875.0 0.000231
1880.0 0.000232
1885.0 0.000234
1890.0 0.000235
1895.0 0.000236
1900.0 0.000237
1905.0 0.000238
1910.0 0.00024
1915.0 0.000241
1920.0 0.000242
1925.0 0.000243
1930.0 0.000245
1935.0 0.000246
1940.0 0.000247
1945.0 0.000248
1950.0 0.00025
1955.0 0.000251
1960.0 0.000252
1965.0 0.000254
1970.0 0.000255
1975.0 0.000256
1980.0 0.000257
1985.0 0.000259
1990.0 0.00026
1995.0 0.000261
2000.0 0.000263
2005.0 0.000264
2010.0 0.000265
2015.0 0.000267
2020.0 0.000268
2025.0 0.00027
2030.0 0.000271
2035.0 0.000272
2040.0 0.000274
2045.0 0.000275
2050.0 0.000277
2055.0 0.000278
2060.0 0.000279
2065.0 0.000281
2070.0 0.000282
2075.0 0.000284
2080.0 0.000285
2085.0 0.000287
2090.0 0.000288
2095.0 0.00029
2100.0 0.000291
2105.0 0.000292
2110.0 0.000294
2115.0 0.000295
2120.0 0.000297
2125.0 0.000299
2130.0 0.0003
2135.0 0.000302
2140.0 0.000303
2145.0 0.000305
2150.0 0.000306
2155.0 0.000308
2160.0 0.000309
2165.0 0.000311
2170.0 0.000312
2175.0 0.000314
2180.0 0.000316
2185.0 0.000317
2190.0 0.000319
2195.0 0.00032
2200.0 0.000322
2205.0 0.000324
2210.0 0.000325
2215.0 0.000327
2220.0 0.000328
2225.0 0.00033
2230.0 0.000332
2235.0 0.000333
2240.0 0.000335
2245.0 0.000337
2250.0 0.000338
2255.0 0.00034
2260.0 0.000342
2265.0 0.000343
2270.0 0.000345
2275.0 0.000347
2280.0 0.000348
2285.0 0.00035
2290.0 0.000352
2295.0 0.000354
2300.0 0.000355
2305.0 0.000357
2310.0 0.000359
2315.0 0.000361
2320.0 0.000362
2325.0 0.000364
2330.0 0.000366
2335.0 0.000368
2340.0 0.000369
2345.0 0.000371
2350.0 0.000373
2355.0 0.000375
2360.0 0.000377
2365.0 0.000378
2370.0 0.00038
2375.0 0.000382
2380.0 0.000384
2385.0 0.000386
2390.0 0.000387
2395.0 0.000389
2400.0 0.000391
2405.0 0.000393
2410.0 0.000395
2415.0 0.000397
2420.0 0.000399
2425.0 0.0004
2430.0 0.000402
2435.0 0.000404
2440.0 0.000406
2445.0 0.000408
2450.0 0.00041
2455.0 0.000412
2460.0 0.000414
2465.0 0.000415
2470.0 0.000417
2475.0 0.000419
2480.0 0.000421
2485.0 0.000423
2490.0 0.000425
2495.0 0.000427
2500.0 0.000429
2505.0 0.000431
2510.0 0.000433
2515.0 0.000435
2520.0 0.000437
2525.0 0.000439
2530.0 0.000441
2535.0 0.000442
2540.0 0.000444
2545.0 0.000446
2550.0 0.000448
2555.0 0.00045
2560.0 0.000452
2565.0 0.000454
2570.0 0.000456
2575.0 0.000458
2580.0 0.00046
2585.0 0.000462
2590.0 0.000464
2595.0 0.000466
2600.0 0.000468
2605.0 0.00047
2610.0 0.000472
2615.0 0.000474
2620.0 0.000476
2625.0 0.000478
2630.0 0.00048
2635.0 0.000482
2640.0 0.000484
2645.0 0.000486
2650.0 0.000488
2655.0 0.00049
2660.0 0.000492
2665.0 0.000494
2670.0 0.000496
2675.0 0.000498
2680.0 0.0005
2685.0 0.000502
2690.0 0.000504
2695.0 0.000506
2700.0 0.000508
2705.0 0.00051
2710.0 0.000512
2715.0 0.000514
2720.0 0.000516
2725.0 0.000518
2730.0 0.00052
2735.0 0.000522
2740.0 0.000524
2745.0 0.000526
2750.0 0.000528
2755.0 0.000531
2760.0 0.000533
2765.0 0.000535
2770.0 0.000537
2775.0 0.000539
2780.0 0.000541
2785.0 0.000543
2790.0 0.000545
2795.0 0.000547
2800.0 0.000549
2805.0 0.000551
2810.0 0.000553
2815.0 0.000555
2820.0 0.000557
2825.0 0.000559
2830.0 0.000561
2835.0 0.000563
2840.0 0.000565
2845.0 0.000567
2850.0 0.000569
2855.0 0.000571
2860.0 0.000573
2865.0 0.000575
2870.0 0.000577
2875.0 0.000579
2880.0 0.000582
2885.0 0.000584
2890.0 0.000586
2895.0 0.000588
2900.0 0.00059
2905.0 0.000592
2910.0 0.000594
2915.0 0.000596
2920.0 0.000598
2925.0 0.0006
2930.0 0.000602
2935.0 0.000604
2940.0 0.000606
2945.0 0.000608
2950.0 0.00061
2955.0 0.000612
2960.0 0.000614
2965.0 0.000616
2970.0 0.000618
2975.0 0.00062
2980.0 0.000622
2985.0 0.000624
2990.0 0.000626
2995.0 0.000628
3000.0 0.00063
3005.0 0.000632
3010.0 0.000634
3015.0 0.000636
3020.0 0.000638
3025.0 0.00064
3030.0 0.000642
3035.0 0.000644
3040.0 0.000646
3045.0 0.000648
3050.0 0.00065
3055.0 0.000652
3060.0 0.000654
3065.0 0.000656
3070.0 0.000658
3075.0 0.00066
3080.0 0.000662
3085.0 0.000664
3090.0 0.000666
3095.0 0.000668
3100.0 0.00067
3105.0 0.000672
3110.0 0.000674
3115.0 0.000676
3120.0 0.000678
3125.0 0.00068
3130.0 0.000682
3135.0 0.000684
3140.0 0.000686
3145.0 0.000688
3150.0 0.00069
3155.0 0.000692
3160.0 0.000694
3165.0 0.000696
3170.0 0.000698
3175.0 0.0007
3180.0 0.000702
3185.0 0.000704
3190.0 0.000706
3195.0 0.000708
3200.0 0.00071
3205.0 0.000712
3210.0 0.000714
3215.0 0.000716
3220.0 0.000718
3225.0 0.00072
3230.0 0.000722
3235.0 0.000724
3240.0 0.000726
3245.0 0.000728
3250.0 0.00073
3255.0 0.000732
3260.0 0.000734
3265.0 0.000735
3270.0 0.000737
3275.0 0.000739
3280.0 0.000741
3285.0 0.000743
3290.0 0.000745
3295.0 0.000747
3300.0 0.000749
3305.0 0.000751
3310.0 0.000753
3315.0 0.000755
3320.0 0.000757
3325.0 0.000759
3330.0 0.000761
3335.0 0.000762
3340.0 0.000764
3345.0 0.000766
3350.0 0.000768
3355.0 0.00077
3360.0 0.000772
3365.0 0.000774
3370.0 0.000776
3375.0 0.000778
3380.0 0.00078
3385.0 0.000782
3390.0 0.000784
3395.0 0.000786
3400.0 0.000787
3405.0 0.000789
3410.0 0.000791
3415.0 0.000793
3420.0 0.000795
3425.0 0.000797
3430.0 0.000799
3435.0 0.000801
3440.0 0.000803
3445.0 0.000805
3450.0 0.000806
3455.0 0.000808
3460.0 0.00081
3465.0 0.000812
3470.0 0.000814
3475.0 0.000816
3480.0 0.000818
3485.0 0.00082
3490.0 0.000822
3495.0 0.000823
3500.0 0.000825
3505.0 0.000827
3510.0 0.000829
3515.0 0.000831
3520.0 0.000833
3525.0 0.000835
3530.0 0.000837
3535.0 0.000838
3540.0 0.00084
3545.0 0.000842
3550.0 0.000844
3555.0 0.000846
3560.0 0.000848
3565.0 0.00085
3570.0 0.000851
3575.0 0.000853
3580.0 0.000855
3585.0 0.000857
3590.0 0.000859
3595.0 0.000861
3600.0 0.000862
3605.0 0.000864
3610.0 0.000866
3615.0 0.000868
3620.0 0.00087
3625.0 0.000871
3630.0 0.000873
3635.0 0.000875
3640.0 0.000877
3645.0 0.000879
3650.0 0.000881
3655.0 0.000882
3660.0 0.000884
3665.0 0.000886
3670.0 0.000888
3675.0 0.00089
3680.0 0.000891
3685.0 0.000893
3690.0 0.000895
3695.0 0.000897
3700.0 0.000899
3705.0 0.0009
3710.0 0.000902
3715.0 0.000904
3720.0 0.000906
3725.0 0.000907
3730.0 0.000909
3735.0 0.000911
3740.0 0.000913
3745.0 0.000914
3750.0 0.000916
3755.0 0.000918
3760.0 0.00092
3765.0 0.000921
3770.0 0.000923
3775.0 0.000925
3780.0 0.000927
3785.0 0.000928
3790.0 0.00093
3795.0 0.000932
3800.0 0.000933
3805.0 0.000935
3810.0 0.000937
3815.0 0.000938
3820.0 0.00094
3825.0 0.000942
3830.0 0.000944
3835.0 0.000945
3840.0 0.000947
3845.0 0.000949
3850.0 0.00095
3855.0 0.000952
3860.0 0.000954
3865.0 0.000955
3870.0 0.000957
3875.0 0.000959
3880.0 0.00096
3885.0 0.000962
3890.0 0.000963
3895.0 0.000965
3900.0 0.000967
3905.0 0.000968
3910.0 0.00097
3915.0 0.000972
3920.0 0.000973
3925.0 0.000975
3930.0 0.000976
3935.0 0.000978
3940.0 0.00098
3945.0 0.000981
3950.0 0.000983
3955.0 0.000984
3960.0 0.000986
3965.0 0.000987
3970.0 0.000989
3975.0 0.000991
3980.0 0.000992
3985.0 0.000994
3990.0 0.000995
3995.0 0.000997
4000.0 0.000998
4005.0 0.001
4010.0 0.001
4015.0 0.001
4020.0 0.001
4025.0 0.00101
4030.0 0.00101
4035.0 0.00101
4040.0 0.00101
4045.0 0.00101
4050.0 0.00101
4055.0 0.00101
4060.0 0.00102
4065.0 0.00102
4070.0 0.00102
4075.0 0.00102
4080.0 0.00102
4085.0 0.00102
4090.0 0.00102
4095.0 0.00103
4100.0 0.00103
4105.0 0.00103
4110.0 0.00103
4115.0 0.00103
4120.0 0.00103
4125.0 0.00103
4130.0 0.00104
4135.0 0.00104
4140.0 0.00104
4145.0 0.00104
4150.0 0.00104
4155.0 0.00104
4160.0 0.00104
4165.0 0.00105
4170.0 0.00105
4175.0 0.00105
4180.0 0.00105
4185.0 0.00105
4190.0 0.00105
4195.0 0.00105
4200.0 0.00106
4205.0 0.00106
4210.0 0.00106
4215.0 0.00106
4220.0 0.00106
4225.0 0.00106
4230.0 0.00106
4235.0 0.00106
4240.0 0.00107
4245.0 0.00107
4250.0 0.00107
4255.0 0.00107
4260.0 0.00107
4265.0 0.00107
4270.0 0.00107
4275.0 0.00108
4280.0 0.00108
4285.0 0.00108
4290.0 0.00108
4295.0 0.00108
4300.0 0.00108
4305.0 0.00108
4310.0 0.00108
4315.0 0.00109
4320.0 0.00109
4325.0 0.00109
4330.0 0.00109
4335.0 0.00109
4340.0 0.00109
4345.0 0.00109
4350.0 0.00109
4355.0 0.0011
4360.0 0.0011
4365.0 0.0011
4370.0 0.0011
4375.0 0.0011
4380.0 0.0011
4385.0 0.0011
4390.0 0.0011
4395.0 0.00111
4400.0 0.00111
4405.0 0.00111
4410.0 0.00111
4415.0 0.00111
4420.0 0.00111
4425.0 0.00111
4430.0 0.00111
4435.0 0.00112
4440.0 0.00112
4445.0 0.00112
4450.0 0.00112
4455.0 0.00112
4460.0 0.00112
4465.0 0.00112
4470.0 0.00112
4475.0 0.00112
4480.0 0.00113
4485.0 0.00113
4490.0 0.00113
4495.0 0.00113
4500.0 0.00113
4505.0 0.00113
4510.0 0.00113
4515.0 0.00113
4520.0 0.00113
4525.0 0.00114
4530.0 0.00114
4535.0 0.00114
4540.0 0.00114
4545.0 0.00114
4550.0 0.00114
4555.0 0.00114
4560.0 0.00114
4565.0 0.00114
4570.0 0.00115
4575.0 0.00115
4580.0 0.00115
4585.0 0.00115
4590.0 0.00115
4595.0 0.00115
4600.0 0.00115
4605.0 0.00115
4610.0 0.00115
4615.0 0.00115
4620.0 0.00115
4625.0 0.00116
4630.0 0.00116
4635.0 0.00116
4640.0 0.00116
4645.0 0.00116
4650.0 0.00116
4655.0 0.00116
4660.0 0.00116
4665.0 0.00116
4670.0 0.00116
4675.0 0.00116
4680.0 0.00116
4685.0 0.00117
4690.0 0.00117
4695.0 0.00117
4700.0 0.00117
4705.0 0.00117
4710.0 0.00117
4715.0 0.00117
4720.0 0.00117
4725.0 0.00117
4730.0 0.00117
4735.0 0.00117
4740.0 0.00117
4745.0 0.00117
4750.0 0.00117
4755.0 0.00117
4760.0 0.00118
4765.0 0.00118
4770.0 0.00118
4775.0 0.00118
4780.0 0.00118
4785.0 0.00118
4790.0 0.00118
4795.0 0.00118
4800.0 0.00118
4805.0 0.00118
4810.0 0.00118
4815.0 0.00118
4820.0 0.00118
4825.0 0.00118
4830.0 0.00119
4835.0 0.00119
4840.0 0.00119
4845.0 0.00119
4850.0 0.00119
4855.0 0.00119
4860.0 0.00119
4865.0 0.00119
4870.0 0.00119
4875.0 0.00119
4880.0 0.00119
4885.0 0.00119
4890.0 0.00119
4895.0 0.0012
4900.0 0.0012
4905.0 0.0012
4910.0 0.0012
4915.0 0.0012
4920.0 0.0012
4925.0 0.0012
4930.0 0.0012
4935.0 0.0012
4940.0 0.0012
4945.0 0.00121
4950.0 0.00121
4955.0 0.00121
4960.0 0.00121
4965.0 0.00121
4970.0 0.00121
4975.0 0.00121
4980.0 0.00121
4985.0 0.00121
4990.0 0.00122
4995.0 0.00122
5000.0 0.00122
5005.0 0.00122
5010.0 0.00122
5015.0 0.00122
5020.0 0.00122
5025.0 0.00123
5030.0 0.00123
5035.0 0.00123
5040.0 0.00123
5045.0 0.00123
5050.0 0.00124
5055.0 0.00124
5060.0 0.00124
5065.0 0.00124
5070.0 0.00124
5075.0 0.00124
5080.0 0.00125
5085.0 0.00125
5090.0 0.00125
5095.0 0.00125
5100.0 0.00126
5105.0 0.00126
5110.0 0.00126
5115.0 0.00126
5120.0 0.00127
5125.0 0.00127
5130.0 0.00127
5135.0 0.00127
5140.0 0.00128
5145.0 0.00128
5150.0 0.00128
5155.0 0.00128
5160.0 0.00129
5165.0 0.00129
5170.0 0.00129
5175.0 0.0013
5180.0 0.0013
5185.0 0.0013
5190.0 0.00131
5195.0 0.00131
5200.0 0.00131
5205.0 0.00132
5210.0 0.00132
5215.0 0.00133
5220.0 0.00133
5225.0 0.00133
5230.0 0.00134
5235.0 0.00134
5240.0 0.00135
5245.0 0.00135
5250.0 0.00135
5255.0 0.00136
5260.0 0.00136
5265.0 0.00137
5270.0 0.00137
5275.0 0.00138
5280.0 0.00138
5285.0 0.00139
5290.0 0.00139
5295.0 0.0014
5300.0 0.0014
5305.0 0.00141
5310.0 0.00141
5315.0 0.00142
5320.0 0.00142
5325.0 0.00143
5330.0 0.00144
5335.0 0.00144
5340.0 0.00145
5345.0 0.00145
5350.0 0.00146
5355.0 0.00147
5360.0 0.00147
5365.0 0.00148
5370.0 0.00149
5375.0 0.00149
5380.0 0.0015
5385.0 0.00151
5390.0 0.00151
5395.0 0.00152
5400.0 0.00153
5405.0 0.00154
5410.0 0.00154
5415.0 0.00155
5420.0 0.00156
5425.0 0.00157
5430.0 0.00158
5435.0 0.00158
5440.0 0.00159
5445.0 0.0016
5450.0 0.00161
5455.0 0.00162
5460.0 0.00163
5465.0 0.00164
5470.0 0.00165
5475.0 0.00165
5480.0 0.00166
5485.0 0.00167
5490.0 0.00168
5495.0 0.00169
5500.0 0.0017
5505.0 0.00171
5510.0 0.00172
5515.0 0.00173
5520.0 0.00175
5525.0 0.00176
5530.0 0.00177
5535.0 0.00178
5540.0 0.00179
5545.0 0.0018
5550.0 0.00181
5555.0 0.00182
5560.0 0.00184
5565.0 0.00185
5570.0 0.00186
5575.0 0.00187
5580.0 0.00189
5585.0 0.0019
5590.0 0.00191
5595.0 0.00192
5600.0 0.00194
5605.0 0.00195
5610.0 0.00196
5615.0 0.00198
5620.0 0.00199
5625.0 0.00201
5630.0 0.00202
5635.0 0.00203
5640.0 0.00205
5645.0 0.00206
5650.0 0.00208
5655.0 0.00209
5660.0 0.00211
5665.0 0.00212
5670.0 0.00214
5675.0 0.00216
5680.0 0.00217
5685.0 0.00219
5690.0 0.0022
5695.0 0.00222
5700.0 0.00224
5705.0 0.00225
5710.0 0.00227
5715.0 0.00229
5720.0 0.0023
5725.0 0.00232
5730.0 0.00234
5735.0 0.00236
5740.0 0.00237
5745.0 0.00239
5750.0 0.00241
5755.0 0.00243
5760.0 0.00245
5765.0 0.00246
5770.0 0.00248
5775.0 0.0025
5780.0 0.00252
5785.0 0.00254
5790.0 0.00256
5795.0 0.00258
5800.0 0.0026
5805.0 0.00262
5810.0 0.00264
5815.0 0.00266
5820.0 0.00268
5825.0 0.0027
5830.0 0.00272
5835.0 0.00274
5840.0 0.00276
5845.0 0.00278
5850.0 0.0028
5855.0 0.00282
5860.0 0.00284
5865.0 0.00286
5870.0 0.00288
5875.0 0.0029
5880.0 0.00292
5885.0 0.00295
5890.0 0.00297
5895.0 0.00299
5900.0 0.00301
5905.0 0.00303
5910.0 0.00305
5915.0 0.00308
5920.0 0.0031
5925.0 0.00312
5930.0 0.00314
5935.0 0.00316
5940.0 0.00318
5945.0 0.00321
5950.0 0.00323
5955.0 0.00325
5960.0 0.00327
5965.0 0.00329
5970.0 0.00332
5975.0 0.00334
5980.0 0.00336
5985.0 0.00338
5990.0 0.0034
5995.0 0.00343
6000.0 0.00345
6005.0 0.00347
6010.0 0.00349
6015.0 0.00351
6020.0 0.00353
6025.0 0.00356
6030.0 0.00358
6035.0 0.0036
6040.0 0.00362
6045.0 0.00364
6050.0 0.00366
6055.0 0.00368
6060.0 0.0037
6065.0 0.00372
6070.0 0.00374
6075.0 0.00376
6080.0 0.00379
6085.0 0.00381
6090.0 0.00383
6095.0 0.00384
6100.0 0.00386
6105.0 0.00388
6110.0 0.0039
6115.0 0.00392
6120.0 0.00394
6125.0 0.00396
6130.0 0.00398
6135.0 0.004
6140.0 0.00401
6145.0 0.00403
6150.0 0.00405
6155.0 0.00407
6160.0 0.00408
6165.0 0.0041
6170.0 0.00412
6175.0 0.00413
6180.0 0.00415
6185.0 0.00416
6190.0 0.00418
6195.0 0.00419
6200.0 0.00421
6205.0 0.00422
6210.0 0.00424
6215.0 0.00425
6220.0 0.00426
6225.0 0.00428
6230.0 0.00429
6235.0 0.0043
6240.0 0.00431
6245.0 0.00433
6250.0 0.00434
6255.0 0.00435
6260.0 0.00436
6265.0 0.00437
6270.0 0.00438
6275.0 0.00439
6280.0 0.0044
6285.0 0.00441
6290.0 0.00442
6295.0 0.00442
6300.0 0.00443
6305.0 0.00444
6310.0 0.00445
6315.0 0.00445
6320.0 0.00446
6325.0 0.00447
6330.0 0.00447
6335.0 0.00448
6340.0 0.00448
6345.0 0.00449
6350.0 0.00449
6355.0 0.00449
6360.0 0.0045
6365.0 0.0045
6370.0 0.0045
6375.0 0.00451
6380.0 0.00451
6385.0 0.00451
6390.0 0.00451
6395.0 0.00451
6400.0 0.00451
6405.0 0.00451
6410.0 0.00451
6415.0 0.00451
6420.0 0.00451
6425.0 0.00451
6430.0 0.00451
6435.0 0.00451
6440.0 0.0045
6445.0 0.0045
6450.0 0.0045
6455.0 0.0045
6460.0 0.00449
6465.0 0.00449
6470.0 0.00448
6475.0 0.00448
6480.0 0.00447
6485.0 0.00447
6490.0 0.00446
6495.0 0.00446
6500.0 0.00445
6505.0 0.00445
6510.0 0.00444
6515.0 0.00443
6520.0 0.00442
6525.0 0.00442
6530.0 0.00441
6535.0 0.0044
6540.0 0.00439
6545.0 0.00438
6550.0 0.00437
6555.0 0.00436
6560.0 0.00435
6565.0 0.00434
6570.0 0.00433
6575.0 0.00432
6580.0 0.00431
6585.0 0.0043
6590.0 0.00429
6595.0 0.00428
6600.0 0.00427
6605.0 0.00425
6610.0 0.00424
6615.0 0.00423
6620.0 0.00422
6625.0 0.0042
6630.0 0.00419
6635.0 0.00418
6640.0 0.00416
6645.0 0.00415
6650.0 0.00413
6655.0 0.00412
6660.0 0.00411
6665.0 0.00409
6670.0 0.00408
6675.0 0.00406
6680.0 0.00405
6685.0 0.00403
6690.0 0.00401
6695.0 0.004
6700.0 0.00398
6705.0 0.00397
6710.0 0.00395
6715.0 0.00393
6720.0 0.00392
6725.0 0.0039
6730.0 0.00388
6735.0 0.00387
6740.0 0.00385
6745.0 0.00383
6750.0 0.00382
6755.0 0.0038
6760.0 0.00378
6765.0 0.00376
6770.0 0.00375
6775.0 0.00373
6780.0 0.00371
6785.0 0.00369
6790.0 0.00367
6795.0 0.00366
6800.0 0.00364
6805.0 0.00362
6810.0 0.0036
6815.0 0.00358
6820.0 0.00356
6825.0 0.00354
6830.0 0.00353
6835.0 0.00351
6840.0 0.00349
6845.0 0.00347
6850.0 0.00345
6855.0 0.00343
6860.0 0.00341
6865.0 0.00339
6870.0 0.00337
6875.0 0.00335
6880.0 0.00334
6885.0 0.00332
6890.0 0.0033
6895.0 0.00328
6900.0 0.00326
6905.0 0.00324
6910.0 0.00322
6915.0 0.0032
6920.0 0.00318
6925.0 0.00316
6930.0 0.00314
6935.0 0.00312
6940.0 0.0031
6945.0 0.00309
6950.0 0.00307
6955.0 0.00305
6960.0 0.00303
6965.0 0.00301
6970.0 0.00299
6975.0 0.00297
6980.0 0.00295
6985.0 0.00293
6990.0 0.00291
6995.0 0.00289
7000.0 0.00288
7005.0 0.00286
7010.0 0.00284
7015.0 0.00282
7020.0 0.0028
7025.0 0.00278
7030.0 0.00276
7035.0 0.00275
7040.0 0.00273
7045.0 0.00271
7050.0 0.00269
7055.0 0.00267
7060.0 0.00265
7065.0 0.00264
7070.0 0.00262
7075.0 0.0026
7080.0 0.00258
7085.0 0.00256
7090.0 0.00254
7095.0 0.00253
7100.0 0.00251
7105.0 0.00249
7110.0 0.00247
7115.0 0.00246
7120.0 0.00244
7125.0 0.00242
7130.0 0.0024
7135.0 0.00239
7140.0 0.00237
7145.0 0.00235
7150.0 0.00234
7155.0 0.00232
7160.0 0.0023
7165.0 0.00229
7170.0 0.00227
7175.0 0.00225
7180.0 0.00224
7185.0 0.00222
7190.0 0.0022
7195.0 0.00219
7200.0 0.00217
7205.0 0.00216
7210.0 0.00214
7215.0 0.00212
7220.0 0.00211
7225.0 0.00209
7230.0 0.00208
7235.0 0.00206
7240.0 0.00205
7245.0 0.00203
7250.0 0.00202
7255.0 0.002
7260.0 0.00199
7265.0 0.00197
7270.0 0.00196
7275.0 0.00194
7280.0 0.00193
7285.0 0.00191
7290.0 0.0019
7295.0 0.00188
7300.0 0.00187
7305.0 0.00186
7310.0 0.00184
7315.0 0.00183
7320.0 0.00181
7325.0 0.0018
7330.0 0.00179
7335.0 0.00177
7340.0 0.00176
7345.0 0.00175
7350.0 0.00173
7355.0 0.00172
7360.0 0.00171
7365.0 0.00169
7370.0 0.00168
7375.0 0.00167
7380.0 0.00166
7385.0 0.00164
7390.0 0.00163
7395.0 0.00162
7400.0 0.00161
7405.0 0.00159
7410.0 0.00158
7415.0 0.00157
7420.0 0.00156
7425.0 0.00155
7430.0 0.00153
7435.0 0.00152
7440.0 0.00151
7445.0 0.0015
7450.0 0.00149
7455.0 0.00148
7460.0 0.00146
7465.0 0.00145
7470.0 0.00144
7475.0 0.00143
7480.0 0.00142
7485.0 0.00141
7490.0 0.0014
7495.0 0.00139
7500.0 0.00138
7505.0 0.00137
7510.0 0.00136
7515.0 0.00135
7520.0 0.00134
7525.0 0.00133
7530.0 0.00132
7535.0 0.00131
7540.0 0.0013
7545.0 0.00129
7550.0 0.00128
7555.0 0.00127
7560.0 0.00126
7565.0 0.00125
7570.0 0.00124
7575.0 0.00123
7580.0 0.00122
7585.0 0.00121
7590.0 0.0012
7595.0 0.00119
7600.0 0.00118
7605.0 0.00117
7610.0 0.00116
7615.0 0.00116
7620.0 0.00115
7625.0 0.00114
7630.0 0.00113
7635.0 0.00112
7640.0 0.00111
7645.0 0.0011
7650.0 0.0011
7655.0 0.00109
7660.0 0.00108
7665.0 0.00107
7670.0 0.00106
7675.0 0.00105
7680.0 0.00105
7685.0 0.00104
7690.0 0.00103
7695.0 0.00102
7700.0 0.00102
7705.0 0.00101
7710.0 0.001
7715.0 0.000993
7720.0 0.000986
7725.0 0.000979
7730.0 0.000971
7735.0 0.000964
7740.0 0.000957
7745.0 0.00095
7750.0 0.000943
7755.0 0.000936
7760.0 0.000929
7765.0 0.000922
7770.0 0.000915
7775.0 0.000909
7780.0 0.000902
7785.0 0.000895
7790.0 0.000889
7795.0 0.000882
7800.0 0.000876
7805.0 0.00087
7810.0 0.000863
7815.0 0.000857
7820.0 0.000851
7825.0 0.000845
7830.0 0.000838
7835.0 0.000832
7840.0 0.000826
7845.0 0.00082
7850.0 0.000815
7855.0 0.000809
7860.0 0.000803
7865.0 0.000797
7870.0 0.000791
7875.0 0.000786
7880.0 0.00078
7885.0 0.000775
7890.0 0.000769
7895.0 0.000764
7900.0 0.000758
7905.0 0.000753
7910.0 0.000748
7915.0 0.000742
7920.0 0.000737
7925.0 0.000732
7930.0 0.000727
7935.0 0.000722
7940.0 0.000717
7945.0 0.000712
7950.0 0.000707
7955.0 0.000702
7960.0 0.000697
7965.0 0.000692
7970.0 0.000688
7975.0 0.000683
7980.0 0.000678
7985.0 0.000674
7990.0 0.000669
7995.0 0.000664
8000.0 0.00066
8005.0 0.000655
8010.0 0.000651
8015.0 0.000646
8020.0 0.000642
8025.0 0.000638
8030.0 0.000633
8035.0 0.000629
8040.0 0.000625
8045.0 0.000621
8050.0 0.000617
8055.0 0.000612
8060.0 0.000608
8065.0 0.000604
8070.0 0.0006
8075.0 0.000596
8080.0 0.000592
8085.0 0.000588
8090.0 0.000585
8095.0 0.000581
8100.0 0.000577
8105.0 0.000573
8110.0 0.000569
8115.0 0.000566
8120.0 0.000562
8125.0 0.000558
