#lamb flux
1605.0 8.4e-05
1610.0 8.4e-05
1615.0 8.39e-05
1620.0 8.38e-05
1625.0 8.37e-05
1630.0 8.36e-05
1635.0 8.35e-05
1640.0 8.34e-05
1645.0 8.33e-05
1650.0 8.33e-05
1655.0 8.32e-05
1660.0 8.31e-05
1665.0 8.3e-05
1670.0 8.29e-05
1675.0 8.28e-05
1680.0 8.27e-05
1685.0 8.27e-05
1690.0 8.26e-05
1695.0 8.25e-05
1700.0 8.24e-05
1705.0 8.23e-05
1710.0 8.22e-05
1715.0 8.22e-05
1720.0 8.21e-05
1725.0 8.2e-05
1730.0 8.19e-05
1735.0 8.18e-05
1740.0 8.17e-05
1745.0 8.17e-05
1750.0 8.16e-05
1755.0 8.15e-05
1760.0 8.14e-05
1765.0 8.13e-05
1770.0 8.13e-05
1775.0 8.12e-05
1780.0 8.11e-05
1785.0 8.1e-05
1790.0 8.09e-05
1795.0 8.09e-05
1800.0 8.08e-05
1805.0 8.07e-05
1810.0 8.06e-05
1815.0 8.05e-05
1820.0 8.05e-05
1825.0 8.04e-05
1830.0 8.03e-05
1835.0 8.02e-05
1840.0 8.01e-05
1845.0 8.01e-05
1850.0 8e-05
1855.0 7.99e-05
1860.0 7.98e-05
1865.0 7.98e-05
1870.0 7.97e-05
1875.0 7.96e-05
1880.0 7.95e-05
1885.0 7.95e-05
1890.0 7.94e-05
1895.0 7.93e-05
1900.0 7.92e-05
1905.0 7.92e-05
1910.0 7.91e-05
1915.0 7.9e-05
1920.0 7.89e-05
1925.0 7.89e-05
1930.0 7.88e-05
1935.0 7.87e-05
1940.0 7.86e-05
1945.0 7.86e-05
1950.0 7.85e-05
1955.0 7.84e-05
1960.0 7.83e-05
1965.0 7.83e-05
1970.0 7.82e-05
1975.0 7.81e-05
1980.0 7.81e-05
1985.0 7.8e-05
1990.0 7.79e-05
1995.0 7.79e-05
2000.0 7.78e-05
2005.0 7.77e-05
2010.0 7.76e-05
2015.0 7.76e-05
2020.0 7.75e-05
2025.0 7.74e-05
2030.0 7.74e-05
2035.0 7.73e-05
2040.0 7.72e-05
2045.0 7.72e-05
2050.0 7.71e-05
2055.0 7.7e-05
2060.0 7.7e-05
2065.0 7.69e-05
2070.0 7.68e-05
2075.0 7.68e-05
2080.0 7.67e-05
2085.0 7.66e-05
2090.0 7.66e-05
2095.0 7.65e-05
2100.0 7.64e-05
2105.0 7.64e-05
2110.0 7.63e-05
2115.0 7.62e-05
2120.0 7.62e-05
2125.0 7.61e-05
2130.0 7.61e-05
2135.0 7.6e-05
2140.0 7.59e-05
2145.0 7.59e-05
2150.0 7.58e-05
2155.0 7.57e-05
2160.0 7.57e-05
2165.0 7.56e-05
2170.0 7.56e-05
2175.0 7.55e-05
2180.0 7.54e-05
2185.0 7.54e-05
2190.0 7.53e-05
2195.0 7.53e-05
2200.0 7.52e-05
2205.0 7.52e-05
2210.0 7.51e-05
2215.0 7.5e-05
2220.0 7.5e-05
2225.0 7.49e-05
2230.0 7.49e-05
2235.0 7.48e-05
2240.0 7.47e-05
2245.0 7.47e-05
2250.0 7.46e-05
2255.0 7.46e-05
2260.0 7.45e-05
2265.0 7.45e-05
2270.0 7.44e-05
2275.0 7.44e-05
2280.0 7.43e-05
2285.0 7.42e-05
2290.0 7.42e-05
2295.0 7.41e-05
2300.0 7.41e-05
2305.0 7.4e-05
2310.0 7.4e-05
2315.0 7.39e-05
2320.0 7.39e-05
2325.0 7.38e-05
2330.0 7.38e-05
2335.0 7.37e-05
2340.0 7.37e-05
2345.0 7.36e-05
2350.0 7.36e-05
2355.0 7.35e-05
2360.0 7.35e-05
2365.0 7.34e-05
2370.0 7.34e-05
2375.0 7.33e-05
2380.0 7.33e-05
2385.0 7.33e-05
2390.0 7.32e-05
2395.0 7.32e-05
2400.0 7.31e-05
2405.0 7.31e-05
2410.0 7.3e-05
2415.0 7.3e-05
2420.0 7.29e-05
2425.0 7.29e-05
2430.0 7.28e-05
2435.0 7.28e-05
2440.0 7.28e-05
2445.0 7.27e-05
2450.0 7.27e-05
2455.0 7.26e-05
2460.0 7.26e-05
2465.0 7.26e-05
2470.0 7.25e-05
2475.0 7.25e-05
2480.0 7.24e-05
2485.0 7.24e-05
2490.0 7.24e-05
2495.0 7.23e-05
2500.0 7.23e-05
2505.0 7.22e-05
2510.0 7.22e-05
2515.0 7.22e-05
2520.0 7.21e-05
2525.0 7.21e-05
2530.0 7.21e-05
2535.0 7.2e-05
2540.0 7.2e-05
2545.0 7.2e-05
2550.0 7.2e-05
2555.0 7.19e-05
2560.0 7.19e-05
2565.0 7.19e-05
2570.0 7.18e-05
2575.0 7.18e-05
2580.0 7.18e-05
2585.0 7.17e-05
2590.0 7.17e-05
2595.0 7.17e-05
2600.0 7.17e-05
2605.0 7.16e-05
2610.0 7.16e-05
2615.0 7.16e-05
2620.0 7.16e-05
2625.0 7.16e-05
2630.0 7.15e-05
2635.0 7.15e-05
2640.0 7.15e-05
2645.0 7.15e-05
2650.0 7.15e-05
2655.0 7.14e-05
2660.0 7.14e-05
2665.0 7.14e-05
2670.0 7.14e-05
2675.0 7.14e-05
2680.0 7.14e-05
2685.0 7.14e-05
2690.0 7.14e-05
2695.0 7.13e-05
2700.0 7.13e-05
2705.0 7.13e-05
2710.0 7.13e-05
2715.0 7.13e-05
2720.0 7.13e-05
2725.0 7.13e-05
2730.0 7.13e-05
2735.0 7.13e-05
2740.0 7.13e-05
2745.0 7.13e-05
2750.0 7.13e-05
2755.0 7.13e-05
2760.0 7.13e-05
2765.0 7.13e-05
2770.0 7.13e-05
2775.0 7.13e-05
2780.0 7.13e-05
2785.0 7.14e-05
2790.0 7.14e-05
2795.0 7.14e-05
2800.0 7.14e-05
2805.0 7.14e-05
2810.0 7.15e-05
2815.0 7.15e-05
2820.0 7.15e-05
2825.0 7.15e-05
2830.0 7.16e-05
2835.0 7.16e-05
2840.0 7.16e-05
2845.0 7.17e-05
2850.0 7.17e-05
2855.0 7.17e-05
2860.0 7.18e-05
2865.0 7.18e-05
2870.0 7.19e-05
2875.0 7.19e-05
2880.0 7.2e-05
2885.0 7.2e-05
2890.0 7.21e-05
2895.0 7.21e-05
2900.0 7.22e-05
2905.0 7.22e-05
2910.0 7.23e-05
2915.0 7.24e-05
2920.0 7.24e-05
2925.0 7.25e-05
2930.0 7.26e-05
2935.0 7.27e-05
2940.0 7.27e-05
2945.0 7.28e-05
2950.0 7.29e-05
2955.0 7.3e-05
2960.0 7.31e-05
2965.0 7.32e-05
2970.0 7.33e-05
2975.0 7.34e-05
2980.0 7.35e-05
2985.0 7.36e-05
2990.0 7.38e-05
2995.0 7.39e-05
3000.0 7.4e-05
3005.0 7.42e-05
3010.0 7.43e-05
3015.0 7.44e-05
3020.0 7.46e-05
3025.0 7.48e-05
3030.0 7.49e-05
3035.0 7.51e-05
3040.0 7.53e-05
3045.0 7.54e-05
3050.0 7.56e-05
3055.0 7.58e-05
3060.0 7.6e-05
3065.0 7.62e-05
3070.0 7.64e-05
3075.0 7.67e-05
3080.0 7.69e-05
3085.0 7.71e-05
3090.0 7.74e-05
3095.0 7.76e-05
3100.0 7.79e-05
3105.0 7.82e-05
3110.0 7.84e-05
3115.0 7.87e-05
3120.0 7.9e-05
3125.0 7.93e-05
3130.0 7.96e-05
3135.0 8e-05
3140.0 8.03e-05
3145.0 8.07e-05
3150.0 8.1e-05
3155.0 8.14e-05
3160.0 8.18e-05
3165.0 8.22e-05
3170.0 8.26e-05
3175.0 8.3e-05
3180.0 8.35e-05
3185.0 8.39e-05
3190.0 8.44e-05
3195.0 8.49e-05
3200.0 8.54e-05
3205.0 8.59e-05
3210.0 8.64e-05
3215.0 8.7e-05
3220.0 8.76e-05
3225.0 8.82e-05
3230.0 8.88e-05
3235.0 8.94e-05
3240.0 9.01e-05
3245.0 9.08e-05
3250.0 9.14e-05
3255.0 9.22e-05
3260.0 9.29e-05
3265.0 9.37e-05
3270.0 9.45e-05
3275.0 9.53e-05
3280.0 9.62e-05
3285.0 9.71e-05
3290.0 9.8e-05
3295.0 9.89e-05
3300.0 9.99e-05
3305.0 0.000101
3310.0 0.000102
3315.0 0.000103
3320.0 0.000104
3325.0 0.000105
3330.0 0.000107
3335.0 0.000108
3340.0 0.000109
3345.0 0.00011
3350.0 0.000112
3355.0 0.000113
3360.0 0.000115
3365.0 0.000116
3370.0 0.000118
3375.0 0.00012
3380.0 0.000121
3385.0 0.000123
3390.0 0.000125
3395.0 0.000127
3400.0 0.000129
3405.0 0.000131
3410.0 0.000133
3415.0 0.000135
3420.0 0.000138
3425.0 0.00014
3430.0 0.000142
3435.0 0.000145
3440.0 0.000148
3445.0 0.000151
3450.0 0.000153
3455.0 0.000156
3460.0 0.00016
3465.0 0.000163
3470.0 0.000166
3475.0 0.00017
3480.0 0.000173
3485.0 0.000177
3490.0 0.000181
3495.0 0.000185
3500.0 0.00019
3505.0 0.000194
3510.0 0.000199
3515.0 0.000203
3520.0 0.000209
3525.0 0.000214
3530.0 0.000219
3535.0 0.000225
3540.0 0.000231
3545.0 0.000237
3550.0 0.000243
3555.0 0.00025
3560.0 0.000257
3565.0 0.000264
3570.0 0.000272
3575.0 0.000279
3580.0 0.000288
3585.0 0.000296
3590.0 0.000305
3595.0 0.000314
3600.0 0.000324
3605.0 0.000334
3610.0 0.000344
3615.0 0.000355
3620.0 0.000366
3625.0 0.000378
3630.0 0.00039
3635.0 0.000403
3640.0 0.000416
3645.0 0.000429
3650.0 0.000444
3655.0 0.000458
3660.0 0.000474
3665.0 0.00049
3670.0 0.000507
3675.0 0.000524
3680.0 0.000542
3685.0 0.000561
3690.0 0.00058
3695.0 0.000601
3700.0 0.000622
3705.0 0.000644
3710.0 0.000666
3715.0 0.00069
3720.0 0.000715
3725.0 0.00074
3730.0 0.000767
3735.0 0.000794
3740.0 0.000823
3745.0 0.000852
3750.0 0.000883
3755.0 0.000915
3760.0 0.000948
3765.0 0.000982
3770.0 0.00102
3775.0 0.00105
3780.0 0.00109
3785.0 0.00113
3790.0 0.00117
3795.0 0.00122
3800.0 0.00126
3805.0 0.0013
3810.0 0.00135
3815.0 0.0014
3820.0 0.00145
3825.0 0.0015
3830.0 0.00155
3835.0 0.00161
3840.0 0.00167
3845.0 0.00173
3850.0 0.00179
3855.0 0.00185
3860.0 0.00191
3865.0 0.00198
3870.0 0.00205
3875.0 0.00212
3880.0 0.00219
3885.0 0.00226
3890.0 0.00234
3895.0 0.00242
3900.0 0.0025
3905.0 0.00258
3910.0 0.00267
3915.0 0.00275
3920.0 0.00284
3925.0 0.00293
3930.0 0.00303
3935.0 0.00312
3940.0 0.00322
3945.0 0.00332
3950.0 0.00342
3955.0 0.00353
3960.0 0.00363
3965.0 0.00374
3970.0 0.00385
3975.0 0.00397
3980.0 0.00408
3985.0 0.0042
3990.0 0.00432
3995.0 0.00444
4000.0 0.00456
4005.0 0.00469
4010.0 0.00482
4015.0 0.00495
4020.0 0.00508
4025.0 0.00521
4030.0 0.00535
4035.0 0.00548
4040.0 0.00562
4045.0 0.00576
4050.0 0.00591
4055.0 0.00605
4060.0 0.00619
4065.0 0.00634
4070.0 0.00649
4075.0 0.00664
4080.0 0.00679
4085.0 0.00694
4090.0 0.00709
4095.0 0.00724
4100.0 0.0074
4105.0 0.00755
4110.0 0.00771
4115.0 0.00787
4120.0 0.00802
4125.0 0.00818
4130.0 0.00834
4135.0 0.0085
4140.0 0.00865
4145.0 0.00881
4150.0 0.00897
4155.0 0.00913
4160.0 0.00929
4165.0 0.00944
4170.0 0.0096
4175.0 0.00976
4180.0 0.00991
4185.0 0.0101
4190.0 0.0102
4195.0 0.0104
4200.0 0.0105
4205.0 0.0107
4210.0 0.0108
4215.0 0.011
4220.0 0.0111
4225.0 0.0113
4230.0 0.0114
4235.0 0.0115
4240.0 0.0117
4245.0 0.0118
4250.0 0.0119
4255.0 0.0121
4260.0 0.0122
4265.0 0.0123
4270.0 0.0124
4275.0 0.0126
4280.0 0.0127
4285.0 0.0128
4290.0 0.0129
4295.0 0.013
4300.0 0.0131
4305.0 0.0132
4310.0 0.0133
4315.0 0.0134
4320.0 0.0135
4325.0 0.0136
4330.0 0.0137
4335.0 0.0137
4340.0 0.0138
4345.0 0.0139
4350.0 0.014
4355.0 0.014
4360.0 0.0141
4365.0 0.0142
4370.0 0.0142
4375.0 0.0143
4380.0 0.0143
4385.0 0.0144
4390.0 0.0144
4395.0 0.0145
4400.0 0.0145
4405.0 0.0146
4410.0 0.0146
4415.0 0.0147
4420.0 0.0147
4425.0 0.0147
4430.0 0.0148
4435.0 0.0148
4440.0 0.0148
4445.0 0.0149
4450.0 0.0149
4455.0 0.0149
4460.0 0.015
4465.0 0.015
4470.0 0.015
4475.0 0.015
4480.0 0.015
4485.0 0.0151
4490.0 0.0151
4495.0 0.0151
4500.0 0.0151
4505.0 0.0151
4510.0 0.0151
4515.0 0.0152
4520.0 0.0152
4525.0 0.0152
4530.0 0.0152
4535.0 0.0152
4540.0 0.0152
4545.0 0.0152
4550.0 0.0152
4555.0 0.0152
4560.0 0.0152
4565.0 0.0151
4570.0 0.0151
4575.0 0.0151
4580.0 0.0151
4585.0 0.0151
4590.0 0.0151
4595.0 0.015
4600.0 0.015
4605.0 0.015
4610.0 0.0149
4615.0 0.0149
4620.0 0.0149
4625.0 0.0148
4630.0 0.0148
4635.0 0.0147
4640.0 0.0147
4645.0 0.0146
4650.0 0.0146
4655.0 0.0145
4660.0 0.0145
4665.0 0.0144
4670.0 0.0143
4675.0 0.0143
4680.0 0.0142
4685.0 0.0141
4690.0 0.0141
4695.0 0.014
4700.0 0.0139
4705.0 0.0138
4710.0 0.0138
4715.0 0.0137
4720.0 0.0136
4725.0 0.0135
4730.0 0.0134
4735.0 0.0134
4740.0 0.0133
4745.0 0.0132
4750.0 0.0131
4755.0 0.013
4760.0 0.013
4765.0 0.0129
4770.0 0.0128
4775.0 0.0127
4780.0 0.0126
4785.0 0.0126
4790.0 0.0125
4795.0 0.0124
4800.0 0.0123
4805.0 0.0122
4810.0 0.0122
4815.0 0.0121
4820.0 0.012
4825.0 0.012
4830.0 0.0119
4835.0 0.0118
4840.0 0.0118
4845.0 0.0117
4850.0 0.0116
4855.0 0.0116
4860.0 0.0115
4865.0 0.0115
4870.0 0.0114
4875.0 0.0114
4880.0 0.0113
4885.0 0.0113
4890.0 0.0112
4895.0 0.0112
4900.0 0.0111
4905.0 0.0111
4910.0 0.011
4915.0 0.011
4920.0 0.011
4925.0 0.0109
4930.0 0.0109
4935.0 0.0109
4940.0 0.0108
4945.0 0.0108
4950.0 0.0108
4955.0 0.0107
4960.0 0.0107
4965.0 0.0107
4970.0 0.0107
4975.0 0.0106
4980.0 0.0106
4985.0 0.0106
4990.0 0.0106
4995.0 0.0106
5000.0 0.0105
5005.0 0.0105
5010.0 0.0105
5015.0 0.0105
5020.0 0.0105
5025.0 0.0105
5030.0 0.0104
5035.0 0.0104
5040.0 0.0104
5045.0 0.0104
5050.0 0.0104
5055.0 0.0104
5060.0 0.0104
5065.0 0.0103
5070.0 0.0103
5075.0 0.0103
5080.0 0.0103
5085.0 0.0103
5090.0 0.0103
5095.0 0.0103
5100.0 0.0103
5105.0 0.0103
5110.0 0.0103
5115.0 0.0102
5120.0 0.0102
5125.0 0.0102
5130.0 0.0102
5135.0 0.0102
5140.0 0.0102
5145.0 0.0102
5150.0 0.0102
5155.0 0.0102
5160.0 0.0102
5165.0 0.0102
5170.0 0.0102
5175.0 0.0102
5180.0 0.0102
5185.0 0.0102
5190.0 0.0102
5195.0 0.0102
5200.0 0.0101
5205.0 0.0101
5210.0 0.0101
5215.0 0.0101
5220.0 0.0101
5225.0 0.0101
5230.0 0.0101
5235.0 0.0101
5240.0 0.0101
5245.0 0.0101
5250.0 0.0101
5255.0 0.0101
5260.0 0.0101
5265.0 0.0101
5270.0 0.0101
5275.0 0.0101
5280.0 0.0101
5285.0 0.0101
5290.0 0.0101
5295.0 0.0101
5300.0 0.0101
5305.0 0.0101
5310.0 0.0101
5315.0 0.0101
5320.0 0.0101
5325.0 0.0101
5330.0 0.0101
5335.0 0.0101
5340.0 0.0101
5345.0 0.0101
5350.0 0.01
5355.0 0.01
5360.0 0.01
5365.0 0.01
5370.0 0.00999
5375.0 0.00998
5380.0 0.00996
5385.0 0.00994
5390.0 0.00992
5395.0 0.0099
5400.0 0.00988
5405.0 0.00986
5410.0 0.00983
5415.0 0.0098
5420.0 0.00977
5425.0 0.00974
5430.0 0.00971
5435.0 0.00968
5440.0 0.00965
5445.0 0.00961
5450.0 0.00957
5455.0 0.00954
5460.0 0.0095
5465.0 0.00946
5470.0 0.00942
5475.0 0.00937
5480.0 0.00933
5485.0 0.00928
5490.0 0.00924
5495.0 0.00919
5500.0 0.00914
5505.0 0.00909
5510.0 0.00904
5515.0 0.00899
5520.0 0.00894
5525.0 0.00889
5530.0 0.00883
5535.0 0.00878
5540.0 0.00872
5545.0 0.00867
5550.0 0.00861
5555.0 0.00855
5560.0 0.0085
5565.0 0.00844
5570.0 0.00838
5575.0 0.00832
5580.0 0.00827
5585.0 0.00821
5590.0 0.00815
5595.0 0.00809
5600.0 0.00804
5605.0 0.00798
5610.0 0.00792
5615.0 0.00787
5620.0 0.00781
5625.0 0.00776
5630.0 0.0077
5635.0 0.00765
5640.0 0.0076
5645.0 0.00755
5650.0 0.0075
5655.0 0.00746
5660.0 0.00741
5665.0 0.00737
5670.0 0.00732
5675.0 0.00728
5680.0 0.00724
5685.0 0.00721
5690.0 0.00717
5695.0 0.00714
5700.0 0.00711
5705.0 0.00708
5710.0 0.00705
5715.0 0.00703
5720.0 0.007
5725.0 0.00698
5730.0 0.00697
5735.0 0.00695
5740.0 0.00694
5745.0 0.00693
5750.0 0.00692
5755.0 0.00691
5760.0 0.0069
5765.0 0.0069
5770.0 0.0069
5775.0 0.00691
5780.0 0.00691
5785.0 0.00692
5790.0 0.00693
5795.0 0.00694
5800.0 0.00695
5805.0 0.00697
5810.0 0.00698
5815.0 0.007
5820.0 0.00703
5825.0 0.00705
5830.0 0.00708
5835.0 0.0071
5840.0 0.00713
5845.0 0.00716
5850.0 0.0072
5855.0 0.00723
5860.0 0.00727
5865.0 0.0073
5870.0 0.00734
5875.0 0.00738
5880.0 0.00743
5885.0 0.00747
5890.0 0.00751
5895.0 0.00756
5900.0 0.0076
5905.0 0.00765
5910.0 0.0077
5915.0 0.00775
5920.0 0.0078
5925.0 0.00785
5930.0 0.0079
5935.0 0.00795
5940.0 0.008
5945.0 0.00805
5950.0 0.00811
5955.0 0.00816
5960.0 0.00821
5965.0 0.00827
5970.0 0.00832
5975.0 0.00837
5980.0 0.00842
5985.0 0.00848
5990.0 0.00853
5995.0 0.00858
6000.0 0.00863
6005.0 0.00869
6010.0 0.00874
6015.0 0.00879
6020.0 0.00884
6025.0 0.00889
6030.0 0.00893
6035.0 0.00898
6040.0 0.00903
6045.0 0.00908
6050.0 0.00912
6055.0 0.00917
6060.0 0.00921
6065.0 0.00925
6070.0 0.00929
6075.0 0.00933
6080.0 0.00937
6085.0 0.00941
6090.0 0.00944
6095.0 0.00948
6100.0 0.00951
6105.0 0.00954
6110.0 0.00957
6115.0 0.0096
6120.0 0.00963
6125.0 0.00965
6130.0 0.00968
6135.0 0.0097
6140.0 0.00972
6145.0 0.00974
6150.0 0.00975
6155.0 0.00977
6160.0 0.00978
6165.0 0.0098
6170.0 0.00981
6175.0 0.00982
6180.0 0.00983
6185.0 0.00983
6190.0 0.00984
6195.0 0.00984
6200.0 0.00985
6205.0 0.00985
6210.0 0.00985
6215.0 0.00984
6220.0 0.00984
6225.0 0.00984
6230.0 0.00983
6235.0 0.00982
6240.0 0.00982
6245.0 0.00981
6250.0 0.00979
6255.0 0.00978
6260.0 0.00977
6265.0 0.00975
6270.0 0.00974
6275.0 0.00972
6280.0 0.0097
6285.0 0.00968
6290.0 0.00965
6295.0 0.00963
6300.0 0.00961
6305.0 0.00958
6310.0 0.00955
6315.0 0.00952
6320.0 0.00949
6325.0 0.00946
6330.0 0.00943
6335.0 0.0094
6340.0 0.00936
6345.0 0.00932
6350.0 0.00929
6355.0 0.00925
6360.0 0.00921
6365.0 0.00917
6370.0 0.00913
6375.0 0.00909
6380.0 0.00904
6385.0 0.009
6390.0 0.00895
6395.0 0.00891
6400.0 0.00886
6405.0 0.00881
6410.0 0.00876
6415.0 0.00871
6420.0 0.00866
6425.0 0.00861
6430.0 0.00856
6435.0 0.00851
6440.0 0.00845
6445.0 0.0084
6450.0 0.00835
6455.0 0.00829
6460.0 0.00824
6465.0 0.00818
6470.0 0.00813
6475.0 0.00807
6480.0 0.00801
6485.0 0.00796
6490.0 0.0079
6495.0 0.00784
6500.0 0.00779
6505.0 0.00773
6510.0 0.00767
6515.0 0.00761
6520.0 0.00756
6525.0 0.0075
6530.0 0.00744
6535.0 0.00739
6540.0 0.00733
6545.0 0.00727
6550.0 0.00722
6555.0 0.00716
6560.0 0.0071
6565.0 0.00705
6570.0 0.00699
6575.0 0.00694
6580.0 0.00688
6585.0 0.00683
6590.0 0.00677
6595.0 0.00672
6600.0 0.00667
6605.0 0.00661
6610.0 0.00656
6615.0 0.00651
6620.0 0.00646
6625.0 0.00641
6630.0 0.00636
6635.0 0.00631
6640.0 0.00626
6645.0 0.00622
6650.0 0.00617
6655.0 0.00613
6660.0 0.00608
6665.0 0.00604
6670.0 0.00599
6675.0 0.00595
6680.0 0.00591
6685.0 0.00587
6690.0 0.00583
6695.0 0.00579
6700.0 0.00575
6705.0 0.00572
6710.0 0.00568
6715.0 0.00565
6720.0 0.00561
6725.0 0.00558
6730.0 0.00555
6735.0 0.00552
6740.0 0.00549
6745.0 0.00546
6750.0 0.00543
6755.0 0.00541
6760.0 0.00538
6765.0 0.00536
6770.0 0.00533
6775.0 0.00531
6780.0 0.00529
6785.0 0.00527
6790.0 0.00525
6795.0 0.00523
6800.0 0.00522
6805.0 0.0052
6810.0 0.00519
6815.0 0.00517
6820.0 0.00516
6825.0 0.00515
6830.0 0.00514
6835.0 0.00513
6840.0 0.00512
6845.0 0.00512
6850.0 0.00511
6855.0 0.00511
6860.0 0.0051
6865.0 0.0051
6870.0 0.0051
6875.0 0.0051
6880.0 0.0051
6885.0 0.0051
6890.0 0.00511
6895.0 0.00511
6900.0 0.00512
6905.0 0.00512
6910.0 0.00513
6915.0 0.00514
6920.0 0.00515
6925.0 0.00516
6930.0 0.00517
6935.0 0.00518
6940.0 0.0052
6945.0 0.00521
6950.0 0.00523
6955.0 0.00524
6960.0 0.00526
6965.0 0.00528
6970.0 0.0053
6975.0 0.00532
6980.0 0.00534
6985.0 0.00537
6990.0 0.00539
6995.0 0.00541
7000.0 0.00544
7005.0 0.00547
7010.0 0.00549
7015.0 0.00552
7020.0 0.00555
7025.0 0.00558
7030.0 0.00561
7035.0 0.00564
7040.0 0.00567
7045.0 0.00571
7050.0 0.00574
7055.0 0.00577
7060.0 0.00581
7065.0 0.00584
7070.0 0.00588
7075.0 0.00592
7080.0 0.00595
7085.0 0.00599
7090.0 0.00603
7095.0 0.00607
7100.0 0.00611
7105.0 0.00615
7110.0 0.00619
7115.0 0.00623
7120.0 0.00627
7125.0 0.00631
7130.0 0.00635
7135.0 0.00639
7140.0 0.00643
7145.0 0.00647
7150.0 0.00651
7155.0 0.00656
7160.0 0.0066
7165.0 0.00664
7170.0 0.00668
7175.0 0.00672
7180.0 0.00676
7185.0 0.0068
7190.0 0.00684
7195.0 0.00688
7200.0 0.00692
7205.0 0.00696
7210.0 0.00699
7215.0 0.00703
7220.0 0.00707
7225.0 0.0071
7230.0 0.00714
7235.0 0.00717
7240.0 0.0072
7245.0 0.00723
7250.0 0.00726
7255.0 0.00729
7260.0 0.00732
7265.0 0.00735
7270.0 0.00737
7275.0 0.0074
7280.0 0.00742
7285.0 0.00744
7290.0 0.00746
7295.0 0.00748
7300.0 0.0075
7305.0 0.00752
7310.0 0.00753
7315.0 0.00754
7320.0 0.00756
7325.0 0.00757
7330.0 0.00757
7335.0 0.00758
7340.0 0.00759
7345.0 0.00759
7350.0 0.00759
7355.0 0.00759
7360.0 0.00759
7365.0 0.00759
7370.0 0.00758
7375.0 0.00758
7380.0 0.00757
7385.0 0.00756
7390.0 0.00755
7395.0 0.00754
7400.0 0.00753
7405.0 0.00751
7410.0 0.0075
7415.0 0.00748
7420.0 0.00746
7425.0 0.00744
7430.0 0.00742
7435.0 0.0074
7440.0 0.00738
7445.0 0.00735
7450.0 0.00733
7455.0 0.0073
7460.0 0.00728
7465.0 0.00725
7470.0 0.00722
7475.0 0.00719
7480.0 0.00716
7485.0 0.00713
7490.0 0.0071
7495.0 0.00707
7500.0 0.00704
7505.0 0.00701
7510.0 0.00697
7515.0 0.00694
7520.0 0.00691
7525.0 0.00687
7530.0 0.00684
7535.0 0.0068
7540.0 0.00677
7545.0 0.00673
7550.0 0.0067
7555.0 0.00666
7560.0 0.00663
7565.0 0.00659
7570.0 0.00655
7575.0 0.00652
7580.0 0.00648
7585.0 0.00644
7590.0 0.00641
7595.0 0.00637
7600.0 0.00633
7605.0 0.00629
7610.0 0.00626
7615.0 0.00622
7620.0 0.00618
7625.0 0.00614
7630.0 0.00611
7635.0 0.00607
7640.0 0.00603
7645.0 0.00599
7650.0 0.00595
7655.0 0.00592
7660.0 0.00588
7665.0 0.00584
7670.0 0.0058
7675.0 0.00576
7680.0 0.00572
7685.0 0.00569
7690.0 0.00565
7695.0 0.00561
7700.0 0.00557
7705.0 0.00553
7710.0 0.00549
7715.0 0.00545
7720.0 0.00541
7725.0 0.00537
7730.0 0.00533
7735.0 0.00529
7740.0 0.00525
7745.0 0.00521
7750.0 0.00517
7755.0 0.00513
7760.0 0.00509
7765.0 0.00504
7770.0 0.005
7775.0 0.00496
7780.0 0.00492
7785.0 0.00488
7790.0 0.00483
7795.0 0.00479
7800.0 0.00475
7805.0 0.00471
7810.0 0.00466
7815.0 0.00462
7820.0 0.00458
7825.0 0.00453
7830.0 0.00449
7835.0 0.00444
7840.0 0.0044
7845.0 0.00436
7850.0 0.00431
7855.0 0.00427
7860.0 0.00422
7865.0 0.00418
7870.0 0.00414
7875.0 0.00409
7880.0 0.00405
7885.0 0.00401
7890.0 0.00396
7895.0 0.00392
7900.0 0.00388
7905.0 0.00383
7910.0 0.00379
7915.0 0.00375
7920.0 0.0037
7925.0 0.00366
7930.0 0.00362
7935.0 0.00358
7940.0 0.00354
7945.0 0.00349
7950.0 0.00345
7955.0 0.00341
7960.0 0.00337
7965.0 0.00333
7970.0 0.00329
7975.0 0.00326
7980.0 0.00322
7985.0 0.00318
7990.0 0.00314
7995.0 0.0031
8000.0 0.00307
8005.0 0.00303
8010.0 0.003
8015.0 0.00296
8020.0 0.00293
8025.0 0.00289
8030.0 0.00286
8035.0 0.00282
8040.0 0.00279
8045.0 0.00276
8050.0 0.00273
8055.0 0.0027
8060.0 0.00267
8065.0 0.00264
8070.0 0.00261
8075.0 0.00258
8080.0 0.00255
8085.0 0.00252
8090.0 0.0025
8095.0 0.00247
8100.0 0.00244
8105.0 0.00242
8110.0 0.00239
8115.0 0.00237
8120.0 0.00235
8125.0 0.00232
8130.0 0.0023
8135.0 0.00228
8140.0 0.00226
8145.0 0.00224
8150.0 0.00222
8155.0 0.0022
8160.0 0.00218
8165.0 0.00216
8170.0 0.00214
8175.0 0.00213
8180.0 0.00211
8185.0 0.0021
8190.0 0.00208
8195.0 0.00207
8200.0 0.00205
8205.0 0.00204
8210.0 0.00202
8215.0 0.00201
8220.0 0.002
8225.0 0.00199
8230.0 0.00198
8235.0 0.00197
8240.0 0.00196
8245.0 0.00195
