#lamb flux
1605.0 0.364
1610.0 0.366
1615.0 0.368
1620.0 0.37
1625.0 0.372
1630.0 0.374
1635.0 0.376
1640.0 0.378
1645.0 0.38
1650.0 0.382
1655.0 0.384
1660.0 0.386
1665.0 0.388
1670.0 0.39
1675.0 0.391
1680.0 0.393
1685.0 0.395
1690.0 0.397
1695.0 0.399
1700.0 0.401
1705.0 0.402
1710.0 0.404
1715.0 0.406
1720.0 0.407
1725.0 0.409
1730.0 0.411
1735.0 0.412
1740.0 0.414
1745.0 0.416
1750.0 0.417
1755.0 0.419
1760.0 0.42
1765.0 0.421
1770.0 0.423
1775.0 0.424
1780.0 0.426
1785.0 0.427
1790.0 0.428
1795.0 0.43
1800.0 0.431
1805.0 0.432
1810.0 0.433
1815.0 0.434
1820.0 0.435
1825.0 0.437
1830.0 0.438
1835.0 0.439
1840.0 0.44
1845.0 0.44
1850.0 0.441
1855.0 0.442
1860.0 0.443
1865.0 0.444
1870.0 0.445
1875.0 0.446
1880.0 0.446
1885.0 0.447
1890.0 0.448
1895.0 0.448
1900.0 0.449
1905.0 0.45
1910.0 0.45
1915.0 0.451
1920.0 0.451
1925.0 0.452
1930.0 0.452
1935.0 0.453
1940.0 0.453
1945.0 0.454
1950.0 0.454
1955.0 0.455
1960.0 0.455
1965.0 0.456
1970.0 0.456
1975.0 0.457
1980.0 0.457
1985.0 0.457
1990.0 0.458
1995.0 0.458
2000.0 0.459
2005.0 0.46
2010.0 0.46
2015.0 0.461
2020.0 0.461
2025.0 0.462
2030.0 0.462
2035.0 0.463
2040.0 0.464
2045.0 0.465
2050.0 0.465
2055.0 0.466
2060.0 0.467
2065.0 0.467
2070.0 0.468
2075.0 0.468
2080.0 0.468
2085.0 0.468
2090.0 0.468
2095.0 0.468
2100.0 0.468
2105.0 0.468
2110.0 0.468
2115.0 0.468
2120.0 0.468
2125.0 0.469
2130.0 0.469
2135.0 0.469
2140.0 0.469
2145.0 0.469
2150.0 0.469
2155.0 0.47
2160.0 0.47
2165.0 0.47
2170.0 0.47
2175.0 0.471
2180.0 0.471
2185.0 0.471
2190.0 0.471
2195.0 0.471
2200.0 0.471
2205.0 0.471
2210.0 0.471
2215.0 0.471
2220.0 0.472
2225.0 0.472
2230.0 0.471
2235.0 0.47
2240.0 0.469
2245.0 0.469
2250.0 0.468
2255.0 0.467
2260.0 0.466
2265.0 0.465
2270.0 0.464
2275.0 0.462
2280.0 0.461
2285.0 0.459
2290.0 0.458
2295.0 0.456
2300.0 0.454
2305.0 0.453
2310.0 0.451
2315.0 0.449
2320.0 0.447
2325.0 0.446
2330.0 0.444
2335.0 0.442
2340.0 0.44
2345.0 0.438
2350.0 0.436
2355.0 0.434
2360.0 0.432
2365.0 0.43
2370.0 0.428
2375.0 0.426
2380.0 0.424
2385.0 0.422
2390.0 0.42
2395.0 0.418
2400.0 0.416
2405.0 0.414
2410.0 0.412
2415.0 0.409
2420.0 0.407
2425.0 0.405
2430.0 0.403
2435.0 0.401
2440.0 0.399
2445.0 0.397
2450.0 0.395
2455.0 0.393
2460.0 0.39
2465.0 0.388
2470.0 0.386
2475.0 0.384
2480.0 0.382
2485.0 0.38
2490.0 0.378
2495.0 0.376
2500.0 0.374
2505.0 0.372
2510.0 0.37
2515.0 0.369
2520.0 0.367
2525.0 0.365
2530.0 0.363
2535.0 0.362
2540.0 0.36
2545.0 0.358
2550.0 0.357
2555.0 0.355
2560.0 0.354
2565.0 0.352
2570.0 0.351
2575.0 0.349
2580.0 0.348
2585.0 0.346
2590.0 0.345
2595.0 0.344
2600.0 0.342
2605.0 0.341
2610.0 0.339
2615.0 0.338
2620.0 0.336
2625.0 0.335
2630.0 0.334
2635.0 0.332
2640.0 0.331
2645.0 0.329
2650.0 0.328
2655.0 0.327
2660.0 0.325
2665.0 0.324
2670.0 0.323
2675.0 0.322
2680.0 0.321
2685.0 0.32
2690.0 0.319
2695.0 0.318
2700.0 0.316
2705.0 0.315
2710.0 0.314
2715.0 0.313
2720.0 0.312
2725.0 0.312
2730.0 0.311
2735.0 0.31
2740.0 0.309
2745.0 0.308
2750.0 0.307
2755.0 0.306
2760.0 0.305
2765.0 0.304
2770.0 0.303
2775.0 0.302
2780.0 0.301
2785.0 0.3
2790.0 0.3
2795.0 0.299
2800.0 0.298
2805.0 0.297
2810.0 0.296
2815.0 0.295
2820.0 0.294
2825.0 0.293
2830.0 0.292
2835.0 0.291
2840.0 0.29
2845.0 0.289
2850.0 0.288
2855.0 0.287
2860.0 0.287
2865.0 0.286
2870.0 0.285
2875.0 0.284
2880.0 0.283
2885.0 0.282
2890.0 0.281
2895.0 0.28
2900.0 0.279
2905.0 0.278
2910.0 0.277
2915.0 0.276
2920.0 0.275
2925.0 0.274
2930.0 0.273
2935.0 0.272
2940.0 0.271
2945.0 0.27
2950.0 0.269
2955.0 0.268
2960.0 0.267
2965.0 0.266
2970.0 0.265
2975.0 0.264
2980.0 0.263
2985.0 0.262
2990.0 0.26
2995.0 0.259
3000.0 0.258
3005.0 0.257
3010.0 0.256
3015.0 0.255
3020.0 0.254
3025.0 0.253
3030.0 0.252
3035.0 0.251
3040.0 0.25
3045.0 0.249
3050.0 0.248
3055.0 0.247
3060.0 0.246
3065.0 0.245
3070.0 0.244
3075.0 0.243
3080.0 0.242
3085.0 0.241
3090.0 0.24
3095.0 0.239
3100.0 0.238
3105.0 0.237
3110.0 0.236
3115.0 0.235
3120.0 0.234
3125.0 0.233
3130.0 0.232
3135.0 0.231
3140.0 0.23
3145.0 0.229
3150.0 0.228
3155.0 0.227
3160.0 0.226
3165.0 0.225
3170.0 0.224
3175.0 0.223
3180.0 0.222
3185.0 0.221
3190.0 0.22
3195.0 0.219
3200.0 0.218
3205.0 0.217
3210.0 0.216
3215.0 0.215
3220.0 0.214
3225.0 0.213
3230.0 0.213
3235.0 0.212
3240.0 0.211
3245.0 0.21
3250.0 0.209
3255.0 0.208
3260.0 0.207
3265.0 0.206
3270.0 0.205
3275.0 0.205
3280.0 0.204
3285.0 0.203
3290.0 0.202
3295.0 0.201
3300.0 0.2
3305.0 0.2
3310.0 0.199
3315.0 0.198
3320.0 0.197
3325.0 0.197
3330.0 0.196
3335.0 0.195
3340.0 0.194
3345.0 0.194
3350.0 0.193
3355.0 0.192
3360.0 0.191
3365.0 0.191
3370.0 0.19
3375.0 0.189
3380.0 0.189
3385.0 0.188
3390.0 0.187
3395.0 0.186
3400.0 0.186
3405.0 0.185
3410.0 0.184
3415.0 0.183
3420.0 0.183
3425.0 0.182
3430.0 0.181
3435.0 0.18
3440.0 0.179
3445.0 0.178
3450.0 0.177
3455.0 0.176
3460.0 0.175
3465.0 0.174
3470.0 0.173
3475.0 0.172
3480.0 0.171
3485.0 0.17
3490.0 0.169
3495.0 0.168
3500.0 0.167
3505.0 0.166
3510.0 0.165
3515.0 0.164
3520.0 0.163
3525.0 0.162
3530.0 0.161
3535.0 0.161
3540.0 0.16
3545.0 0.159
3550.0 0.158
3555.0 0.158
3560.0 0.157
3565.0 0.157
3570.0 0.156
3575.0 0.156
3580.0 0.156
3585.0 0.156
3590.0 0.156
3595.0 0.156
3600.0 0.156
3605.0 0.156
3610.0 0.156
3615.0 0.157
3620.0 0.157
3625.0 0.157
3630.0 0.158
3635.0 0.158
3640.0 0.158
3645.0 0.159
3650.0 0.159
3655.0 0.159
3660.0 0.159
3665.0 0.159
3670.0 0.159
3675.0 0.159
3680.0 0.159
3685.0 0.159
3690.0 0.159
3695.0 0.158
3700.0 0.158
3705.0 0.158
3710.0 0.157
3715.0 0.157
3720.0 0.156
3725.0 0.155
3730.0 0.155
3735.0 0.154
3740.0 0.153
3745.0 0.152
3750.0 0.151
3755.0 0.15
3760.0 0.149
3765.0 0.148
3770.0 0.147
3775.0 0.147
3780.0 0.146
3785.0 0.145
3790.0 0.144
3795.0 0.143
3800.0 0.142
3805.0 0.141
3810.0 0.14
3815.0 0.14
3820.0 0.139
3825.0 0.138
3830.0 0.138
3835.0 0.137
3840.0 0.136
3845.0 0.136
3850.0 0.135
3855.0 0.134
3860.0 0.134
3865.0 0.133
3870.0 0.133
3875.0 0.132
3880.0 0.132
3885.0 0.131
3890.0 0.131
3895.0 0.13
3900.0 0.13
3905.0 0.129
3910.0 0.129
3915.0 0.129
3920.0 0.128
3925.0 0.128
3930.0 0.127
3935.0 0.127
3940.0 0.126
3945.0 0.126
3950.0 0.126
3955.0 0.125
3960.0 0.125
3965.0 0.125
3970.0 0.125
3975.0 0.124
3980.0 0.124
3985.0 0.124
3990.0 0.124
3995.0 0.124
4000.0 0.124
4005.0 0.124
4010.0 0.124
4015.0 0.124
4020.0 0.124
4025.0 0.124
4030.0 0.124
4035.0 0.124
4040.0 0.124
4045.0 0.124
4050.0 0.124
4055.0 0.124
4060.0 0.124
4065.0 0.124
4070.0 0.124
4075.0 0.123
4080.0 0.123
4085.0 0.123
4090.0 0.123
4095.0 0.122
4100.0 0.122
4105.0 0.122
4110.0 0.121
4115.0 0.121
4120.0 0.12
4125.0 0.12
4130.0 0.119
4135.0 0.119
4140.0 0.118
4145.0 0.118
4150.0 0.117
4155.0 0.117
4160.0 0.116
4165.0 0.115
4170.0 0.115
4175.0 0.114
4180.0 0.114
4185.0 0.113
4190.0 0.113
4195.0 0.112
4200.0 0.112
4205.0 0.111
4210.0 0.111
4215.0 0.11
4220.0 0.11
4225.0 0.11
4230.0 0.109
4235.0 0.109
4240.0 0.109
4245.0 0.109
4250.0 0.109
4255.0 0.109
4260.0 0.109
4265.0 0.109
4270.0 0.109
4275.0 0.109
4280.0 0.108
4285.0 0.108
4290.0 0.108
4295.0 0.108
4300.0 0.108
4305.0 0.107
4310.0 0.107
4315.0 0.107
4320.0 0.106
4325.0 0.106
4330.0 0.105
4335.0 0.104
4340.0 0.104
4345.0 0.103
4350.0 0.102
4355.0 0.102
4360.0 0.101
4365.0 0.101
4370.0 0.101
4375.0 0.101
4380.0 0.1
4385.0 0.1
4390.0 0.1
4395.0 0.1
4400.0 0.1
4405.0 0.1
4410.0 0.1
4415.0 0.1
4420.0 0.1
4425.0 0.1
4430.0 0.1
4435.0 0.1
4440.0 0.1
4445.0 0.1
4450.0 0.1
4455.0 0.1
4460.0 0.1
4465.0 0.101
4470.0 0.101
4475.0 0.101
4480.0 0.101
4485.0 0.101
4490.0 0.101
4495.0 0.101
4500.0 0.101
4505.0 0.101
4510.0 0.101
4515.0 0.101
4520.0 0.101
4525.0 0.101
4530.0 0.1
4535.0 0.1
4540.0 0.1
4545.0 0.1
4550.0 0.1
4555.0 0.0999
4560.0 0.0998
4565.0 0.0997
4570.0 0.0996
4575.0 0.0994
4580.0 0.0993
4585.0 0.0992
4590.0 0.0991
4595.0 0.099
4600.0 0.0988
4605.0 0.0987
4610.0 0.0985
4615.0 0.0984
4620.0 0.0982
4625.0 0.098
4630.0 0.0977
4635.0 0.0975
4640.0 0.0972
4645.0 0.0968
4650.0 0.0965
4655.0 0.0961
4660.0 0.0956
4665.0 0.0951
4670.0 0.0946
4675.0 0.0941
4680.0 0.0935
4685.0 0.0929
4690.0 0.0923
4695.0 0.0916
4700.0 0.091
4705.0 0.0904
4710.0 0.0897
4715.0 0.0891
4720.0 0.0885
4725.0 0.088
4730.0 0.0874
4735.0 0.0869
4740.0 0.0865
4745.0 0.086
4750.0 0.0856
4755.0 0.0852
4760.0 0.0849
4765.0 0.0845
4770.0 0.0842
4775.0 0.084
4780.0 0.0837
4785.0 0.0834
4790.0 0.0832
4795.0 0.0829
4800.0 0.0827
4805.0 0.0824
4810.0 0.0821
4815.0 0.0819
4820.0 0.0816
4825.0 0.0813
4830.0 0.081
4835.0 0.0807
4840.0 0.0804
4845.0 0.08
4850.0 0.0797
4855.0 0.0794
4860.0 0.079
4865.0 0.0787
4870.0 0.0783
4875.0 0.078
4880.0 0.0777
4885.0 0.0773
4890.0 0.077
4895.0 0.0767
4900.0 0.0764
4905.0 0.0761
4910.0 0.0758
4915.0 0.0755
4920.0 0.0752
4925.0 0.075
4930.0 0.0747
4935.0 0.0744
4940.0 0.0741
4945.0 0.0738
4950.0 0.0735
4955.0 0.0732
4960.0 0.0729
4965.0 0.0726
4970.0 0.0723
4975.0 0.0719
4980.0 0.0716
4985.0 0.0713
4990.0 0.071
4995.0 0.0707
5000.0 0.0704
5005.0 0.0701
5010.0 0.0698
5015.0 0.0695
5020.0 0.0692
5025.0 0.069
5030.0 0.0687
5035.0 0.0685
5040.0 0.0682
5045.0 0.068
5050.0 0.0678
5055.0 0.0676
5060.0 0.0674
5065.0 0.0672
5070.0 0.067
5075.0 0.0668
5080.0 0.0666
5085.0 0.0664
5090.0 0.0662
5095.0 0.066
5100.0 0.0658
5105.0 0.0657
5110.0 0.0655
5115.0 0.0653
5120.0 0.0651
5125.0 0.0649
5130.0 0.0647
5135.0 0.0645
5140.0 0.0643
5145.0 0.0641
5150.0 0.0639
5155.0 0.0637
5160.0 0.0635
5165.0 0.0634
5170.0 0.0632
5175.0 0.063
5180.0 0.0628
5185.0 0.0626
5190.0 0.0624
5195.0 0.0622
5200.0 0.062
5205.0 0.0618
5210.0 0.0616
5215.0 0.0614
5220.0 0.0611
5225.0 0.0609
5230.0 0.0607
5235.0 0.0605
5240.0 0.0602
5245.0 0.06
5250.0 0.0598
5255.0 0.0596
5260.0 0.0593
5265.0 0.0591
5270.0 0.0589
5275.0 0.0587
5280.0 0.0585
5285.0 0.0583
5290.0 0.0582
5295.0 0.058
5300.0 0.0578
5305.0 0.0577
5310.0 0.0575
5315.0 0.0574
5320.0 0.0573
5325.0 0.0572
5330.0 0.0571
5335.0 0.057
5340.0 0.0569
5345.0 0.0568
5350.0 0.0567
5355.0 0.0566
5360.0 0.0566
5365.0 0.0565
5370.0 0.0564
5375.0 0.0562
5380.0 0.0561
5385.0 0.056
5390.0 0.0558
5395.0 0.0556
5400.0 0.0554
5405.0 0.0552
5410.0 0.0549
5415.0 0.0547
5420.0 0.0544
5425.0 0.0541
5430.0 0.0538
5435.0 0.0535
5440.0 0.0531
5445.0 0.0528
5450.0 0.0525
5455.0 0.0523
5460.0 0.052
5465.0 0.0519
5470.0 0.0517
5475.0 0.0515
5480.0 0.0514
5485.0 0.0513
5490.0 0.0512
5495.0 0.0511
5500.0 0.051
5505.0 0.0509
5510.0 0.0508
5515.0 0.0507
5520.0 0.0506
5525.0 0.0505
5530.0 0.0504
5535.0 0.0503
5540.0 0.0501
5545.0 0.05
5550.0 0.0499
5555.0 0.0498
5560.0 0.0496
5565.0 0.0495
5570.0 0.0493
5575.0 0.0492
5580.0 0.049
5585.0 0.0489
5590.0 0.0487
5595.0 0.0485
5600.0 0.0483
5605.0 0.0481
5610.0 0.0479
5615.0 0.0477
5620.0 0.0475
5625.0 0.0473
5630.0 0.0471
5635.0 0.0469
5640.0 0.0467
5645.0 0.0465
5650.0 0.0463
5655.0 0.0461
5660.0 0.0459
5665.0 0.0457
5670.0 0.0456
5675.0 0.0454
5680.0 0.0452
5685.0 0.0451
5690.0 0.045
5695.0 0.0448
5700.0 0.0447
5705.0 0.0446
5710.0 0.0445
5715.0 0.0445
5720.0 0.0444
5725.0 0.0444
5730.0 0.0443
5735.0 0.0443
5740.0 0.0443
5745.0 0.0442
5750.0 0.0442
5755.0 0.0442
5760.0 0.0441
5765.0 0.0441
5770.0 0.0441
5775.0 0.044
5780.0 0.0439
5785.0 0.0439
5790.0 0.0438
5795.0 0.0437
5800.0 0.0436
5805.0 0.0435
5810.0 0.0433
5815.0 0.0432
5820.0 0.043
5825.0 0.0428
5830.0 0.0427
5835.0 0.0425
5840.0 0.0423
5845.0 0.0421
5850.0 0.0419
5855.0 0.0417
5860.0 0.0416
5865.0 0.0414
5870.0 0.0412
5875.0 0.041
5880.0 0.0409
5885.0 0.0407
5890.0 0.0406
5895.0 0.0405
5900.0 0.0403
5905.0 0.0402
5910.0 0.0401
5915.0 0.04
5920.0 0.0399
5925.0 0.0398
5930.0 0.0397
5935.0 0.0396
5940.0 0.0395
5945.0 0.0394
5950.0 0.0393
5955.0 0.0392
5960.0 0.0392
5965.0 0.0391
5970.0 0.039
5975.0 0.0389
5980.0 0.0388
5985.0 0.0387
5990.0 0.0386
5995.0 0.0386
6000.0 0.0385
6005.0 0.0384
6010.0 0.0383
6015.0 0.0382
6020.0 0.0382
6025.0 0.0381
6030.0 0.038
6035.0 0.0379
6040.0 0.0378
6045.0 0.0378
6050.0 0.0377
6055.0 0.0376
6060.0 0.0375
6065.0 0.0374
6070.0 0.0373
6075.0 0.0372
6080.0 0.0371
6085.0 0.037
6090.0 0.0369
6095.0 0.0368
6100.0 0.0367
6105.0 0.0365
6110.0 0.0364
6115.0 0.0363
6120.0 0.0362
6125.0 0.036
6130.0 0.0359
6135.0 0.0358
6140.0 0.0356
6145.0 0.0355
6150.0 0.0354
6155.0 0.0353
6160.0 0.0351
6165.0 0.035
6170.0 0.0349
6175.0 0.0348
6180.0 0.0347
6185.0 0.0345
6190.0 0.0344
6195.0 0.0343
6200.0 0.0342
6205.0 0.0341
6210.0 0.0339
6215.0 0.0338
6220.0 0.0337
6225.0 0.0336
6230.0 0.0334
6235.0 0.0333
6240.0 0.0332
6245.0 0.0331
6250.0 0.033
6255.0 0.0329
6260.0 0.0328
6265.0 0.0327
6270.0 0.0327
6275.0 0.0326
6280.0 0.0325
6285.0 0.0325
6290.0 0.0324
6295.0 0.0324
6300.0 0.0323
6305.0 0.0323
6310.0 0.0322
6315.0 0.0321
6320.0 0.0321
6325.0 0.032
6330.0 0.0319
6335.0 0.0318
6340.0 0.0317
6345.0 0.0316
6350.0 0.0315
6355.0 0.0314
6360.0 0.0313
6365.0 0.0312
6370.0 0.0311
6375.0 0.0311
6380.0 0.031
6385.0 0.0309
6390.0 0.0308
6395.0 0.0307
6400.0 0.0306
6405.0 0.0305
6410.0 0.0305
6415.0 0.0304
6420.0 0.0303
6425.0 0.0302
6430.0 0.0301
6435.0 0.03
6440.0 0.0299
6445.0 0.0298
6450.0 0.0297
6455.0 0.0295
6460.0 0.0294
6465.0 0.0293
6470.0 0.0293
6475.0 0.0292
6480.0 0.0291
6485.0 0.0291
6490.0 0.029
6495.0 0.029
6500.0 0.0291
6505.0 0.0291
6510.0 0.0291
6515.0 0.0292
6520.0 0.0293
6525.0 0.0293
6530.0 0.0294
6535.0 0.0294
6540.0 0.0295
6545.0 0.0296
6550.0 0.0296
6555.0 0.0296
6560.0 0.0297
6565.0 0.0297
6570.0 0.0297
6575.0 0.0297
6580.0 0.0297
6585.0 0.0297
6590.0 0.0296
6595.0 0.0296
6600.0 0.0296
6605.0 0.0295
6610.0 0.0295
6615.0 0.0294
6620.0 0.0293
6625.0 0.0293
6630.0 0.0292
6635.0 0.0291
6640.0 0.0291
6645.0 0.029
6650.0 0.0289
6655.0 0.0289
6660.0 0.0288
6665.0 0.0287
6670.0 0.0287
6675.0 0.0286
6680.0 0.0285
6685.0 0.0285
6690.0 0.0284
6695.0 0.0283
6700.0 0.0283
6705.0 0.0282
6710.0 0.0281
6715.0 0.0281
6720.0 0.028
6725.0 0.028
6730.0 0.0279
6735.0 0.0278
6740.0 0.0278
6745.0 0.0277
6750.0 0.0277
6755.0 0.0276
6760.0 0.0275
6765.0 0.0275
6770.0 0.0274
6775.0 0.0274
6780.0 0.0273
6785.0 0.0273
6790.0 0.0272
6795.0 0.0272
6800.0 0.0271
6805.0 0.0271
6810.0 0.027
6815.0 0.027
6820.0 0.0269
6825.0 0.0269
6830.0 0.0268
6835.0 0.0268
6840.0 0.0267
6845.0 0.0267
6850.0 0.0266
6855.0 0.0266
6860.0 0.0265
6865.0 0.0265
6870.0 0.0264
6875.0 0.0263
6880.0 0.0263
6885.0 0.0262
6890.0 0.0262
6895.0 0.0261
6900.0 0.0261
6905.0 0.026
6910.0 0.026
6915.0 0.0259
6920.0 0.0259
6925.0 0.0258
6930.0 0.0258
6935.0 0.0257
6940.0 0.0256
6945.0 0.0256
6950.0 0.0255
6955.0 0.0255
6960.0 0.0254
6965.0 0.0254
6970.0 0.0253
6975.0 0.0253
6980.0 0.0252
6985.0 0.0252
6990.0 0.0252
6995.0 0.0251
7000.0 0.0251
7005.0 0.025
7010.0 0.025
7015.0 0.0249
7020.0 0.0249
7025.0 0.0249
7030.0 0.0248
7035.0 0.0248
7040.0 0.0248
7045.0 0.0247
7050.0 0.0247
7055.0 0.0247
7060.0 0.0246
7065.0 0.0246
7070.0 0.0246
7075.0 0.0245
7080.0 0.0245
7085.0 0.0245
7090.0 0.0244
7095.0 0.0244
7100.0 0.0244
7105.0 0.0243
7110.0 0.0243
7115.0 0.0243
7120.0 0.0242
7125.0 0.0242
7130.0 0.0241
7135.0 0.0241
7140.0 0.024
7145.0 0.024
7150.0 0.024
7155.0 0.0239
7160.0 0.0239
7165.0 0.0238
7170.0 0.0238
7175.0 0.0237
7180.0 0.0237
7185.0 0.0236
7190.0 0.0236
7195.0 0.0235
7200.0 0.0235
7205.0 0.0234
7210.0 0.0234
7215.0 0.0233
7220.0 0.0232
7225.0 0.0232
7230.0 0.0231
7235.0 0.0231
7240.0 0.023
7245.0 0.023
7250.0 0.0229
7255.0 0.0229
7260.0 0.0228
7265.0 0.0228
7270.0 0.0227
7275.0 0.0227
7280.0 0.0226
7285.0 0.0226
7290.0 0.0225
7295.0 0.0224
7300.0 0.0224
7305.0 0.0223
7310.0 0.0223
7315.0 0.0222
7320.0 0.0222
7325.0 0.0221
7330.0 0.0221
7335.0 0.022
7340.0 0.022
7345.0 0.0219
7350.0 0.0219
7355.0 0.0218
7360.0 0.0218
7365.0 0.0217
7370.0 0.0217
7375.0 0.0216
7380.0 0.0216
7385.0 0.0216
7390.0 0.0215
7395.0 0.0215
7400.0 0.0214
7405.0 0.0214
7410.0 0.0214
7415.0 0.0213
7420.0 0.0213
7425.0 0.0213
7430.0 0.0212
7435.0 0.0212
7440.0 0.0212
7445.0 0.0211
7450.0 0.0211
7455.0 0.0211
7460.0 0.021
7465.0 0.021
7470.0 0.0209
7475.0 0.0209
7480.0 0.0209
7485.0 0.0208
7490.0 0.0208
7495.0 0.0208
7500.0 0.0207
7505.0 0.0207
7510.0 0.0207
7515.0 0.0206
7520.0 0.0206
7525.0 0.0205
7530.0 0.0205
7535.0 0.0205
7540.0 0.0204
7545.0 0.0204
7550.0 0.0203
7555.0 0.0203
7560.0 0.0203
7565.0 0.0202
7570.0 0.0202
7575.0 0.0201
7580.0 0.0201
7585.0 0.02
7590.0 0.02
7595.0 0.0199
7600.0 0.0199
7605.0 0.0198
7610.0 0.0197
7615.0 0.0197
7620.0 0.0196
7625.0 0.0195
7630.0 0.0194
7635.0 0.0194
7640.0 0.0193
7645.0 0.0192
7650.0 0.0191
7655.0 0.019
7660.0 0.0189
7665.0 0.0188
7670.0 0.0187
7675.0 0.0186
7680.0 0.0186
7685.0 0.0185
7690.0 0.0184
7695.0 0.0183
7700.0 0.0182
7705.0 0.0181
7710.0 0.018
7715.0 0.0179
7720.0 0.0178
7725.0 0.0177
7730.0 0.0176
7735.0 0.0176
7740.0 0.0175
7745.0 0.0174
7750.0 0.0173
7755.0 0.0172
7760.0 0.0171
7765.0 0.017
7770.0 0.0169
7775.0 0.0169
7780.0 0.0168
7785.0 0.0167
7790.0 0.0166
7795.0 0.0165
7800.0 0.0164
7805.0 0.0163
7810.0 0.0162
7815.0 0.0161
7820.0 0.016
7825.0 0.0159
7830.0 0.0158
7835.0 0.0157
7840.0 0.0156
7845.0 0.0155
7850.0 0.0154
7855.0 0.0153
7860.0 0.0152
7865.0 0.0151
7870.0 0.0151
7875.0 0.015
7880.0 0.0149
7885.0 0.0148
7890.0 0.0147
7895.0 0.0146
7900.0 0.0146
7905.0 0.0145
7910.0 0.0144
7915.0 0.0144
7920.0 0.0143
7925.0 0.0142
7930.0 0.0142
7935.0 0.0142
7940.0 0.0141
7945.0 0.0141
7950.0 0.014
7955.0 0.014
7960.0 0.014
7965.0 0.014
7970.0 0.0139
7975.0 0.0139
7980.0 0.0139
7985.0 0.0138
7990.0 0.0138
7995.0 0.0137
8000.0 0.0136
8005.0 0.0136
8010.0 0.0135
8015.0 0.0134
8020.0 0.0133
8025.0 0.0133
8030.0 0.0132
8035.0 0.0131
8040.0 0.013
8045.0 0.013
8050.0 0.0129
8055.0 0.0128
8060.0 0.0128
8065.0 0.0127
8070.0 0.0127
8075.0 0.0126
8080.0 0.0126
8085.0 0.0125
8090.0 0.0125
8095.0 0.0124
8100.0 0.0124
8105.0 0.0124
8110.0 0.0123
8115.0 0.0123
8120.0 0.0123
8125.0 0.0122
8130.0 0.0122
8135.0 0.0122
8140.0 0.0122
8145.0 0.0122
8150.0 0.0122
8155.0 0.0122
8160.0 0.0122
8165.0 0.0122
8170.0 0.0121
8175.0 0.0121
8180.0 0.0121
8185.0 0.0122
8190.0 0.0122
8195.0 0.0122
8200.0 0.0122
8205.0 0.0122
8210.0 0.0122
8215.0 0.0122
8220.0 0.0122
8225.0 0.0122
8230.0 0.0122
8235.0 0.0122
8240.0 0.0122
8245.0 0.0122
8250.0 0.0122
8255.0 0.0122
8260.0 0.0122
8265.0 0.0122
8270.0 0.0122
8275.0 0.0122
8280.0 0.0122
8285.0 0.0122
8290.0 0.0122
8295.0 0.0122
8300.0 0.0122
8305.0 0.0122
8310.0 0.0122
8315.0 0.0122
8320.0 0.0122
8325.0 0.0122
8330.0 0.0121
8335.0 0.0121
8340.0 0.0121
8345.0 0.0121
8350.0 0.012
8355.0 0.012
8360.0 0.012
8365.0 0.012
8370.0 0.0119
8375.0 0.0119
8380.0 0.0119
8385.0 0.0118
8390.0 0.0118
8395.0 0.0117
8400.0 0.0117
8405.0 0.0117
8410.0 0.0116
8415.0 0.0116
8420.0 0.0115
8425.0 0.0115
8430.0 0.0115
8435.0 0.0114
8440.0 0.0114
8445.0 0.0113
8450.0 0.0113
8455.0 0.0112
8460.0 0.0112
8465.0 0.0112
8470.0 0.0111
8475.0 0.0111
8480.0 0.011
8485.0 0.011
8490.0 0.011
8495.0 0.0109
8500.0 0.0109
8505.0 0.0108
8510.0 0.0108
8515.0 0.0108
8520.0 0.0107
8525.0 0.0107
8530.0 0.0107
8535.0 0.0106
8540.0 0.0106
8545.0 0.0106
8550.0 0.0105
8555.0 0.0105
8560.0 0.0105
8565.0 0.0105
8570.0 0.0104
8575.0 0.0104
8580.0 0.0104
8585.0 0.0104
8590.0 0.0104
8595.0 0.0103
8600.0 0.0103
8605.0 0.0103
8610.0 0.0103
8615.0 0.0103
8620.0 0.0103
8625.0 0.0102
8630.0 0.0102
8635.0 0.0102
8640.0 0.0102
8645.0 0.0102
8650.0 0.0102
8655.0 0.0102
8660.0 0.0102
8665.0 0.0102
8670.0 0.0101
8675.0 0.0101
8680.0 0.0101
8685.0 0.0101
8690.0 0.0101
8695.0 0.0101
8700.0 0.0101
8705.0 0.0101
8710.0 0.01
8715.0 0.01
8720.0 0.01
8725.0 0.01
8730.0 0.00999
8735.0 0.00997
8740.0 0.00996
8745.0 0.00994
8750.0 0.00992
8755.0 0.0099
8760.0 0.00988
8765.0 0.00985
8770.0 0.00983
8775.0 0.0098
8780.0 0.00978
8785.0 0.00975
8790.0 0.00972
8795.0 0.0097
8800.0 0.00967
8805.0 0.00964
8810.0 0.00961
8815.0 0.00957
8820.0 0.00954
8825.0 0.00951
8830.0 0.00947
8835.0 0.00944
8840.0 0.0094
8845.0 0.00937
8850.0 0.00933
8855.0 0.00929
8860.0 0.00926
8865.0 0.00922
8870.0 0.00918
8875.0 0.00915
8880.0 0.00911
8885.0 0.00907
8890.0 0.00904
8895.0 0.009
8900.0 0.00897
8905.0 0.00893
8910.0 0.0089
8915.0 0.00886
8920.0 0.00883
8925.0 0.0088
8930.0 0.00877
8935.0 0.00874
8940.0 0.00871
8945.0 0.00868
8950.0 0.00865
8955.0 0.00863
8960.0 0.00861
8965.0 0.00858
8970.0 0.00856
8975.0 0.00853
8980.0 0.00851
8985.0 0.00849
8990.0 0.00846
8995.0 0.00844
9000.0 0.00842
