#lamb flux
1605.0 0.000753
1610.0 0.000755
1615.0 0.000757
1620.0 0.000759
1625.0 0.000762
1630.0 0.000764
1635.0 0.000766
1640.0 0.000768
1645.0 0.000771
1650.0 0.000773
1655.0 0.000776
1660.0 0.000778
1665.0 0.000781
1670.0 0.000783
1675.0 0.000786
1680.0 0.000788
1685.0 0.000791
1690.0 0.000794
1695.0 0.000796
1700.0 0.000799
1705.0 0.000801
1710.0 0.000804
1715.0 0.000807
1720.0 0.00081
1725.0 0.000813
1730.0 0.000816
1735.0 0.000819
1740.0 0.000821
1745.0 0.000824
1750.0 0.000827
1755.0 0.00083
1760.0 0.000834
1765.0 0.000837
1770.0 0.00084
1775.0 0.000843
1780.0 0.000846
1785.0 0.00085
1790.0 0.000853
1795.0 0.000856
1800.0 0.00086
1805.0 0.000863
1810.0 0.000867
1815.0 0.00087
1820.0 0.000874
1825.0 0.000877
1830.0 0.000881
1835.0 0.000885
1840.0 0.000889
1845.0 0.000892
1850.0 0.000896
1855.0 0.0009
1860.0 0.000904
1865.0 0.000908
1870.0 0.000912
1875.0 0.000916
1880.0 0.000921
1885.0 0.000925
1890.0 0.000929
1895.0 0.000934
1900.0 0.000938
1905.0 0.000942
1910.0 0.000947
1915.0 0.000951
1920.0 0.000956
1925.0 0.000961
1930.0 0.000966
1935.0 0.000971
1940.0 0.000976
1945.0 0.000981
1950.0 0.000985
1955.0 0.000991
1960.0 0.000996
1965.0 0.001
1970.0 0.00101
1975.0 0.00101
1980.0 0.00102
1985.0 0.00102
1990.0 0.00103
1995.0 0.00103
2000.0 0.00104
2005.0 0.00105
2010.0 0.00105
2015.0 0.00106
2020.0 0.00107
2025.0 0.00107
2030.0 0.00108
2035.0 0.00109
2040.0 0.00109
2045.0 0.0011
2050.0 0.00111
2055.0 0.00111
2060.0 0.00112
2065.0 0.00113
2070.0 0.00114
2075.0 0.00114
2080.0 0.00115
2085.0 0.00116
2090.0 0.00117
2095.0 0.00118
2100.0 0.00118
2105.0 0.00119
2110.0 0.0012
2115.0 0.00121
2120.0 0.00122
2125.0 0.00123
2130.0 0.00124
2135.0 0.00125
2140.0 0.00126
2145.0 0.00127
2150.0 0.00127
2155.0 0.00129
2160.0 0.0013
2165.0 0.00131
2170.0 0.00132
2175.0 0.00133
2180.0 0.00134
2185.0 0.00135
2190.0 0.00136
2195.0 0.00137
2200.0 0.00138
2205.0 0.00139
2210.0 0.0014
2215.0 0.00141
2220.0 0.00143
2225.0 0.00144
2230.0 0.00145
2235.0 0.00146
2240.0 0.00147
2245.0 0.00149
2250.0 0.0015
2255.0 0.00151
2260.0 0.00152
2265.0 0.00154
2270.0 0.00155
2275.0 0.00156
2280.0 0.00157
2285.0 0.00159
2290.0 0.0016
2295.0 0.00161
2300.0 0.00163
2305.0 0.00164
2310.0 0.00165
2315.0 0.00167
2320.0 0.00168
2325.0 0.0017
2330.0 0.00171
2335.0 0.00172
2340.0 0.00174
2345.0 0.00175
2350.0 0.00177
2355.0 0.00178
2360.0 0.0018
2365.0 0.00181
2370.0 0.00183
2375.0 0.00184
2380.0 0.00186
2385.0 0.00187
2390.0 0.00189
2395.0 0.0019
2400.0 0.00192
2405.0 0.00193
2410.0 0.00195
2415.0 0.00196
2420.0 0.00198
2425.0 0.002
2430.0 0.00201
2435.0 0.00203
2440.0 0.00204
2445.0 0.00206
2450.0 0.00207
2455.0 0.00209
2460.0 0.00211
2465.0 0.00212
2470.0 0.00214
2475.0 0.00215
2480.0 0.00217
2485.0 0.00218
2490.0 0.0022
2495.0 0.00221
2500.0 0.00223
2505.0 0.00225
2510.0 0.00226
2515.0 0.00228
2520.0 0.00229
2525.0 0.00231
2530.0 0.00232
2535.0 0.00233
2540.0 0.00235
2545.0 0.00236
2550.0 0.00238
2555.0 0.00239
2560.0 0.0024
2565.0 0.00242
2570.0 0.00243
2575.0 0.00244
2580.0 0.00245
2585.0 0.00247
2590.0 0.00248
2595.0 0.00249
2600.0 0.0025
2605.0 0.00251
2610.0 0.00252
2615.0 0.00253
2620.0 0.00253
2625.0 0.00254
2630.0 0.00255
2635.0 0.00256
2640.0 0.00257
2645.0 0.00257
2650.0 0.00258
2655.0 0.00259
2660.0 0.00259
2665.0 0.0026
2670.0 0.00261
2675.0 0.00261
2680.0 0.00261
2685.0 0.00262
2690.0 0.00262
2695.0 0.00263
2700.0 0.00263
2705.0 0.00264
2710.0 0.00264
2715.0 0.00264
2720.0 0.00265
2725.0 0.00265
2730.0 0.00265
2735.0 0.00265
2740.0 0.00266
2745.0 0.00266
2750.0 0.00266
2755.0 0.00266
2760.0 0.00267
2765.0 0.00267
2770.0 0.00267
2775.0 0.00267
2780.0 0.00267
2785.0 0.00268
2790.0 0.00268
2795.0 0.00268
2800.0 0.00268
2805.0 0.00269
2810.0 0.00269
2815.0 0.00269
2820.0 0.00269
2825.0 0.00269
2830.0 0.0027
2835.0 0.0027
2840.0 0.0027
2845.0 0.0027
2850.0 0.00271
2855.0 0.00271
2860.0 0.00271
2865.0 0.00271
2870.0 0.00272
2875.0 0.00272
2880.0 0.00272
2885.0 0.00273
2890.0 0.00273
2895.0 0.00273
2900.0 0.00274
2905.0 0.00274
2910.0 0.00274
2915.0 0.00275
2920.0 0.00275
2925.0 0.00276
2930.0 0.00276
2935.0 0.00277
2940.0 0.00277
2945.0 0.00278
2950.0 0.00278
2955.0 0.00279
2960.0 0.0028
2965.0 0.0028
2970.0 0.00281
2975.0 0.00282
2980.0 0.00282
2985.0 0.00283
2990.0 0.00284
2995.0 0.00284
3000.0 0.00285
3005.0 0.00286
3010.0 0.00287
3015.0 0.00288
3020.0 0.00289
3025.0 0.0029
3030.0 0.00291
3035.0 0.00292
3040.0 0.00293
3045.0 0.00294
3050.0 0.00296
3055.0 0.00297
3060.0 0.00298
3065.0 0.00299
3070.0 0.00301
3075.0 0.00302
3080.0 0.00304
3085.0 0.00305
3090.0 0.00307
3095.0 0.00308
3100.0 0.0031
3105.0 0.00312
3110.0 0.00314
3115.0 0.00316
3120.0 0.00317
3125.0 0.00319
3130.0 0.00322
3135.0 0.00324
3140.0 0.00326
3145.0 0.00328
3150.0 0.00331
3155.0 0.00333
3160.0 0.00336
3165.0 0.00338
3170.0 0.00341
3175.0 0.00344
3180.0 0.00347
3185.0 0.0035
3190.0 0.00353
3195.0 0.00356
3200.0 0.00359
3205.0 0.00362
3210.0 0.00366
3215.0 0.0037
3220.0 0.00373
3225.0 0.00377
3230.0 0.00381
3235.0 0.00385
3240.0 0.0039
3245.0 0.00394
3250.0 0.00399
3255.0 0.00403
3260.0 0.00408
3265.0 0.00413
3270.0 0.00418
3275.0 0.00423
3280.0 0.00429
3285.0 0.00434
3290.0 0.0044
3295.0 0.00446
3300.0 0.00452
3305.0 0.00458
3310.0 0.00465
3315.0 0.00471
3320.0 0.00478
3325.0 0.00485
3330.0 0.00492
3335.0 0.00499
3340.0 0.00507
3345.0 0.00514
3350.0 0.00522
3355.0 0.0053
3360.0 0.00538
3365.0 0.00546
3370.0 0.00554
3375.0 0.00562
3380.0 0.00571
3385.0 0.00579
3390.0 0.00588
3395.0 0.00596
3400.0 0.00605
3405.0 0.00614
3410.0 0.00623
3415.0 0.00632
3420.0 0.00641
3425.0 0.0065
3430.0 0.00659
3435.0 0.00668
3440.0 0.00677
3445.0 0.00687
3450.0 0.00696
3455.0 0.00706
3460.0 0.00715
3465.0 0.00725
3470.0 0.00734
3475.0 0.00744
3480.0 0.00753
3485.0 0.00762
3490.0 0.0077
3495.0 0.00779
3500.0 0.00786
3505.0 0.00793
3510.0 0.008
3515.0 0.00806
3520.0 0.00811
3525.0 0.00815
3530.0 0.00819
3535.0 0.00822
3540.0 0.00823
3545.0 0.00825
3550.0 0.00825
3555.0 0.00824
3560.0 0.00822
3565.0 0.0082
3570.0 0.00817
3575.0 0.00813
3580.0 0.00808
3585.0 0.00802
3590.0 0.00795
3595.0 0.00788
3600.0 0.00779
3605.0 0.0077
3610.0 0.0076
3615.0 0.0075
3620.0 0.00739
3625.0 0.00727
3630.0 0.00715
3635.0 0.00703
3640.0 0.0069
3645.0 0.00677
3650.0 0.00663
3655.0 0.0065
3660.0 0.00636
3665.0 0.00623
3670.0 0.0061
3675.0 0.00597
3680.0 0.00584
3685.0 0.00572
3690.0 0.00561
3695.0 0.00551
3700.0 0.00541
3705.0 0.00532
3710.0 0.00524
3715.0 0.00517
3720.0 0.00511
3725.0 0.00506
3730.0 0.00503
3735.0 0.00501
3740.0 0.005
3745.0 0.00501
3750.0 0.00503
3755.0 0.00506
3760.0 0.00512
3765.0 0.00518
3770.0 0.00527
3775.0 0.00537
3780.0 0.00549
3785.0 0.00562
3790.0 0.00578
3795.0 0.00595
3800.0 0.00615
3805.0 0.00636
3810.0 0.00659
3815.0 0.00684
3820.0 0.00711
3825.0 0.00739
3830.0 0.0077
3835.0 0.00801
3840.0 0.00835
3845.0 0.00869
3850.0 0.00905
3855.0 0.00941
3860.0 0.00977
3865.0 0.0101
3870.0 0.0105
3875.0 0.0109
3880.0 0.0112
3885.0 0.0116
3890.0 0.0119
3895.0 0.0122
3900.0 0.0125
3905.0 0.0127
3910.0 0.0129
3915.0 0.0131
3920.0 0.0133
3925.0 0.0134
3930.0 0.0135
3935.0 0.0136
3940.0 0.0136
3945.0 0.0136
3950.0 0.0136
3955.0 0.0135
3960.0 0.0134
3965.0 0.0133
3970.0 0.0132
3975.0 0.0131
3980.0 0.0129
3985.0 0.0127
3990.0 0.0126
3995.0 0.0124
4000.0 0.0122
4005.0 0.012
4010.0 0.0118
4015.0 0.0117
4020.0 0.0115
4025.0 0.0113
4030.0 0.0112
4035.0 0.011
4040.0 0.0108
4045.0 0.0107
4050.0 0.0106
4055.0 0.0104
4060.0 0.0103
4065.0 0.0102
4070.0 0.0101
4075.0 0.01
4080.0 0.00997
4085.0 0.0099
4090.0 0.00984
4095.0 0.0098
4100.0 0.00975
4105.0 0.00972
4110.0 0.00969
4115.0 0.00967
4120.0 0.00965
4125.0 0.00964
4130.0 0.00963
4135.0 0.00962
4140.0 0.00962
4145.0 0.00961
4150.0 0.00961
4155.0 0.0096
4160.0 0.0096
4165.0 0.00959
4170.0 0.00958
4175.0 0.00956
4180.0 0.00955
4185.0 0.00952
4190.0 0.0095
4195.0 0.00946
4200.0 0.00943
4205.0 0.00938
4210.0 0.00934
4215.0 0.00928
4220.0 0.00923
4225.0 0.00917
4230.0 0.0091
4235.0 0.00904
4240.0 0.00897
4245.0 0.00889
4250.0 0.00882
4255.0 0.00874
4260.0 0.00867
4265.0 0.00859
4270.0 0.00852
4275.0 0.00845
4280.0 0.00838
4285.0 0.00832
4290.0 0.00826
4295.0 0.00821
4300.0 0.00817
4305.0 0.00814
4310.0 0.00811
4315.0 0.0081
4320.0 0.00809
4325.0 0.00811
4330.0 0.00812
4335.0 0.00814
4340.0 0.00817
4345.0 0.00821
4350.0 0.00824
4355.0 0.00827
4360.0 0.0083
4365.0 0.00832
4370.0 0.00833
4375.0 0.00834
4380.0 0.00834
4385.0 0.00833
4390.0 0.00833
4395.0 0.00834
4400.0 0.00834
4405.0 0.00837
4410.0 0.0084
4415.0 0.00845
4420.0 0.00851
4425.0 0.00859
4430.0 0.00868
4435.0 0.00879
4440.0 0.0089
4445.0 0.00904
4450.0 0.00918
4455.0 0.00934
4460.0 0.00951
4465.0 0.00968
4470.0 0.00986
4475.0 0.01
4480.0 0.0102
4485.0 0.0104
4490.0 0.0106
4495.0 0.0108
4500.0 0.0109
4505.0 0.0111
4510.0 0.0113
4515.0 0.0114
4520.0 0.0116
4525.0 0.0117
4530.0 0.0118
4535.0 0.0119
4540.0 0.012
4545.0 0.0121
4550.0 0.0121
4555.0 0.0122
4560.0 0.0122
4565.0 0.0122
4570.0 0.0121
4575.0 0.0121
4580.0 0.012
4585.0 0.0119
4590.0 0.0118
4595.0 0.0117
4600.0 0.0115
4605.0 0.0113
4610.0 0.0112
4615.0 0.011
4620.0 0.0107
4625.0 0.0105
4630.0 0.0103
4635.0 0.0101
4640.0 0.00982
4645.0 0.00958
4650.0 0.00935
4655.0 0.00912
4660.0 0.0089
4665.0 0.00869
4670.0 0.00848
4675.0 0.0083
4680.0 0.00812
4685.0 0.00796
4690.0 0.00782
4695.0 0.0077
4700.0 0.00759
4705.0 0.00751
4710.0 0.00744
4715.0 0.00739
4720.0 0.00735
4725.0 0.00732
4730.0 0.0073
4735.0 0.00728
4740.0 0.00726
4745.0 0.00723
4750.0 0.00719
4755.0 0.00712
4760.0 0.00705
4765.0 0.00694
4770.0 0.00683
4775.0 0.00669
4780.0 0.00656
4785.0 0.00642
4790.0 0.00628
4795.0 0.00616
4800.0 0.00604
4805.0 0.00594
4810.0 0.00584
4815.0 0.00577
4820.0 0.0057
4825.0 0.00564
4830.0 0.00559
4835.0 0.00556
4840.0 0.00553
4845.0 0.00552
4850.0 0.00551
4855.0 0.0055
4860.0 0.00551
4865.0 0.00552
4870.0 0.00553
4875.0 0.00554
4880.0 0.00556
4885.0 0.00559
4890.0 0.00561
4895.0 0.00563
4900.0 0.00565
4905.0 0.00568
4910.0 0.0057
4915.0 0.00572
4920.0 0.00573
4925.0 0.00575
4930.0 0.00576
4935.0 0.00577
4940.0 0.00577
4945.0 0.00578
4950.0 0.00578
4955.0 0.00578
4960.0 0.00579
4965.0 0.00579
4970.0 0.00579
4975.0 0.0058
4980.0 0.00581
4985.0 0.00582
4990.0 0.00583
4995.0 0.00585
5000.0 0.00587
5005.0 0.00589
5010.0 0.00592
5015.0 0.00595
5020.0 0.00599
5025.0 0.00603
5030.0 0.00607
5035.0 0.00611
5040.0 0.00616
5045.0 0.00621
5050.0 0.00626
5055.0 0.00631
5060.0 0.00636
5065.0 0.00642
5070.0 0.00648
5075.0 0.00653
5080.0 0.00659
5085.0 0.00665
5090.0 0.0067
5095.0 0.00676
5100.0 0.00682
5105.0 0.00687
5110.0 0.00693
5115.0 0.00699
5120.0 0.00705
5125.0 0.00711
5130.0 0.00717
5135.0 0.00723
5140.0 0.00729
5145.0 0.00735
5150.0 0.00742
5155.0 0.00748
5160.0 0.00755
5165.0 0.00762
5170.0 0.00768
5175.0 0.00775
5180.0 0.00782
5185.0 0.00789
5190.0 0.00796
5195.0 0.00803
5200.0 0.0081
5205.0 0.00816
5210.0 0.00823
5215.0 0.00829
5220.0 0.00835
5225.0 0.0084
5230.0 0.00845
5235.0 0.00849
5240.0 0.00853
5245.0 0.00857
5250.0 0.00859
5255.0 0.00862
5260.0 0.00863
5265.0 0.00864
5270.0 0.00864
5275.0 0.00864
5280.0 0.00864
5285.0 0.00863
5290.0 0.00862
5295.0 0.0086
5300.0 0.00858
5305.0 0.00856
5310.0 0.00854
5315.0 0.00852
5320.0 0.0085
5325.0 0.00847
5330.0 0.00844
5335.0 0.00841
5340.0 0.00838
5345.0 0.00835
5350.0 0.00831
5355.0 0.00827
5360.0 0.00823
5365.0 0.00818
5370.0 0.00813
5375.0 0.00809
5380.0 0.00804
5385.0 0.00799
5390.0 0.00794
5395.0 0.00789
5400.0 0.00785
5405.0 0.0078
5410.0 0.00776
5415.0 0.00772
5420.0 0.00768
5425.0 0.00764
5430.0 0.0076
5435.0 0.00757
5440.0 0.00753
5445.0 0.00749
5450.0 0.00744
5455.0 0.0074
5460.0 0.00735
5465.0 0.00731
5470.0 0.00726
5475.0 0.00721
5480.0 0.00716
5485.0 0.0071
5490.0 0.00705
5495.0 0.007
5500.0 0.00694
5505.0 0.00689
5510.0 0.00684
5515.0 0.00678
5520.0 0.00673
5525.0 0.00668
5530.0 0.00664
5535.0 0.00659
5540.0 0.00654
5545.0 0.0065
5550.0 0.00645
5555.0 0.00641
5560.0 0.00637
5565.0 0.00633
5570.0 0.0063
5575.0 0.00626
5580.0 0.00623
5585.0 0.00619
5590.0 0.00616
5595.0 0.00614
5600.0 0.00611
5605.0 0.00609
5610.0 0.00607
5615.0 0.00605
5620.0 0.00604
5625.0 0.00602
5630.0 0.00602
5635.0 0.00601
5640.0 0.00602
5645.0 0.00602
5650.0 0.00603
5655.0 0.00604
5660.0 0.00606
5665.0 0.00608
5670.0 0.00611
5675.0 0.00614
5680.0 0.00617
5685.0 0.00621
5690.0 0.00625
5695.0 0.00629
5700.0 0.00633
5705.0 0.00638
5710.0 0.00642
5715.0 0.00647
5720.0 0.00652
5725.0 0.00657
5730.0 0.00662
5735.0 0.00667
5740.0 0.00673
5745.0 0.00678
5750.0 0.00684
5755.0 0.00689
5760.0 0.00695
5765.0 0.00701
5770.0 0.00707
5775.0 0.00713
5780.0 0.00719
5785.0 0.00725
5790.0 0.00731
5795.0 0.00737
5800.0 0.00743
5805.0 0.00748
5810.0 0.00753
5815.0 0.00758
5820.0 0.00763
5825.0 0.00767
5830.0 0.0077
5835.0 0.00773
5840.0 0.00775
5845.0 0.00777
5850.0 0.00778
5855.0 0.00779
5860.0 0.00779
5865.0 0.00779
5870.0 0.00778
5875.0 0.00777
5880.0 0.00776
5885.0 0.00775
5890.0 0.00774
5895.0 0.00772
5900.0 0.0077
5905.0 0.00768
5910.0 0.00766
5915.0 0.00764
5920.0 0.00762
5925.0 0.00759
5930.0 0.00757
5935.0 0.00754
5940.0 0.0075
5945.0 0.00747
5950.0 0.00743
5955.0 0.00739
5960.0 0.00734
5965.0 0.00729
5970.0 0.00724
5975.0 0.00718
5980.0 0.00713
5985.0 0.00707
5990.0 0.007
5995.0 0.00694
6000.0 0.00688
6005.0 0.00681
6010.0 0.00675
6015.0 0.00668
6020.0 0.00661
6025.0 0.00655
6030.0 0.00648
6035.0 0.00641
6040.0 0.00635
6045.0 0.00628
6050.0 0.00621
6055.0 0.00614
6060.0 0.00607
6065.0 0.006
6070.0 0.00592
6075.0 0.00584
6080.0 0.00577
6085.0 0.00569
6090.0 0.00561
6095.0 0.00552
6100.0 0.00544
6105.0 0.00536
6110.0 0.00529
6115.0 0.00521
6120.0 0.00515
6125.0 0.00508
6130.0 0.00503
6135.0 0.00499
6140.0 0.00496
6145.0 0.00495
6150.0 0.00495
6155.0 0.00496
6160.0 0.00499
6165.0 0.00504
6170.0 0.00511
6175.0 0.00519
6180.0 0.00528
6185.0 0.00538
6190.0 0.00548
6195.0 0.00557
6200.0 0.00565
6205.0 0.0057
6210.0 0.00574
6215.0 0.00574
6220.0 0.00571
6225.0 0.00566
6230.0 0.0056
6235.0 0.00553
6240.0 0.00545
6245.0 0.00538
6250.0 0.00532
6255.0 0.00527
6260.0 0.00522
6265.0 0.00519
6270.0 0.00517
6275.0 0.00517
6280.0 0.00517
6285.0 0.00518
6290.0 0.0052
6295.0 0.00522
6300.0 0.00525
6305.0 0.00528
6310.0 0.00531
6315.0 0.00534
6320.0 0.00536
6325.0 0.00539
6330.0 0.00541
6335.0 0.00543
6340.0 0.00544
6345.0 0.00545
6350.0 0.00546
6355.0 0.00546
6360.0 0.00546
6365.0 0.00545
6370.0 0.00544
6375.0 0.00544
6380.0 0.00543
6385.0 0.00542
6390.0 0.00541
6395.0 0.0054
6400.0 0.00539
6405.0 0.00538
6410.0 0.00537
6415.0 0.00537
6420.0 0.00537
6425.0 0.00537
6430.0 0.00537
6435.0 0.00537
6440.0 0.00538
6445.0 0.00539
6450.0 0.0054
6455.0 0.00541
6460.0 0.00542
6465.0 0.00544
6470.0 0.00545
6475.0 0.00547
6480.0 0.00548
6485.0 0.00549
6490.0 0.0055
6495.0 0.00551
6500.0 0.00551
6505.0 0.0055
6510.0 0.0055
6515.0 0.00549
6520.0 0.00547
6525.0 0.00545
6530.0 0.00544
6535.0 0.00542
6540.0 0.0054
6545.0 0.00538
6550.0 0.00536
6555.0 0.00535
6560.0 0.00534
6565.0 0.00533
6570.0 0.00532
6575.0 0.00532
6580.0 0.00532
6585.0 0.00532
6590.0 0.00533
6595.0 0.00533
6600.0 0.00534
6605.0 0.00535
6610.0 0.00536
6615.0 0.00537
6620.0 0.00539
6625.0 0.0054
6630.0 0.0054
6635.0 0.00541
6640.0 0.00542
6645.0 0.00542
6650.0 0.00542
6655.0 0.00541
6660.0 0.00541
6665.0 0.0054
6670.0 0.00539
6675.0 0.00537
6680.0 0.00536
6685.0 0.00534
6690.0 0.00532
6695.0 0.00529
6700.0 0.00527
6705.0 0.00524
6710.0 0.00521
6715.0 0.00518
6720.0 0.00515
6725.0 0.00512
6730.0 0.00509
6735.0 0.00506
6740.0 0.00503
6745.0 0.00499
6750.0 0.00496
6755.0 0.00493
6760.0 0.0049
6765.0 0.00488
6770.0 0.00485
6775.0 0.00482
6780.0 0.0048
6785.0 0.00477
6790.0 0.00475
6795.0 0.00472
6800.0 0.0047
6805.0 0.00468
6810.0 0.00466
6815.0 0.00464
6820.0 0.00462
6825.0 0.00461
6830.0 0.00459
6835.0 0.00457
6840.0 0.00456
6845.0 0.00454
6850.0 0.00453
6855.0 0.00452
6860.0 0.0045
6865.0 0.00449
6870.0 0.00448
6875.0 0.00447
6880.0 0.00446
6885.0 0.00445
6890.0 0.00444
6895.0 0.00443
6900.0 0.00442
6905.0 0.00441
6910.0 0.00441
6915.0 0.0044
6920.0 0.0044
6925.0 0.00439
6930.0 0.00439
6935.0 0.00438
6940.0 0.00438
6945.0 0.00438
6950.0 0.00437
6955.0 0.00436
6960.0 0.00436
6965.0 0.00435
6970.0 0.00435
6975.0 0.00434
6980.0 0.00433
6985.0 0.00433
6990.0 0.00432
6995.0 0.00432
7000.0 0.00431
7005.0 0.00431
7010.0 0.0043
7015.0 0.0043
7020.0 0.00429
7025.0 0.00429
7030.0 0.00428
7035.0 0.00428
7040.0 0.00428
7045.0 0.00427
7050.0 0.00427
7055.0 0.00426
7060.0 0.00425
7065.0 0.00424
7070.0 0.00424
7075.0 0.00423
7080.0 0.00421
7085.0 0.0042
7090.0 0.00419
7095.0 0.00417
7100.0 0.00416
7105.0 0.00414
7110.0 0.00413
7115.0 0.00411
7120.0 0.0041
7125.0 0.00408
7130.0 0.00407
7135.0 0.00405
7140.0 0.00404
7145.0 0.00402
7150.0 0.00401
7155.0 0.004
7160.0 0.00399
7165.0 0.00397
7170.0 0.00396
7175.0 0.00395
7180.0 0.00394
7185.0 0.00392
7190.0 0.00391
7195.0 0.0039
7200.0 0.00388
7205.0 0.00386
7210.0 0.00385
7215.0 0.00383
7220.0 0.00381
7225.0 0.00379
7230.0 0.00377
7235.0 0.00375
7240.0 0.00373
7245.0 0.00371
7250.0 0.0037
7255.0 0.00368
7260.0 0.00366
7265.0 0.00364
7270.0 0.00363
7275.0 0.00361
7280.0 0.0036
7285.0 0.00358
7290.0 0.00357
7295.0 0.00356
7300.0 0.00355
7305.0 0.00354
7310.0 0.00354
7315.0 0.00353
7320.0 0.00353
7325.0 0.00352
7330.0 0.00352
7335.0 0.00352
7340.0 0.00352
7345.0 0.00352
7350.0 0.00352
7355.0 0.00352
7360.0 0.00352
7365.0 0.00352
7370.0 0.00352
7375.0 0.00352
7380.0 0.00352
7385.0 0.00351
7390.0 0.00351
7395.0 0.0035
7400.0 0.00349
7405.0 0.00348
7410.0 0.00347
7415.0 0.00346
7420.0 0.00345
7425.0 0.00344
7430.0 0.00343
7435.0 0.00342
7440.0 0.0034
7445.0 0.00339
7450.0 0.00338
7455.0 0.00337
7460.0 0.00335
7465.0 0.00334
7470.0 0.00333
7475.0 0.00332
7480.0 0.00331
7485.0 0.00329
7490.0 0.00328
7495.0 0.00327
7500.0 0.00326
7505.0 0.00325
7510.0 0.00325
7515.0 0.00324
7520.0 0.00323
7525.0 0.00322
7530.0 0.00322
7535.0 0.00322
7540.0 0.00321
7545.0 0.00321
7550.0 0.00321
7555.0 0.00321
7560.0 0.00321
7565.0 0.00321
7570.0 0.00321
7575.0 0.00321
7580.0 0.00321
7585.0 0.0032
7590.0 0.00319
7595.0 0.00318
7600.0 0.00317
7605.0 0.00316
7610.0 0.00315
7615.0 0.00314
7620.0 0.00313
7625.0 0.00311
7630.0 0.0031
7635.0 0.00309
7640.0 0.00308
7645.0 0.00307
7650.0 0.00305
7655.0 0.00304
7660.0 0.00303
7665.0 0.00302
7670.0 0.00301
7675.0 0.003
7680.0 0.003
7685.0 0.00299
7690.0 0.00298
7695.0 0.00298
7700.0 0.00297
7705.0 0.00297
7710.0 0.00297
7715.0 0.00297
7720.0 0.00297
7725.0 0.00297
7730.0 0.00297
7735.0 0.00297
7740.0 0.00298
7745.0 0.00298
7750.0 0.00298
7755.0 0.00298
7760.0 0.00298
7765.0 0.00298
7770.0 0.00297
7775.0 0.00297
7780.0 0.00296
7785.0 0.00295
7790.0 0.00294
7795.0 0.00293
7800.0 0.00291
7805.0 0.0029
7810.0 0.00288
7815.0 0.00286
7820.0 0.00284
7825.0 0.00282
7830.0 0.00279
7835.0 0.00277
7840.0 0.00274
7845.0 0.00272
7850.0 0.0027
7855.0 0.00267
7860.0 0.00265
7865.0 0.00262
7870.0 0.0026
7875.0 0.00258
7880.0 0.00256
7885.0 0.00254
7890.0 0.00252
7895.0 0.00251
7900.0 0.0025
7905.0 0.00248
7910.0 0.00248
7915.0 0.00247
7920.0 0.00247
7925.0 0.00246
7930.0 0.00246
7935.0 0.00247
7940.0 0.00247
7945.0 0.00248
7950.0 0.00248
7955.0 0.00249
7960.0 0.0025
7965.0 0.00251
7970.0 0.00251
7975.0 0.00252
7980.0 0.00251
7985.0 0.00251
7990.0 0.0025
7995.0 0.00248
8000.0 0.00245
8005.0 0.00242
8010.0 0.00238
8015.0 0.00233
8020.0 0.00228
8025.0 0.00223
8030.0 0.00217
8035.0 0.00211
8040.0 0.00206
8045.0 0.002
8050.0 0.00195
8055.0 0.00189
8060.0 0.00184
8065.0 0.00179
8070.0 0.00175
8075.0 0.0017
8080.0 0.00166
8085.0 0.00163
8090.0 0.00159
8095.0 0.00156
8100.0 0.00153
8105.0 0.0015
8110.0 0.00147
8115.0 0.00145
8120.0 0.00143
8125.0 0.00141
8130.0 0.00139
8135.0 0.00138
8140.0 0.00137
8145.0 0.00135
8150.0 0.00135
8155.0 0.00134
8160.0 0.00133
8165.0 0.00133
8170.0 0.00132
8175.0 0.00132
8180.0 0.00132
8185.0 0.00132
8190.0 0.00132
8195.0 0.00132
8200.0 0.00133
8205.0 0.00133
8210.0 0.00133
8215.0 0.00134
8220.0 0.00135
8225.0 0.00135
8230.0 0.00136
8235.0 0.00137
8240.0 0.00138
8245.0 0.00139
8250.0 0.0014
8255.0 0.00141
8260.0 0.00142
8265.0 0.00143
8270.0 0.00144
8275.0 0.00146
8280.0 0.00147
8285.0 0.00148
8290.0 0.00149
8295.0 0.0015
8300.0 0.00152
8305.0 0.00153
8310.0 0.00154
