#lamb flux
1605.0 2.2e-05
1610.0 2.17e-05
1615.0 2.14e-05
1620.0 2.11e-05
1625.0 2.08e-05
1630.0 2.06e-05
1635.0 2.03e-05
1640.0 2e-05
1645.0 1.98e-05
1650.0 1.95e-05
1655.0 1.93e-05
1660.0 1.9e-05
1665.0 1.87e-05
1670.0 1.85e-05
1675.0 1.82e-05
1680.0 1.8e-05
1685.0 1.77e-05
1690.0 1.75e-05
1695.0 1.73e-05
1700.0 1.7e-05
1705.0 1.68e-05
1710.0 1.66e-05
1715.0 1.63e-05
1720.0 1.61e-05
1725.0 1.59e-05
1730.0 1.57e-05
1735.0 1.54e-05
1740.0 1.52e-05
1745.0 1.5e-05
1750.0 1.48e-05
1755.0 1.46e-05
1760.0 1.44e-05
1765.0 1.42e-05
1770.0 1.4e-05
1775.0 1.38e-05
1780.0 1.36e-05
1785.0 1.34e-05
1790.0 1.32e-05
1795.0 1.3e-05
1800.0 1.28e-05
1805.0 1.27e-05
1810.0 1.25e-05
1815.0 1.23e-05
1820.0 1.21e-05
1825.0 1.2e-05
1830.0 1.18e-05
1835.0 1.16e-05
1840.0 1.14e-05
1845.0 1.13e-05
1850.0 1.11e-05
1855.0 1.1e-05
1860.0 1.08e-05
1865.0 1.07e-05
1870.0 1.05e-05
1875.0 1.04e-05
1880.0 1.02e-05
1885.0 1.01e-05
1890.0 9.96e-06
1895.0 9.82e-06
1900.0 9.69e-06
1905.0 9.56e-06
1910.0 9.42e-06
1915.0 9.29e-06
1920.0 9.17e-06
1925.0 9.05e-06
1930.0 8.94e-06
1935.0 8.83e-06
1940.0 8.71e-06
1945.0 8.6e-06
1950.0 8.49e-06
1955.0 8.37e-06
1960.0 8.27e-06
1965.0 8.18e-06
1970.0 8.08e-06
1975.0 7.99e-06
1980.0 7.89e-06
1985.0 7.8e-06
1990.0 7.71e-06
1995.0 7.61e-06
2000.0 7.53e-06
2005.0 7.46e-06
2010.0 7.38e-06
2015.0 7.31e-06
2020.0 7.24e-06
2025.0 7.16e-06
2030.0 7.09e-06
2035.0 7.01e-06
2040.0 6.95e-06
2045.0 6.9e-06
2050.0 6.84e-06
2055.0 6.79e-06
2060.0 6.74e-06
2065.0 6.68e-06
2070.0 6.63e-06
2075.0 6.57e-06
2080.0 6.53e-06
2085.0 6.5e-06
2090.0 6.46e-06
2095.0 6.43e-06
2100.0 6.39e-06
2105.0 6.36e-06
2110.0 6.32e-06
2115.0 6.29e-06
2120.0 6.27e-06
2125.0 6.25e-06
2130.0 6.24e-06
2135.0 6.22e-06
2140.0 6.21e-06
2145.0 6.19e-06
2150.0 6.18e-06
2155.0 6.16e-06
2160.0 6.16e-06
2165.0 6.16e-06
2170.0 6.17e-06
2175.0 6.17e-06
2180.0 6.18e-06
2185.0 6.18e-06
2190.0 6.19e-06
2195.0 6.19e-06
2200.0 6.21e-06
2205.0 6.24e-06
2210.0 6.26e-06
2215.0 6.29e-06
2220.0 6.31e-06
2225.0 6.34e-06
2230.0 6.37e-06
2235.0 6.39e-06
2240.0 6.43e-06
2245.0 6.48e-06
2250.0 6.53e-06
2255.0 6.58e-06
2260.0 6.62e-06
2265.0 6.67e-06
2270.0 6.72e-06
2275.0 6.77e-06
2280.0 6.83e-06
2285.0 6.9e-06
2290.0 6.97e-06
2295.0 7.04e-06
2300.0 7.11e-06
2305.0 7.18e-06
2310.0 7.25e-06
2315.0 7.32e-06
2320.0 7.41e-06
2325.0 7.5e-06
2330.0 7.59e-06
2335.0 7.68e-06
2340.0 7.77e-06
2345.0 7.86e-06
2350.0 7.95e-06
2355.0 8.04e-06
2360.0 8.14e-06
2365.0 8.25e-06
2370.0 8.36e-06
2375.0 8.47e-06
2380.0 8.57e-06
2385.0 8.68e-06
2390.0 8.79e-06
2395.0 8.89e-06
2400.0 9.01e-06
2405.0 9.13e-06
2410.0 9.24e-06
2415.0 9.36e-06
2420.0 9.48e-06
2425.0 9.6e-06
2430.0 9.71e-06
2435.0 9.83e-06
2440.0 9.95e-06
2445.0 1.01e-05
2450.0 1.02e-05
2455.0 1.03e-05
2460.0 1.04e-05
2465.0 1.06e-05
2470.0 1.07e-05
2475.0 1.08e-05
2480.0 1.09e-05
2485.0 1.1e-05
2490.0 1.12e-05
2495.0 1.13e-05
2500.0 1.14e-05
2505.0 1.15e-05
2510.0 1.16e-05
2515.0 1.18e-05
2520.0 1.19e-05
2525.0 1.2e-05
2530.0 1.21e-05
2535.0 1.22e-05
2540.0 1.23e-05
2545.0 1.24e-05
2550.0 1.25e-05
2555.0 1.27e-05
2560.0 1.28e-05
2565.0 1.29e-05
2570.0 1.3e-05
2575.0 1.31e-05
2580.0 1.32e-05
2585.0 1.33e-05
2590.0 1.34e-05
2595.0 1.35e-05
2600.0 1.37e-05
2605.0 1.38e-05
2610.0 1.39e-05
2615.0 1.4e-05
2620.0 1.41e-05
2625.0 1.42e-05
2630.0 1.43e-05
2635.0 1.45e-05
2640.0 1.46e-05
2645.0 1.47e-05
2650.0 1.49e-05
2655.0 1.5e-05
2660.0 1.51e-05
2665.0 1.53e-05
2670.0 1.54e-05
2675.0 1.56e-05
2680.0 1.57e-05
2685.0 1.59e-05
2690.0 1.61e-05
2695.0 1.63e-05
2700.0 1.65e-05
2705.0 1.66e-05
2710.0 1.68e-05
2715.0 1.7e-05
2720.0 1.73e-05
2725.0 1.75e-05
2730.0 1.78e-05
2735.0 1.8e-05
2740.0 1.83e-05
2745.0 1.86e-05
2750.0 1.88e-05
2755.0 1.91e-05
2760.0 1.95e-05
2765.0 1.98e-05
2770.0 2.02e-05
2775.0 2.06e-05
2780.0 2.1e-05
2785.0 2.14e-05
2790.0 2.17e-05
2795.0 2.21e-05
2800.0 2.26e-05
2805.0 2.32e-05
2810.0 2.37e-05
2815.0 2.43e-05
2820.0 2.48e-05
2825.0 2.54e-05
2830.0 2.59e-05
2835.0 2.65e-05
2840.0 2.72e-05
2845.0 2.8e-05
2850.0 2.88e-05
2855.0 2.96e-05
2860.0 3.04e-05
2865.0 3.12e-05
2870.0 3.2e-05
2875.0 3.28e-05
2880.0 3.38e-05
2885.0 3.49e-05
2890.0 3.6e-05
2895.0 3.71e-05
2900.0 3.82e-05
2905.0 3.93e-05
2910.0 4.04e-05
2915.0 4.15e-05
2920.0 4.3e-05
2925.0 4.45e-05
2930.0 4.6e-05
2935.0 4.75e-05
2940.0 4.9e-05
2945.0 5.05e-05
2950.0 5.2e-05
2955.0 5.36e-05
2960.0 5.55e-05
2965.0 5.75e-05
2970.0 5.95e-05
2975.0 6.15e-05
2980.0 6.35e-05
2985.0 6.55e-05
2990.0 6.75e-05
2995.0 6.95e-05
3000.0 7.18e-05
3005.0 7.41e-05
3010.0 7.66e-05
3015.0 7.91e-05
3020.0 8.17e-05
3025.0 8.43e-05
3030.0 8.71e-05
3035.0 8.98e-05
3040.0 9.27e-05
3045.0 9.57e-05
3050.0 9.87e-05
3055.0 0.000102
3060.0 0.000105
3065.0 0.000108
3070.0 0.000112
3075.0 0.000115
3080.0 0.000119
3085.0 0.000122
3090.0 0.000126
3095.0 0.000129
3100.0 0.000133
3105.0 0.000137
3110.0 0.000141
3115.0 0.000145
3120.0 0.000149
3125.0 0.000153
3130.0 0.000157
3135.0 0.000162
3140.0 0.000166
3145.0 0.00017
3150.0 0.000175
3155.0 0.000179
3160.0 0.000184
3165.0 0.000188
3170.0 0.000193
3175.0 0.000198
3180.0 0.000202
3185.0 0.000207
3190.0 0.000212
3195.0 0.000216
3200.0 0.000221
3205.0 0.000226
3210.0 0.000231
3215.0 0.000236
3220.0 0.00024
3225.0 0.000245
3230.0 0.00025
3235.0 0.000255
3240.0 0.00026
3245.0 0.000264
3250.0 0.000269
3255.0 0.000274
3260.0 0.000278
3265.0 0.000283
3270.0 0.000287
3275.0 0.000292
3280.0 0.000296
3285.0 0.000301
3290.0 0.000305
3295.0 0.000309
3300.0 0.000314
3305.0 0.000318
3310.0 0.000322
3315.0 0.000326
3320.0 0.00033
3325.0 0.000334
3330.0 0.000338
3335.0 0.000342
3340.0 0.000346
3345.0 0.00035
3350.0 0.000354
3355.0 0.000358
3360.0 0.000362
3365.0 0.000365
3370.0 0.000369
3375.0 0.000373
3380.0 0.000376
3385.0 0.00038
3390.0 0.000384
3395.0 0.000387
3400.0 0.000391
3405.0 0.000394
3410.0 0.000397
3415.0 0.000401
3420.0 0.000404
3425.0 0.000408
3430.0 0.000411
3435.0 0.000414
3440.0 0.000417
3445.0 0.000421
3450.0 0.000424
3455.0 0.000427
3460.0 0.00043
3465.0 0.000433
3470.0 0.000436
3475.0 0.000439
3480.0 0.000442
3485.0 0.000445
3490.0 0.000448
3495.0 0.000451
3500.0 0.000454
3505.0 0.000456
3510.0 0.000459
3515.0 0.000462
3520.0 0.000465
3525.0 0.000468
3530.0 0.00047
3535.0 0.000473
3540.0 0.000476
3545.0 0.000479
3550.0 0.000482
3555.0 0.000485
3560.0 0.000488
3565.0 0.000491
3570.0 0.000494
3575.0 0.000498
3580.0 0.000501
3585.0 0.000505
3590.0 0.000508
3595.0 0.000512
3600.0 0.000516
3605.0 0.000521
3610.0 0.000525
3615.0 0.00053
3620.0 0.000535
3625.0 0.00054
3630.0 0.000546
3635.0 0.000552
3640.0 0.000559
3645.0 0.000566
3650.0 0.000574
3655.0 0.000581
3660.0 0.00059
3665.0 0.000599
3670.0 0.000608
3675.0 0.000618
3680.0 0.000628
3685.0 0.000639
3690.0 0.000651
3695.0 0.000662
3700.0 0.000675
3705.0 0.000687
3710.0 0.0007
3715.0 0.000714
3720.0 0.000727
3725.0 0.000741
3730.0 0.000755
3735.0 0.000769
3740.0 0.000783
3745.0 0.000797
3750.0 0.000812
3755.0 0.000826
3760.0 0.000839
3765.0 0.000853
3770.0 0.000867
3775.0 0.00088
3780.0 0.000894
3785.0 0.000907
3790.0 0.00092
3795.0 0.000933
3800.0 0.000946
3805.0 0.000959
3810.0 0.000972
3815.0 0.000985
3820.0 0.000999
3825.0 0.00101
3830.0 0.00103
3835.0 0.00104
3840.0 0.00106
3845.0 0.00108
3850.0 0.00109
3855.0 0.00111
3860.0 0.00113
3865.0 0.00115
3870.0 0.00117
3875.0 0.0012
3880.0 0.00122
3885.0 0.00125
3890.0 0.00128
3895.0 0.0013
3900.0 0.00133
3905.0 0.00136
3910.0 0.0014
3915.0 0.00143
3920.0 0.00147
3925.0 0.0015
3930.0 0.00154
3935.0 0.00157
3940.0 0.00161
3945.0 0.00165
3950.0 0.00168
3955.0 0.00172
3960.0 0.00175
3965.0 0.00179
3970.0 0.00182
3975.0 0.00186
3980.0 0.00189
3985.0 0.00192
3990.0 0.00195
3995.0 0.00198
4000.0 0.00201
4005.0 0.00203
4010.0 0.00205
4015.0 0.00207
4020.0 0.00209
4025.0 0.00211
4030.0 0.00213
4035.0 0.00214
4040.0 0.00215
4045.0 0.00216
4050.0 0.00217
4055.0 0.00218
4060.0 0.00218
4065.0 0.00218
4070.0 0.00218
4075.0 0.00218
4080.0 0.00217
4085.0 0.00217
4090.0 0.00216
4095.0 0.00215
4100.0 0.00213
4105.0 0.00212
4110.0 0.0021
4115.0 0.00208
4120.0 0.00206
4125.0 0.00204
4130.0 0.00201
4135.0 0.00199
4140.0 0.00196
4145.0 0.00193
4150.0 0.00191
4155.0 0.00188
4160.0 0.00185
4165.0 0.00182
4170.0 0.0018
4175.0 0.00177
4180.0 0.00174
4185.0 0.00172
4190.0 0.0017
4195.0 0.00167
4200.0 0.00165
4205.0 0.00163
4210.0 0.00162
4215.0 0.0016
4220.0 0.00159
4225.0 0.00158
4230.0 0.00157
4235.0 0.00156
4240.0 0.00155
4245.0 0.00155
4250.0 0.00155
4255.0 0.00155
4260.0 0.00155
4265.0 0.00156
4270.0 0.00157
4275.0 0.00158
4280.0 0.00159
4285.0 0.00161
4290.0 0.00162
4295.0 0.00164
4300.0 0.00166
4305.0 0.00168
4310.0 0.0017
4315.0 0.00172
4320.0 0.00174
4325.0 0.00176
4330.0 0.00179
4335.0 0.00181
4340.0 0.00182
4345.0 0.00184
4350.0 0.00186
4355.0 0.00187
4360.0 0.00188
4365.0 0.00189
4370.0 0.00189
4375.0 0.00189
4380.0 0.00189
4385.0 0.00189
4390.0 0.00188
4395.0 0.00186
4400.0 0.00185
4405.0 0.00183
4410.0 0.00181
4415.0 0.00179
4420.0 0.00177
4425.0 0.00174
4430.0 0.00172
4435.0 0.0017
4440.0 0.00168
4445.0 0.00166
4450.0 0.00164
4455.0 0.00162
4460.0 0.00161
4465.0 0.0016
4470.0 0.00159
4475.0 0.00158
4480.0 0.00158
4485.0 0.00158
4490.0 0.00159
4495.0 0.0016
4500.0 0.00161
4505.0 0.00163
4510.0 0.00165
4515.0 0.00167
4520.0 0.0017
4525.0 0.00173
4530.0 0.00177
4535.0 0.00181
4540.0 0.00185
4545.0 0.00189
4550.0 0.00194
4555.0 0.00199
4560.0 0.00205
4565.0 0.0021
4570.0 0.00215
4575.0 0.00221
4580.0 0.00226
4585.0 0.00232
4590.0 0.00237
4595.0 0.00243
4600.0 0.00248
4605.0 0.00253
4610.0 0.00257
4615.0 0.00261
4620.0 0.00265
4625.0 0.00269
4630.0 0.00272
4635.0 0.00275
4640.0 0.00277
4645.0 0.00279
4650.0 0.0028
4655.0 0.00281
4660.0 0.00281
4665.0 0.00281
4670.0 0.0028
4675.0 0.00279
4680.0 0.00278
4685.0 0.00276
4690.0 0.00274
4695.0 0.00272
4700.0 0.00269
4705.0 0.00267
4710.0 0.00264
4715.0 0.00261
4720.0 0.00258
4725.0 0.00256
4730.0 0.00253
4735.0 0.0025
4740.0 0.00248
4745.0 0.00246
4750.0 0.00244
4755.0 0.00242
4760.0 0.00241
4765.0 0.0024
4770.0 0.00239
4775.0 0.00238
4780.0 0.00238
4785.0 0.00239
4790.0 0.00239
4795.0 0.0024
4800.0 0.00242
4805.0 0.00243
4810.0 0.00245
4815.0 0.00248
4820.0 0.0025
4825.0 0.00253
4830.0 0.00256
4835.0 0.0026
4840.0 0.00263
4845.0 0.00267
4850.0 0.00271
4855.0 0.00275
4860.0 0.00279
4865.0 0.00283
4870.0 0.00287
4875.0 0.00291
4880.0 0.00296
4885.0 0.003
4890.0 0.00304
4895.0 0.00307
4900.0 0.00311
4905.0 0.00314
4910.0 0.00318
4915.0 0.00321
4920.0 0.00323
4925.0 0.00326
4930.0 0.00328
4935.0 0.0033
4940.0 0.00332
4945.0 0.00333
4950.0 0.00334
4955.0 0.00335
4960.0 0.00335
4965.0 0.00335
4970.0 0.00335
4975.0 0.00334
4980.0 0.00333
4985.0 0.00332
4990.0 0.0033
4995.0 0.00328
5000.0 0.00325
5005.0 0.00322
5010.0 0.00319
5015.0 0.00316
5020.0 0.00312
5025.0 0.00308
5030.0 0.00303
5035.0 0.00299
5040.0 0.00294
5045.0 0.00289
5050.0 0.00285
5055.0 0.0028
5060.0 0.00275
5065.0 0.0027
5070.0 0.00266
5075.0 0.00261
5080.0 0.00257
5085.0 0.00253
5090.0 0.00249
5095.0 0.00246
5100.0 0.00243
5105.0 0.0024
5110.0 0.00237
5115.0 0.00235
5120.0 0.00233
5125.0 0.00232
5130.0 0.0023
5135.0 0.00229
5140.0 0.00228
5145.0 0.00228
5150.0 0.00227
5155.0 0.00227
5160.0 0.00227
5165.0 0.00227
5170.0 0.00228
5175.0 0.00228
5180.0 0.00229
5185.0 0.00229
5190.0 0.0023
5195.0 0.00231
5200.0 0.00231
5205.0 0.00232
5210.0 0.00233
5215.0 0.00234
5220.0 0.00235
5225.0 0.00236
5230.0 0.00238
5235.0 0.00239
5240.0 0.0024
5245.0 0.00241
5250.0 0.00243
5255.0 0.00244
5260.0 0.00245
5265.0 0.00247
5270.0 0.00248
5275.0 0.0025
5280.0 0.00251
5285.0 0.00253
5290.0 0.00254
5295.0 0.00255
5300.0 0.00257
5305.0 0.00258
5310.0 0.00259
5315.0 0.0026
5320.0 0.00261
5325.0 0.00262
5330.0 0.00262
5335.0 0.00263
5340.0 0.00263
5345.0 0.00263
5350.0 0.00263
5355.0 0.00263
5360.0 0.00263
5365.0 0.00262
5370.0 0.00261
5375.0 0.0026
5380.0 0.00259
5385.0 0.00258
5390.0 0.00257
5395.0 0.00255
5400.0 0.00254
5405.0 0.00252
5410.0 0.00251
5415.0 0.00249
5420.0 0.00247
5425.0 0.00245
5430.0 0.00244
5435.0 0.00242
5440.0 0.0024
5445.0 0.00239
5450.0 0.00237
5455.0 0.00235
5460.0 0.00234
5465.0 0.00233
5470.0 0.00232
5475.0 0.00231
5480.0 0.0023
5485.0 0.00229
5490.0 0.00228
5495.0 0.00228
5500.0 0.00227
5505.0 0.00227
5510.0 0.00227
5515.0 0.00226
5520.0 0.00226
5525.0 0.00226
5530.0 0.00226
5535.0 0.00225
5540.0 0.00225
5545.0 0.00225
5550.0 0.00225
5555.0 0.00224
5560.0 0.00224
5565.0 0.00224
5570.0 0.00223
5575.0 0.00223
5580.0 0.00223
5585.0 0.00222
5590.0 0.00222
5595.0 0.00222
5600.0 0.00222
5605.0 0.00222
5610.0 0.00222
5615.0 0.00222
5620.0 0.00222
5625.0 0.00222
5630.0 0.00222
5635.0 0.00222
5640.0 0.00222
5645.0 0.00222
5650.0 0.00223
5655.0 0.00223
5660.0 0.00223
5665.0 0.00222
5670.0 0.00222
5675.0 0.00222
5680.0 0.00221
5685.0 0.00221
5690.0 0.0022
5695.0 0.00219
5700.0 0.00218
5705.0 0.00217
5710.0 0.00216
5715.0 0.00214
5720.0 0.00213
5725.0 0.00211
5730.0 0.0021
5735.0 0.00208
5740.0 0.00207
5745.0 0.00206
5750.0 0.00204
5755.0 0.00203
5760.0 0.00202
5765.0 0.002
5770.0 0.00199
5775.0 0.00199
5780.0 0.00198
5785.0 0.00197
5790.0 0.00197
5795.0 0.00197
5800.0 0.00197
5805.0 0.00197
5810.0 0.00198
5815.0 0.00198
5820.0 0.00199
5825.0 0.002
5830.0 0.00201
5835.0 0.00203
5840.0 0.00204
5845.0 0.00206
5850.0 0.00208
5855.0 0.0021
5860.0 0.00211
5865.0 0.00213
5870.0 0.00215
5875.0 0.00217
5880.0 0.00219
5885.0 0.00221
5890.0 0.00222
5895.0 0.00224
5900.0 0.00225
5905.0 0.00226
5910.0 0.00227
5915.0 0.00228
5920.0 0.00229
5925.0 0.00229
5930.0 0.0023
5935.0 0.0023
5940.0 0.0023
5945.0 0.0023
5950.0 0.00229
5955.0 0.00229
5960.0 0.00228
5965.0 0.00228
5970.0 0.00227
5975.0 0.00226
5980.0 0.00225
5985.0 0.00225
5990.0 0.00224
5995.0 0.00223
6000.0 0.00222
6005.0 0.00221
6010.0 0.0022
6015.0 0.00219
6020.0 0.00218
6025.0 0.00217
6030.0 0.00217
6035.0 0.00216
6040.0 0.00215
6045.0 0.00215
6050.0 0.00214
6055.0 0.00214
6060.0 0.00213
6065.0 0.00213
6070.0 0.00212
6075.0 0.00212
6080.0 0.00212
6085.0 0.00212
6090.0 0.00212
6095.0 0.00212
6100.0 0.00212
6105.0 0.00212
6110.0 0.00213
6115.0 0.00213
6120.0 0.00213
6125.0 0.00214
6130.0 0.00214
6135.0 0.00214
6140.0 0.00215
6145.0 0.00215
6150.0 0.00216
6155.0 0.00216
6160.0 0.00217
6165.0 0.00217
6170.0 0.00218
6175.0 0.00218
6180.0 0.00218
6185.0 0.00219
6190.0 0.00219
6195.0 0.0022
6200.0 0.0022
6205.0 0.0022
6210.0 0.0022
6215.0 0.0022
6220.0 0.0022
6225.0 0.0022
6230.0 0.0022
6235.0 0.0022
6240.0 0.0022
6245.0 0.00219
6250.0 0.00219
6255.0 0.00218
6260.0 0.00217
6265.0 0.00216
6270.0 0.00216
6275.0 0.00214
6280.0 0.00213
6285.0 0.00212
6290.0 0.00211
6295.0 0.00209
6300.0 0.00208
6305.0 0.00206
6310.0 0.00204
6315.0 0.00202
6320.0 0.00199
6325.0 0.00197
6330.0 0.00194
6335.0 0.00191
6340.0 0.00188
6345.0 0.00184
6350.0 0.00181
6355.0 0.00177
6360.0 0.00173
6365.0 0.00169
6370.0 0.00165
6375.0 0.0016
6380.0 0.00156
6385.0 0.00152
6390.0 0.00147
6395.0 0.00144
6400.0 0.0014
6405.0 0.00136
6410.0 0.00133
6415.0 0.0013
6420.0 0.00127
6425.0 0.00125
6430.0 0.00123
6435.0 0.00122
6440.0 0.00121
6445.0 0.00121
6450.0 0.00121
6455.0 0.00122
6460.0 0.00123
6465.0 0.00124
6470.0 0.00126
6475.0 0.0013
6480.0 0.00133
6485.0 0.00137
6490.0 0.00141
6495.0 0.00147
6500.0 0.00153
6505.0 0.00159
6510.0 0.00166
6515.0 0.00174
6520.0 0.00182
6525.0 0.00191
6530.0 0.00199
6535.0 0.00208
6540.0 0.00217
6545.0 0.00226
6550.0 0.00235
6555.0 0.00244
6560.0 0.00252
6565.0 0.00259
6570.0 0.00266
6575.0 0.00271
6580.0 0.00276
6585.0 0.00279
6590.0 0.00281
6595.0 0.00282
6600.0 0.00283
6605.0 0.00281
6610.0 0.0028
6615.0 0.00277
6620.0 0.00274
6625.0 0.0027
6630.0 0.00266
6635.0 0.00261
6640.0 0.00257
6645.0 0.00252
6650.0 0.00246
6655.0 0.00241
6660.0 0.00236
6665.0 0.00232
6670.0 0.00227
6675.0 0.00222
6680.0 0.00218
6685.0 0.00214
6690.0 0.0021
6695.0 0.00207
6700.0 0.00203
6705.0 0.00201
6710.0 0.00198
6715.0 0.00195
6720.0 0.00193
6725.0 0.00191
6730.0 0.00189
6735.0 0.00187
6740.0 0.00186
6745.0 0.00184
6750.0 0.00183
6755.0 0.00182
6760.0 0.00181
6765.0 0.0018
6770.0 0.0018
6775.0 0.00179
6780.0 0.00178
6785.0 0.00178
6790.0 0.00177
6795.0 0.00177
6800.0 0.00176
6805.0 0.00176
6810.0 0.00176
6815.0 0.00175
6820.0 0.00175
6825.0 0.00174
6830.0 0.00174
6835.0 0.00173
6840.0 0.00173
6845.0 0.00173
6850.0 0.00172
6855.0 0.00172
6860.0 0.00171
6865.0 0.00171
6870.0 0.0017
6875.0 0.0017
6880.0 0.00169
6885.0 0.00169
6890.0 0.00168
6895.0 0.00168
6900.0 0.00167
6905.0 0.00167
6910.0 0.00166
6915.0 0.00166
6920.0 0.00165
6925.0 0.00165
6930.0 0.00165
6935.0 0.00164
6940.0 0.00164
6945.0 0.00164
6950.0 0.00164
6955.0 0.00164
6960.0 0.00163
6965.0 0.00163
6970.0 0.00163
6975.0 0.00163
6980.0 0.00163
6985.0 0.00163
6990.0 0.00163
6995.0 0.00163
7000.0 0.00162
7005.0 0.00162
7010.0 0.00162
7015.0 0.00162
7020.0 0.00162
7025.0 0.00161
7030.0 0.00161
7035.0 0.00161
7040.0 0.00161
7045.0 0.0016
7050.0 0.0016
7055.0 0.0016
7060.0 0.00159
7065.0 0.00159
7070.0 0.00159
7075.0 0.00158
7080.0 0.00158
7085.0 0.00157
7090.0 0.00157
7095.0 0.00157
7100.0 0.00156
7105.0 0.00156
7110.0 0.00155
7115.0 0.00155
7120.0 0.00155
7125.0 0.00154
7130.0 0.00154
7135.0 0.00153
7140.0 0.00153
7145.0 0.00153
7150.0 0.00152
7155.0 0.00152
7160.0 0.00152
7165.0 0.00152
7170.0 0.00151
7175.0 0.00151
7180.0 0.00151
7185.0 0.00151
7190.0 0.00151
7195.0 0.0015
7200.0 0.0015
7205.0 0.0015
7210.0 0.0015
7215.0 0.0015
7220.0 0.0015
7225.0 0.0015
7230.0 0.00149
7235.0 0.00149
7240.0 0.00149
7245.0 0.00149
7250.0 0.00149
7255.0 0.00149
7260.0 0.00148
7265.0 0.00148
7270.0 0.00148
7275.0 0.00148
7280.0 0.00148
7285.0 0.00147
7290.0 0.00147
7295.0 0.00147
7300.0 0.00146
7305.0 0.00146
7310.0 0.00146
7315.0 0.00145
7320.0 0.00145
7325.0 0.00145
7330.0 0.00144
7335.0 0.00144
7340.0 0.00143
7345.0 0.00143
7350.0 0.00142
7355.0 0.00142
7360.0 0.00142
7365.0 0.00141
7370.0 0.00141
7375.0 0.0014
7380.0 0.0014
7385.0 0.0014
7390.0 0.0014
7395.0 0.00139
7400.0 0.00139
7405.0 0.00139
7410.0 0.00139
7415.0 0.00139
7420.0 0.00139
7425.0 0.00139
7430.0 0.00139
7435.0 0.00138
7440.0 0.00138
7445.0 0.00138
7450.0 0.00138
7455.0 0.00138
7460.0 0.00138
7465.0 0.00138
7470.0 0.00138
7475.0 0.00138
7480.0 0.00138
7485.0 0.00137
7490.0 0.00137
7495.0 0.00137
7500.0 0.00137
7505.0 0.00136
7510.0 0.00136
7515.0 0.00136
7520.0 0.00135
7525.0 0.00135
7530.0 0.00134
7535.0 0.00134
7540.0 0.00134
7545.0 0.00133
7550.0 0.00133
7555.0 0.00132
7560.0 0.00132
7565.0 0.00131
7570.0 0.00131
7575.0 0.0013
7580.0 0.00129
7585.0 0.00129
7590.0 0.00128
7595.0 0.00128
7600.0 0.00127
7605.0 0.00126
7610.0 0.00126
7615.0 0.00125
7620.0 0.00124
7625.0 0.00124
7630.0 0.00123
7635.0 0.00123
7640.0 0.00122
7645.0 0.00121
7650.0 0.00121
7655.0 0.0012
7660.0 0.0012
7665.0 0.00119
7670.0 0.00119
7675.0 0.00119
7680.0 0.00118
7685.0 0.00118
7690.0 0.00118
7695.0 0.00118
7700.0 0.00118
7705.0 0.00118
7710.0 0.00118
7715.0 0.00118
7720.0 0.00118
7725.0 0.00118
7730.0 0.00118
7735.0 0.00118
7740.0 0.00119
7745.0 0.00119
7750.0 0.00119
7755.0 0.00119
7760.0 0.00119
7765.0 0.00119
7770.0 0.00119
7775.0 0.00119
7780.0 0.00119
7785.0 0.00119
7790.0 0.00119
7795.0 0.00119
7800.0 0.00119
7805.0 0.00118
7810.0 0.00118
7815.0 0.00118
7820.0 0.00117
7825.0 0.00117
7830.0 0.00117
7835.0 0.00116
7840.0 0.00116
7845.0 0.00115
7850.0 0.00115
7855.0 0.00115
7860.0 0.00114
7865.0 0.00114
7870.0 0.00113
7875.0 0.00113
7880.0 0.00113
7885.0 0.00112
7890.0 0.00112
7895.0 0.00112
7900.0 0.00111
7905.0 0.00111
7910.0 0.00111
7915.0 0.00111
7920.0 0.0011
7925.0 0.0011
7930.0 0.0011
7935.0 0.00109
7940.0 0.00109
7945.0 0.00109
7950.0 0.00109
7955.0 0.00108
7960.0 0.00108
7965.0 0.00108
7970.0 0.00108
7975.0 0.00107
7980.0 0.00107
7985.0 0.00107
7990.0 0.00107
7995.0 0.00106
8000.0 0.00106
8005.0 0.00106
8010.0 0.00106
8015.0 0.00106
8020.0 0.00105
8025.0 0.00105
8030.0 0.00105
8035.0 0.00105
8040.0 0.00105
8045.0 0.00105
8050.0 0.00104
8055.0 0.00104
8060.0 0.00104
8065.0 0.00104
8070.0 0.00104
8075.0 0.00103
8080.0 0.00103
8085.0 0.00103
8090.0 0.00102
8095.0 0.00102
8100.0 0.00102
8105.0 0.00101
8110.0 0.00101
8115.0 0.00101
8120.0 0.00101
8125.0 0.001
8130.0 0.001
8135.0 0.000999
8140.0 0.000998
8145.0 0.000997
8150.0 0.000997
8155.0 0.000997
8160.0 0.000998
