#lamb flux
1605.0 4.36e-06
1610.0 4.38e-06
1615.0 4.39e-06
1620.0 4.41e-06
1625.0 4.42e-06
1630.0 4.44e-06
1635.0 4.45e-06
1640.0 4.47e-06
1645.0 4.49e-06
1650.0 4.5e-06
1655.0 4.52e-06
1660.0 4.53e-06
1665.0 4.55e-06
1670.0 4.56e-06
1675.0 4.58e-06
1680.0 4.6e-06
1685.0 4.61e-06
1690.0 4.63e-06
1695.0 4.65e-06
1700.0 4.66e-06
1705.0 4.68e-06
1710.0 4.7e-06
1715.0 4.72e-06
1720.0 4.73e-06
1725.0 4.75e-06
1730.0 4.77e-06
1735.0 4.79e-06
1740.0 4.8e-06
1745.0 4.82e-06
1750.0 4.84e-06
1755.0 4.86e-06
1760.0 4.88e-06
1765.0 4.9e-06
1770.0 4.91e-06
1775.0 4.93e-06
1780.0 4.95e-06
1785.0 4.97e-06
1790.0 4.99e-06
1795.0 5.01e-06
1800.0 5.03e-06
1805.0 5.05e-06
1810.0 5.07e-06
1815.0 5.09e-06
1820.0 5.11e-06
1825.0 5.13e-06
1830.0 5.15e-06
1835.0 5.17e-06
1840.0 5.2e-06
1845.0 5.22e-06
1850.0 5.24e-06
1855.0 5.26e-06
1860.0 5.28e-06
1865.0 5.3e-06
1870.0 5.33e-06
1875.0 5.35e-06
1880.0 5.37e-06
1885.0 5.39e-06
1890.0 5.42e-06
1895.0 5.44e-06
1900.0 5.46e-06
1905.0 5.49e-06
1910.0 5.51e-06
1915.0 5.53e-06
1920.0 5.56e-06
1925.0 5.58e-06
1930.0 5.61e-06
1935.0 5.63e-06
1940.0 5.66e-06
1945.0 5.68e-06
1950.0 5.71e-06
1955.0 5.73e-06
1960.0 5.76e-06
1965.0 5.78e-06
1970.0 5.81e-06
1975.0 5.84e-06
1980.0 5.86e-06
1985.0 5.89e-06
1990.0 5.92e-06
1995.0 5.94e-06
2000.0 5.97e-06
2005.0 6e-06
2010.0 6.03e-06
2015.0 6.06e-06
2020.0 6.08e-06
2025.0 6.11e-06
2030.0 6.14e-06
2035.0 6.17e-06
2040.0 6.2e-06
2045.0 6.23e-06
2050.0 6.26e-06
2055.0 6.29e-06
2060.0 6.32e-06
2065.0 6.35e-06
2070.0 6.38e-06
2075.0 6.41e-06
2080.0 6.44e-06
2085.0 6.48e-06
2090.0 6.51e-06
2095.0 6.54e-06
2100.0 6.57e-06
2105.0 6.61e-06
2110.0 6.64e-06
2115.0 6.67e-06
2120.0 6.71e-06
2125.0 6.74e-06
2130.0 6.78e-06
2135.0 6.81e-06
2140.0 6.85e-06
2145.0 6.88e-06
2150.0 6.91e-06
2155.0 6.95e-06
2160.0 6.99e-06
2165.0 7.03e-06
2170.0 7.06e-06
2175.0 7.1e-06
2180.0 7.14e-06
2185.0 7.17e-06
2190.0 7.21e-06
2195.0 7.25e-06
2200.0 7.29e-06
2205.0 7.33e-06
2210.0 7.37e-06
2215.0 7.41e-06
2220.0 7.45e-06
2225.0 7.49e-06
2230.0 7.53e-06
2235.0 7.57e-06
2240.0 7.62e-06
2245.0 7.66e-06
2250.0 7.7e-06
2255.0 7.74e-06
2260.0 7.79e-06
2265.0 7.83e-06
2270.0 7.87e-06
2275.0 7.92e-06
2280.0 7.96e-06
2285.0 8.01e-06
2290.0 8.06e-06
2295.0 8.1e-06
2300.0 8.15e-06
2305.0 8.19e-06
2310.0 8.24e-06
2315.0 8.29e-06
2320.0 8.34e-06
2325.0 8.39e-06
2330.0 8.44e-06
2335.0 8.49e-06
2340.0 8.54e-06
2345.0 8.59e-06
2350.0 8.64e-06
2355.0 8.69e-06
2360.0 8.75e-06
2365.0 8.8e-06
2370.0 8.85e-06
2375.0 8.91e-06
2380.0 8.96e-06
2385.0 9.01e-06
2390.0 9.07e-06
2395.0 9.12e-06
2400.0 9.18e-06
2405.0 9.24e-06
2410.0 9.3e-06
2415.0 9.35e-06
2420.0 9.41e-06
2425.0 9.47e-06
2430.0 9.53e-06
2435.0 9.59e-06
2440.0 9.65e-06
2445.0 9.71e-06
2450.0 9.77e-06
2455.0 9.83e-06
2460.0 9.9e-06
2465.0 9.96e-06
2470.0 1e-05
2475.0 1.01e-05
2480.0 1.02e-05
2485.0 1.02e-05
2490.0 1.03e-05
2495.0 1.04e-05
2500.0 1.04e-05
2505.0 1.05e-05
2510.0 1.06e-05
2515.0 1.06e-05
2520.0 1.07e-05
2525.0 1.08e-05
2530.0 1.08e-05
2535.0 1.09e-05
2540.0 1.1e-05
2545.0 1.11e-05
2550.0 1.11e-05
2555.0 1.12e-05
2560.0 1.13e-05
2565.0 1.14e-05
2570.0 1.14e-05
2575.0 1.15e-05
2580.0 1.16e-05
2585.0 1.17e-05
2590.0 1.18e-05
2595.0 1.18e-05
2600.0 1.19e-05
2605.0 1.2e-05
2610.0 1.21e-05
2615.0 1.22e-05
2620.0 1.23e-05
2625.0 1.23e-05
2630.0 1.24e-05
2635.0 1.25e-05
2640.0 1.26e-05
2645.0 1.27e-05
2650.0 1.28e-05
2655.0 1.29e-05
2660.0 1.3e-05
2665.0 1.31e-05
2670.0 1.32e-05
2675.0 1.33e-05
2680.0 1.34e-05
2685.0 1.35e-05
2690.0 1.36e-05
2695.0 1.36e-05
2700.0 1.37e-05
2705.0 1.38e-05
2710.0 1.39e-05
2715.0 1.4e-05
2720.0 1.42e-05
2725.0 1.43e-05
2730.0 1.44e-05
2735.0 1.45e-05
2740.0 1.46e-05
2745.0 1.47e-05
2750.0 1.48e-05
2755.0 1.49e-05
2760.0 1.5e-05
2765.0 1.51e-05
2770.0 1.53e-05
2775.0 1.54e-05
2780.0 1.55e-05
2785.0 1.56e-05
2790.0 1.57e-05
2795.0 1.58e-05
2800.0 1.6e-05
2805.0 1.61e-05
2810.0 1.62e-05
2815.0 1.63e-05
2820.0 1.65e-05
2825.0 1.66e-05
2830.0 1.67e-05
2835.0 1.68e-05
2840.0 1.7e-05
2845.0 1.71e-05
2850.0 1.73e-05
2855.0 1.74e-05
2860.0 1.75e-05
2865.0 1.77e-05
2870.0 1.78e-05
2875.0 1.79e-05
2880.0 1.81e-05
2885.0 1.82e-05
2890.0 1.84e-05
2895.0 1.85e-05
2900.0 1.87e-05
2905.0 1.88e-05
2910.0 1.9e-05
2915.0 1.91e-05
2920.0 1.93e-05
2925.0 1.94e-05
2930.0 1.96e-05
2935.0 1.98e-05
2940.0 1.99e-05
2945.0 2.01e-05
2950.0 2.02e-05
2955.0 2.04e-05
2960.0 2.06e-05
2965.0 2.08e-05
2970.0 2.09e-05
2975.0 2.11e-05
2980.0 2.13e-05
2985.0 2.14e-05
2990.0 2.16e-05
2995.0 2.18e-05
3000.0 2.2e-05
3005.0 2.22e-05
3010.0 2.24e-05
3015.0 2.25e-05
3020.0 2.27e-05
3025.0 2.29e-05
3030.0 2.31e-05
3035.0 2.33e-05
3040.0 2.35e-05
3045.0 2.37e-05
3050.0 2.39e-05
3055.0 2.41e-05
3060.0 2.43e-05
3065.0 2.45e-05
3070.0 2.47e-05
3075.0 2.5e-05
3080.0 2.52e-05
3085.0 2.54e-05
3090.0 2.56e-05
3095.0 2.58e-05
3100.0 2.61e-05
3105.0 2.63e-05
3110.0 2.65e-05
3115.0 2.67e-05
3120.0 2.7e-05
3125.0 2.72e-05
3130.0 2.74e-05
3135.0 2.77e-05
3140.0 2.79e-05
3145.0 2.82e-05
3150.0 2.84e-05
3155.0 2.87e-05
3160.0 2.89e-05
3165.0 2.92e-05
3170.0 2.94e-05
3175.0 2.97e-05
3180.0 3e-05
3185.0 3.02e-05
3190.0 3.05e-05
3195.0 3.08e-05
3200.0 3.1e-05
3205.0 3.13e-05
3210.0 3.16e-05
3215.0 3.19e-05
3220.0 3.22e-05
3225.0 3.25e-05
3230.0 3.28e-05
3235.0 3.31e-05
3240.0 3.34e-05
3245.0 3.37e-05
3250.0 3.4e-05
3255.0 3.43e-05
3260.0 3.46e-05
3265.0 3.49e-05
3270.0 3.52e-05
3275.0 3.56e-05
3280.0 3.59e-05
3285.0 3.62e-05
3290.0 3.65e-05
3295.0 3.69e-05
3300.0 3.72e-05
3305.0 3.76e-05
3310.0 3.79e-05
3315.0 3.83e-05
3320.0 3.86e-05
3325.0 3.9e-05
3330.0 3.93e-05
3335.0 3.97e-05
3340.0 4.01e-05
3345.0 4.04e-05
3350.0 4.08e-05
3355.0 4.12e-05
3360.0 4.16e-05
3365.0 4.2e-05
3370.0 4.24e-05
3375.0 4.28e-05
3380.0 4.32e-05
3385.0 4.36e-05
3390.0 4.4e-05
3395.0 4.44e-05
3400.0 4.48e-05
3405.0 4.53e-05
3410.0 4.57e-05
3415.0 4.61e-05
3420.0 4.66e-05
3425.0 4.7e-05
3430.0 4.75e-05
3435.0 4.79e-05
3440.0 4.84e-05
3445.0 4.89e-05
3450.0 4.93e-05
3455.0 4.98e-05
3460.0 5.03e-05
3465.0 5.08e-05
3470.0 5.13e-05
3475.0 5.17e-05
3480.0 5.22e-05
3485.0 5.28e-05
3490.0 5.33e-05
3495.0 5.38e-05
3500.0 5.43e-05
3505.0 5.48e-05
3510.0 5.54e-05
3515.0 5.59e-05
3520.0 5.65e-05
3525.0 5.7e-05
3530.0 5.76e-05
3535.0 5.81e-05
3540.0 5.87e-05
3545.0 5.93e-05
3550.0 5.98e-05
3555.0 6.04e-05
3560.0 6.1e-05
3565.0 6.16e-05
3570.0 6.22e-05
3575.0 6.29e-05
3580.0 6.35e-05
3585.0 6.41e-05
3590.0 6.47e-05
3595.0 6.54e-05
3600.0 6.6e-05
3605.0 6.67e-05
3610.0 6.73e-05
3615.0 6.8e-05
3620.0 6.87e-05
3625.0 6.94e-05
3630.0 7e-05
3635.0 7.07e-05
3640.0 7.14e-05
3645.0 7.21e-05
3650.0 7.28e-05
3655.0 7.36e-05
3660.0 7.43e-05
3665.0 7.5e-05
3670.0 7.58e-05
3675.0 7.65e-05
3680.0 7.73e-05
3685.0 7.8e-05
3690.0 7.88e-05
3695.0 7.96e-05
3700.0 8.04e-05
3705.0 8.12e-05
3710.0 8.19e-05
3715.0 8.27e-05
3720.0 8.36e-05
3725.0 8.44e-05
3730.0 8.52e-05
3735.0 8.6e-05
3740.0 8.69e-05
3745.0 8.77e-05
3750.0 8.86e-05
3755.0 8.94e-05
3760.0 9.03e-05
3765.0 9.12e-05
3770.0 9.2e-05
3775.0 9.29e-05
3780.0 9.38e-05
3785.0 9.47e-05
3790.0 9.56e-05
3795.0 9.65e-05
3800.0 9.74e-05
3805.0 9.84e-05
3810.0 9.93e-05
3815.0 0.0001
3820.0 0.000101
3825.0 0.000102
3830.0 0.000103
3835.0 0.000104
3840.0 0.000105
3845.0 0.000106
3850.0 0.000107
3855.0 0.000108
3860.0 0.000109
3865.0 0.00011
3870.0 0.000111
3875.0 0.000112
3880.0 0.000113
3885.0 0.000114
3890.0 0.000115
3895.0 0.000116
3900.0 0.000117
3905.0 0.000118
3910.0 0.000119
3915.0 0.00012
3920.0 0.000121
3925.0 0.000122
3930.0 0.000123
3935.0 0.000124
3940.0 0.000125
3945.0 0.000126
3950.0 0.000128
3955.0 0.000129
3960.0 0.00013
3965.0 0.000131
3970.0 0.000132
3975.0 0.000133
3980.0 0.000134
3985.0 0.000135
3990.0 0.000136
3995.0 0.000137
4000.0 0.000138
4005.0 0.00014
4010.0 0.000141
4015.0 0.000142
4020.0 0.000143
4025.0 0.000144
4030.0 0.000145
4035.0 0.000146
4040.0 0.000147
4045.0 0.000149
4050.0 0.00015
4055.0 0.000151
4060.0 0.000152
4065.0 0.000153
4070.0 0.000154
4075.0 0.000155
4080.0 0.000157
4085.0 0.000158
4090.0 0.000159
4095.0 0.00016
4100.0 0.000161
4105.0 0.000162
4110.0 0.000163
4115.0 0.000165
4120.0 0.000166
4125.0 0.000167
4130.0 0.000168
4135.0 0.000169
4140.0 0.00017
4145.0 0.000172
4150.0 0.000173
4155.0 0.000174
4160.0 0.000175
4165.0 0.000176
4170.0 0.000177
4175.0 0.000178
4180.0 0.00018
4185.0 0.000181
4190.0 0.000182
4195.0 0.000183
4200.0 0.000184
4205.0 0.000185
4210.0 0.000187
4215.0 0.000188
4220.0 0.000189
4225.0 0.00019
4230.0 0.000191
4235.0 0.000192
4240.0 0.000193
4245.0 0.000195
4250.0 0.000196
4255.0 0.000197
4260.0 0.000198
4265.0 0.000199
4270.0 0.0002
4275.0 0.000202
4280.0 0.000203
4285.0 0.000204
4290.0 0.000205
4295.0 0.000206
4300.0 0.000207
4305.0 0.000208
4310.0 0.000209
4315.0 0.000211
4320.0 0.000212
4325.0 0.000213
4330.0 0.000214
4335.0 0.000215
4340.0 0.000216
4345.0 0.000217
4350.0 0.000218
4355.0 0.00022
4360.0 0.000221
4365.0 0.000222
4370.0 0.000223
4375.0 0.000224
4380.0 0.000225
4385.0 0.000226
4390.0 0.000227
4395.0 0.000229
4400.0 0.00023
4405.0 0.000231
4410.0 0.000232
4415.0 0.000233
4420.0 0.000234
4425.0 0.000235
4430.0 0.000236
4435.0 0.000237
4440.0 0.000238
4445.0 0.00024
4450.0 0.000241
4455.0 0.000242
4460.0 0.000243
4465.0 0.000244
4470.0 0.000245
4475.0 0.000246
4480.0 0.000247
4485.0 0.000248
4490.0 0.000249
4495.0 0.00025
4500.0 0.000251
4505.0 0.000252
4510.0 0.000253
4515.0 0.000254
4520.0 0.000255
4525.0 0.000256
4530.0 0.000258
4535.0 0.000259
4540.0 0.00026
4545.0 0.000261
4550.0 0.000262
4555.0 0.000263
4560.0 0.000264
4565.0 0.000265
4570.0 0.000266
4575.0 0.000267
4580.0 0.000268
4585.0 0.000269
4590.0 0.00027
4595.0 0.000271
4600.0 0.000272
4605.0 0.000273
4610.0 0.000274
4615.0 0.000274
4620.0 0.000275
4625.0 0.000276
4630.0 0.000277
4635.0 0.000278
4640.0 0.000279
4645.0 0.00028
4650.0 0.000281
4655.0 0.000282
4660.0 0.000283
4665.0 0.000284
4670.0 0.000285
4675.0 0.000286
4680.0 0.000287
4685.0 0.000287
4690.0 0.000288
4695.0 0.000289
4700.0 0.00029
4705.0 0.000291
4710.0 0.000292
4715.0 0.000293
4720.0 0.000293
4725.0 0.000294
4730.0 0.000295
4735.0 0.000296
4740.0 0.000297
4745.0 0.000298
4750.0 0.000298
4755.0 0.000299
4760.0 0.0003
4765.0 0.000301
4770.0 0.000301
4775.0 0.000302
4780.0 0.000303
4785.0 0.000304
4790.0 0.000305
4795.0 0.000305
4800.0 0.000306
4805.0 0.000307
4810.0 0.000307
4815.0 0.000308
4820.0 0.000309
4825.0 0.000309
4830.0 0.00031
4835.0 0.000311
4840.0 0.000312
4845.0 0.000312
4850.0 0.000313
4855.0 0.000313
4860.0 0.000314
4865.0 0.000315
4870.0 0.000315
4875.0 0.000316
4880.0 0.000317
4885.0 0.000317
4890.0 0.000318
4895.0 0.000318
4900.0 0.000319
4905.0 0.00032
4910.0 0.00032
4915.0 0.000321
4920.0 0.000321
4925.0 0.000322
4930.0 0.000322
4935.0 0.000323
4940.0 0.000323
4945.0 0.000324
4950.0 0.000324
4955.0 0.000325
4960.0 0.000325
4965.0 0.000326
4970.0 0.000326
4975.0 0.000327
4980.0 0.000327
4985.0 0.000328
4990.0 0.000328
4995.0 0.000329
5000.0 0.000329
5005.0 0.00033
5010.0 0.00033
5015.0 0.000331
5020.0 0.000331
5025.0 0.000331
5030.0 0.000332
5035.0 0.000332
5040.0 0.000333
5045.0 0.000333
5050.0 0.000333
5055.0 0.000334
5060.0 0.000334
5065.0 0.000335
5070.0 0.000335
5075.0 0.000335
5080.0 0.000336
5085.0 0.000336
5090.0 0.000337
5095.0 0.000337
5100.0 0.000337
5105.0 0.000338
5110.0 0.000338
5115.0 0.000338
5120.0 0.000339
5125.0 0.000339
5130.0 0.000339
5135.0 0.00034
5140.0 0.00034
5145.0 0.00034
5150.0 0.000341
5155.0 0.000341
5160.0 0.000341
5165.0 0.000342
5170.0 0.000342
5175.0 0.000342
5180.0 0.000343
5185.0 0.000343
5190.0 0.000343
5195.0 0.000344
5200.0 0.000344
5205.0 0.000344
5210.0 0.000344
5215.0 0.000345
5220.0 0.000345
5225.0 0.000345
5230.0 0.000346
5235.0 0.000346
5240.0 0.000346
5245.0 0.000347
5250.0 0.000347
5255.0 0.000347
5260.0 0.000347
5265.0 0.000348
5270.0 0.000348
5275.0 0.000348
5280.0 0.000348
5285.0 0.000349
5290.0 0.000349
5295.0 0.000349
5300.0 0.000349
5305.0 0.00035
5310.0 0.00035
5315.0 0.00035
5320.0 0.00035
5325.0 0.000351
5330.0 0.000351
5335.0 0.000351
5340.0 0.000351
5345.0 0.000352
5350.0 0.000352
5355.0 0.000352
5360.0 0.000352
5365.0 0.000352
5370.0 0.000353
5375.0 0.000353
5380.0 0.000353
5385.0 0.000353
5390.0 0.000353
5395.0 0.000353
5400.0 0.000353
5405.0 0.000354
5410.0 0.000354
5415.0 0.000354
5420.0 0.000354
5425.0 0.000354
5430.0 0.000354
5435.0 0.000354
5440.0 0.000354
5445.0 0.000354
5450.0 0.000354
5455.0 0.000354
5460.0 0.000354
5465.0 0.000354
5470.0 0.000354
5475.0 0.000354
5480.0 0.000354
5485.0 0.000354
5490.0 0.000354
5495.0 0.000354
5500.0 0.000353
5505.0 0.000353
5510.0 0.000353
5515.0 0.000353
5520.0 0.000353
5525.0 0.000353
5530.0 0.000353
5535.0 0.000352
5540.0 0.000352
5545.0 0.000352
5550.0 0.000352
5555.0 0.000352
5560.0 0.000352
5565.0 0.000351
5570.0 0.000351
5575.0 0.000351
5580.0 0.000351
5585.0 0.000351
5590.0 0.000351
5595.0 0.000351
5600.0 0.000351
5605.0 0.000351
5610.0 0.000351
5615.0 0.000351
5620.0 0.000351
5625.0 0.000351
5630.0 0.000351
5635.0 0.000351
5640.0 0.000351
5645.0 0.000351
5650.0 0.000351
5655.0 0.000352
5660.0 0.000352
5665.0 0.000352
5670.0 0.000353
5675.0 0.000353
5680.0 0.000353
5685.0 0.000354
5690.0 0.000354
5695.0 0.000355
5700.0 0.000355
5705.0 0.000356
5710.0 0.000356
5715.0 0.000357
5720.0 0.000358
5725.0 0.000358
5730.0 0.000359
5735.0 0.00036
5740.0 0.000361
5745.0 0.000362
5750.0 0.000363
5755.0 0.000364
5760.0 0.000365
5765.0 0.000366
5770.0 0.000367
5775.0 0.000368
5780.0 0.000369
5785.0 0.00037
5790.0 0.000371
5795.0 0.000373
5800.0 0.000374
5805.0 0.000375
5810.0 0.000377
5815.0 0.000378
5820.0 0.00038
5825.0 0.000381
5830.0 0.000382
5835.0 0.000384
5840.0 0.000385
5845.0 0.000387
5850.0 0.000389
5855.0 0.00039
5860.0 0.000392
5865.0 0.000393
5870.0 0.000395
5875.0 0.000397
5880.0 0.000398
5885.0 0.0004
5890.0 0.000402
5895.0 0.000403
5900.0 0.000405
5905.0 0.000407
5910.0 0.000408
5915.0 0.00041
5920.0 0.000412
5925.0 0.000413
5930.0 0.000415
5935.0 0.000417
5940.0 0.000419
5945.0 0.00042
5950.0 0.000422
5955.0 0.000423
5960.0 0.000425
5965.0 0.000427
5970.0 0.000428
5975.0 0.00043
5980.0 0.000432
5985.0 0.000433
5990.0 0.000435
5995.0 0.000436
6000.0 0.000438
6005.0 0.000439
6010.0 0.000441
6015.0 0.000443
6020.0 0.000444
6025.0 0.000446
6030.0 0.000447
6035.0 0.000449
6040.0 0.00045
6045.0 0.000452
6050.0 0.000453
6055.0 0.000455
6060.0 0.000457
6065.0 0.000458
6070.0 0.00046
6075.0 0.000461
6080.0 0.000463
6085.0 0.000464
6090.0 0.000466
6095.0 0.000468
6100.0 0.000469
6105.0 0.000471
6110.0 0.000473
6115.0 0.000474
6120.0 0.000476
6125.0 0.000478
6130.0 0.00048
6135.0 0.000481
6140.0 0.000483
6145.0 0.000485
6150.0 0.000487
6155.0 0.000489
6160.0 0.000491
6165.0 0.000493
6170.0 0.000495
6175.0 0.000497
6180.0 0.000499
6185.0 0.000501
6190.0 0.000503
6195.0 0.000505
6200.0 0.000507
6205.0 0.00051
6210.0 0.000512
6215.0 0.000514
6220.0 0.000517
6225.0 0.000519
6230.0 0.000521
6235.0 0.000524
6240.0 0.000526
6245.0 0.000529
6250.0 0.000532
6255.0 0.000534
6260.0 0.000537
6265.0 0.00054
6270.0 0.000542
6275.0 0.000545
6280.0 0.000548
6285.0 0.000551
6290.0 0.000554
6295.0 0.000557
6300.0 0.00056
6305.0 0.000563
6310.0 0.000566
6315.0 0.000569
6320.0 0.000572
6325.0 0.000576
6330.0 0.000579
6335.0 0.000582
6340.0 0.000585
6345.0 0.000589
6350.0 0.000592
6355.0 0.000595
6360.0 0.000599
6365.0 0.000602
6370.0 0.000606
6375.0 0.000609
6380.0 0.000613
6385.0 0.000616
6390.0 0.000619
6395.0 0.000623
6400.0 0.000626
6405.0 0.00063
6410.0 0.000633
6415.0 0.000636
6420.0 0.00064
6425.0 0.000643
6430.0 0.000646
6435.0 0.000649
6440.0 0.000652
6445.0 0.000656
6450.0 0.000659
6455.0 0.000662
6460.0 0.000664
6465.0 0.000667
6470.0 0.00067
6475.0 0.000673
6480.0 0.000675
6485.0 0.000677
6490.0 0.00068
6495.0 0.000682
6500.0 0.000684
6505.0 0.000686
6510.0 0.000687
6515.0 0.000689
6520.0 0.000691
6525.0 0.000692
6530.0 0.000693
6535.0 0.000694
6540.0 0.000695
6545.0 0.000696
6550.0 0.000696
6555.0 0.000696
6560.0 0.000697
6565.0 0.000697
6570.0 0.000696
6575.0 0.000696
6580.0 0.000695
6585.0 0.000695
6590.0 0.000694
6595.0 0.000693
6600.0 0.000691
6605.0 0.00069
6610.0 0.000688
6615.0 0.000687
6620.0 0.000685
6625.0 0.000682
6630.0 0.00068
6635.0 0.000678
6640.0 0.000675
6645.0 0.000673
6650.0 0.00067
6655.0 0.000667
6660.0 0.000664
6665.0 0.000661
6670.0 0.000658
6675.0 0.000654
6680.0 0.000651
6685.0 0.000648
6690.0 0.000644
6695.0 0.000641
6700.0 0.000637
6705.0 0.000633
6710.0 0.00063
6715.0 0.000626
6720.0 0.000622
6725.0 0.000618
6730.0 0.000614
6735.0 0.000611
6740.0 0.000607
6745.0 0.000603
6750.0 0.000599
6755.0 0.000596
6760.0 0.000592
6765.0 0.000588
6770.0 0.000585
6775.0 0.000581
6780.0 0.000578
6785.0 0.000574
6790.0 0.000571
6795.0 0.000567
6800.0 0.000564
6805.0 0.000561
6810.0 0.000558
6815.0 0.000555
6820.0 0.000552
6825.0 0.000549
6830.0 0.000546
6835.0 0.000543
6840.0 0.00054
6845.0 0.000538
6850.0 0.000535
6855.0 0.000533
6860.0 0.000531
6865.0 0.000528
6870.0 0.000526
6875.0 0.000524
6880.0 0.000522
6885.0 0.00052
6890.0 0.000519
6895.0 0.000517
6900.0 0.000516
6905.0 0.000514
6910.0 0.000513
6915.0 0.000511
6920.0 0.00051
6925.0 0.000509
6930.0 0.000508
6935.0 0.000507
6940.0 0.000506
6945.0 0.000506
6950.0 0.000505
6955.0 0.000504
6960.0 0.000504
6965.0 0.000503
6970.0 0.000503
6975.0 0.000503
6980.0 0.000503
6985.0 0.000502
6990.0 0.000502
6995.0 0.000502
7000.0 0.000502
7005.0 0.000503
7010.0 0.000503
7015.0 0.000503
7020.0 0.000503
7025.0 0.000504
7030.0 0.000504
7035.0 0.000505
7040.0 0.000505
7045.0 0.000506
7050.0 0.000507
7055.0 0.000507
7060.0 0.000508
7065.0 0.000509
7070.0 0.00051
7075.0 0.00051
7080.0 0.000511
7085.0 0.000512
7090.0 0.000513
7095.0 0.000514
7100.0 0.000515
7105.0 0.000516
7110.0 0.000518
7115.0 0.000519
7120.0 0.00052
7125.0 0.000521
7130.0 0.000522
7135.0 0.000523
7140.0 0.000524
7145.0 0.000525
7150.0 0.000527
7155.0 0.000528
7160.0 0.000529
7165.0 0.00053
7170.0 0.000531
7175.0 0.000532
7180.0 0.000533
7185.0 0.000534
7190.0 0.000535
7195.0 0.000536
7200.0 0.000537
7205.0 0.000538
7210.0 0.000538
7215.0 0.000539
7220.0 0.000539
7225.0 0.00054
7230.0 0.00054
7235.0 0.000541
7240.0 0.000541
7245.0 0.000541
7250.0 0.000541
7255.0 0.000541
7260.0 0.000541
7265.0 0.00054
7270.0 0.00054
7275.0 0.00054
7280.0 0.000539
7285.0 0.000538
7290.0 0.000537
7295.0 0.000536
7300.0 0.000535
7305.0 0.000534
7310.0 0.000532
7315.0 0.000531
7320.0 0.000529
7325.0 0.000528
7330.0 0.000526
7335.0 0.000524
7340.0 0.000522
7345.0 0.00052
7350.0 0.000517
7355.0 0.000515
7360.0 0.000512
7365.0 0.00051
7370.0 0.000507
7375.0 0.000504
7380.0 0.000502
7385.0 0.000499
7390.0 0.000496
7395.0 0.000493
7400.0 0.00049
7405.0 0.000487
7410.0 0.000483
7415.0 0.00048
7420.0 0.000477
7425.0 0.000474
7430.0 0.000471
7435.0 0.000467
7440.0 0.000464
7445.0 0.000461
7450.0 0.000458
7455.0 0.000454
7460.0 0.000451
7465.0 0.000448
7470.0 0.000445
7475.0 0.000442
7480.0 0.000439
7485.0 0.000436
7490.0 0.000433
7495.0 0.00043
7500.0 0.000427
7505.0 0.000424
7510.0 0.000421
7515.0 0.000419
7520.0 0.000416
7525.0 0.000414
7530.0 0.000411
7535.0 0.000409
7540.0 0.000406
7545.0 0.000404
7550.0 0.000402
7555.0 0.000399
7560.0 0.000397
7565.0 0.000395
7570.0 0.000393
7575.0 0.000391
7580.0 0.00039
7585.0 0.000388
7590.0 0.000386
7595.0 0.000385
7600.0 0.000383
7605.0 0.000381
7610.0 0.00038
7615.0 0.000379
7620.0 0.000377
7625.0 0.000376
7630.0 0.000374
7635.0 0.000373
7640.0 0.000372
7645.0 0.000371
7650.0 0.00037
7655.0 0.000369
7660.0 0.000368
7665.0 0.000366
7670.0 0.000365
7675.0 0.000364
7680.0 0.000363
7685.0 0.000362
7690.0 0.000362
7695.0 0.000361
7700.0 0.00036
7705.0 0.000359
7710.0 0.000358
7715.0 0.000357
7720.0 0.000356
7725.0 0.000355
7730.0 0.000354
7735.0 0.000353
7740.0 0.000352
7745.0 0.000351
7750.0 0.00035
7755.0 0.000349
7760.0 0.000348
7765.0 0.000347
7770.0 0.000346
7775.0 0.000345
7780.0 0.000344
7785.0 0.000343
7790.0 0.000342
7795.0 0.000341
7800.0 0.000339
7805.0 0.000338
7810.0 0.000337
7815.0 0.000336
7820.0 0.000335
7825.0 0.000334
7830.0 0.000332
7835.0 0.000331
7840.0 0.00033
7845.0 0.000329
7850.0 0.000327
7855.0 0.000326
7860.0 0.000325
7865.0 0.000323
7870.0 0.000322
7875.0 0.000321
7880.0 0.00032
7885.0 0.000318
