#lamb flux
1605.0 0.00866
1610.0 0.00871
1615.0 0.00877
1620.0 0.00883
1625.0 0.00889
1630.0 0.00894
1635.0 0.009
1640.0 0.00906
1645.0 0.00912
1650.0 0.00918
1655.0 0.00924
1660.0 0.0093
1665.0 0.00936
1670.0 0.00942
1675.0 0.00948
1680.0 0.00954
1685.0 0.0096
1690.0 0.00966
1695.0 0.00973
1700.0 0.00979
1705.0 0.00985
1710.0 0.00991
1715.0 0.00997
1720.0 0.01
1725.0 0.0101
1730.0 0.0102
1735.0 0.0102
1740.0 0.0103
1745.0 0.0104
1750.0 0.0104
1755.0 0.0105
1760.0 0.0105
1765.0 0.0106
1770.0 0.0107
1775.0 0.0107
1780.0 0.0108
1785.0 0.0109
1790.0 0.0109
1795.0 0.011
1800.0 0.0111
1805.0 0.0111
1810.0 0.0112
1815.0 0.0113
1820.0 0.0113
1825.0 0.0114
1830.0 0.0115
1835.0 0.0115
1840.0 0.0116
1845.0 0.0116
1850.0 0.0117
1855.0 0.0118
1860.0 0.0118
1865.0 0.0119
1870.0 0.012
1875.0 0.012
1880.0 0.0121
1885.0 0.0122
1890.0 0.0122
1895.0 0.0123
1900.0 0.0124
1905.0 0.0124
1910.0 0.0125
1915.0 0.0126
1920.0 0.0126
1925.0 0.0127
1930.0 0.0128
1935.0 0.0128
1940.0 0.0129
1945.0 0.013
1950.0 0.0131
1955.0 0.0131
1960.0 0.0132
1965.0 0.0133
1970.0 0.0133
1975.0 0.0134
1980.0 0.0134
1985.0 0.0135
1990.0 0.0136
1995.0 0.0136
2000.0 0.0137
2005.0 0.0138
2010.0 0.0138
2015.0 0.0139
2020.0 0.014
2025.0 0.014
2030.0 0.0141
2035.0 0.0142
2040.0 0.0142
2045.0 0.0143
2050.0 0.0144
2055.0 0.0144
2060.0 0.0145
2065.0 0.0146
2070.0 0.0146
2075.0 0.0147
2080.0 0.0148
2085.0 0.0148
2090.0 0.0149
2095.0 0.0149
2100.0 0.015
2105.0 0.0151
2110.0 0.0151
2115.0 0.0152
2120.0 0.0153
2125.0 0.0153
2130.0 0.0154
2135.0 0.0154
2140.0 0.0155
2145.0 0.0156
2150.0 0.0156
2155.0 0.0157
2160.0 0.0157
2165.0 0.0158
2170.0 0.0158
2175.0 0.0159
2180.0 0.016
2185.0 0.016
2190.0 0.0161
2195.0 0.0161
2200.0 0.0162
2205.0 0.0162
2210.0 0.0163
2215.0 0.0163
2220.0 0.0164
2225.0 0.0164
2230.0 0.0165
2235.0 0.0165
2240.0 0.0166
2245.0 0.0166
2250.0 0.0167
2255.0 0.0167
2260.0 0.0168
2265.0 0.0168
2270.0 0.0168
2275.0 0.0169
2280.0 0.0169
2285.0 0.017
2290.0 0.017
2295.0 0.017
2300.0 0.0171
2305.0 0.0171
2310.0 0.0171
2315.0 0.0172
2320.0 0.0172
2325.0 0.0172
2330.0 0.0173
2335.0 0.0173
2340.0 0.0173
2345.0 0.0174
2350.0 0.0174
2355.0 0.0174
2360.0 0.0175
2365.0 0.0175
2370.0 0.0175
2375.0 0.0175
2380.0 0.0176
2385.0 0.0176
2390.0 0.0176
2395.0 0.0176
2400.0 0.0177
2405.0 0.0177
2410.0 0.0177
2415.0 0.0177
2420.0 0.0178
2425.0 0.0178
2430.0 0.0178
2435.0 0.0178
2440.0 0.0178
2445.0 0.0179
2450.0 0.0179
2455.0 0.0179
2460.0 0.0179
2465.0 0.0179
2470.0 0.018
2475.0 0.018
2480.0 0.018
2485.0 0.018
2490.0 0.018
2495.0 0.0181
2500.0 0.0181
2505.0 0.0181
2510.0 0.0181
2515.0 0.0181
2520.0 0.0182
2525.0 0.0182
2530.0 0.0182
2535.0 0.0182
2540.0 0.0182
2545.0 0.0183
2550.0 0.0183
2555.0 0.0183
2560.0 0.0183
2565.0 0.0183
2570.0 0.0184
2575.0 0.0184
2580.0 0.0184
2585.0 0.0184
2590.0 0.0185
2595.0 0.0185
2600.0 0.0185
2605.0 0.0185
2610.0 0.0185
2615.0 0.0186
2620.0 0.0186
2625.0 0.0186
2630.0 0.0186
2635.0 0.0187
2640.0 0.0187
2645.0 0.0187
2650.0 0.0187
2655.0 0.0188
2660.0 0.0188
2665.0 0.0188
2670.0 0.0188
2675.0 0.0188
2680.0 0.0189
2685.0 0.0189
2690.0 0.0189
2695.0 0.0189
2700.0 0.019
2705.0 0.019
2710.0 0.019
2715.0 0.019
2720.0 0.019
2725.0 0.0191
2730.0 0.0191
2735.0 0.0191
2740.0 0.0191
2745.0 0.0192
2750.0 0.0192
2755.0 0.0192
2760.0 0.0192
2765.0 0.0192
2770.0 0.0193
2775.0 0.0193
2780.0 0.0193
2785.0 0.0193
2790.0 0.0193
2795.0 0.0193
2800.0 0.0194
2805.0 0.0194
2810.0 0.0194
2815.0 0.0194
2820.0 0.0194
2825.0 0.0194
2830.0 0.0195
2835.0 0.0195
2840.0 0.0195
2845.0 0.0195
2850.0 0.0195
2855.0 0.0195
2860.0 0.0195
2865.0 0.0195
2870.0 0.0195
2875.0 0.0195
2880.0 0.0195
2885.0 0.0195
2890.0 0.0195
2895.0 0.0195
2900.0 0.0195
2905.0 0.0195
2910.0 0.0195
2915.0 0.0195
2920.0 0.0195
2925.0 0.0195
2930.0 0.0195
2935.0 0.0195
2940.0 0.0195
2945.0 0.0195
2950.0 0.0195
2955.0 0.0195
2960.0 0.0195
2965.0 0.0194
2970.0 0.0194
2975.0 0.0194
2980.0 0.0194
2985.0 0.0194
2990.0 0.0193
2995.0 0.0193
3000.0 0.0193
3005.0 0.0193
3010.0 0.0192
3015.0 0.0192
3020.0 0.0192
3025.0 0.0191
3030.0 0.0191
3035.0 0.019
3040.0 0.019
3045.0 0.0189
3050.0 0.0189
3055.0 0.0188
3060.0 0.0188
3065.0 0.0187
3070.0 0.0187
3075.0 0.0186
3080.0 0.0185
3085.0 0.0185
3090.0 0.0184
3095.0 0.0183
3100.0 0.0183
3105.0 0.0182
3110.0 0.0181
3115.0 0.018
3120.0 0.018
3125.0 0.0179
3130.0 0.0178
3135.0 0.0177
3140.0 0.0176
3145.0 0.0175
3150.0 0.0174
3155.0 0.0173
3160.0 0.0172
3165.0 0.0171
3170.0 0.017
3175.0 0.0169
3180.0 0.0168
3185.0 0.0167
3190.0 0.0166
3195.0 0.0164
3200.0 0.0163
3205.0 0.0162
3210.0 0.0161
3215.0 0.016
3220.0 0.0158
3225.0 0.0161
3230.0 0.0173
3235.0 0.0171
3240.0 0.0168
3245.0 0.0164
3250.0 0.016
3255.0 0.0156
3260.0 0.0152
3265.0 0.0149
3270.0 0.0146
3275.0 0.0144
3280.0 0.0142
3285.0 0.0141
3290.0 0.014
3295.0 0.0139
3300.0 0.0139
3305.0 0.0139
3310.0 0.0138
3315.0 0.0139
3320.0 0.0139
3325.0 0.014
3330.0 0.0139
3335.0 0.0138
3340.0 0.0137
3345.0 0.0134
3350.0 0.0132
3355.0 0.013
3360.0 0.0128
3365.0 0.0127
3370.0 0.0126
3375.0 0.0126
3380.0 0.0126
3385.0 0.0125
3390.0 0.0125
3395.0 0.0125
3400.0 0.0124
3405.0 0.0124
3410.0 0.0124
3415.0 0.0123
3420.0 0.0123
3425.0 0.0122
3430.0 0.0121
3435.0 0.012
3440.0 0.0119
3445.0 0.0118
3450.0 0.0116
3455.0 0.0115
3460.0 0.0114
3465.0 0.0112
3470.0 0.0111
3475.0 0.011
3480.0 0.0109
3485.0 0.0109
3490.0 0.0108
3495.0 0.0107
3500.0 0.0107
3505.0 0.0107
3510.0 0.0107
3515.0 0.0107
3520.0 0.0107
3525.0 0.0108
3530.0 0.0108
3535.0 0.0108
3540.0 0.0108
3545.0 0.0108
3550.0 0.0108
3555.0 0.0109
3560.0 0.0109
3565.0 0.0108
3570.0 0.0108
3575.0 0.0107
3580.0 0.0107
3585.0 0.0107
3590.0 0.0107
3595.0 0.0106
3600.0 0.0106
3605.0 0.0106
3610.0 0.0106
3615.0 0.0105
3620.0 0.0104
3625.0 0.0103
3630.0 0.0102
3635.0 0.0102
3640.0 0.0101
3645.0 0.0101
3650.0 0.01
3655.0 0.01
3660.0 0.01
3665.0 0.00998
3670.0 0.00996
3675.0 0.00997
3680.0 0.00997
3685.0 0.00995
3690.0 0.00994
3695.0 0.00995
3700.0 0.00996
3705.0 0.00996
3710.0 0.00995
3715.0 0.00994
3720.0 0.00993
3725.0 0.00991
3730.0 0.00987
3735.0 0.00982
3740.0 0.00976
3745.0 0.00968
3750.0 0.00959
3755.0 0.00946
3760.0 0.00931
3765.0 0.00914
3770.0 0.00897
3775.0 0.00881
3780.0 0.00868
3785.0 0.00859
3790.0 0.00853
3795.0 0.0085
3800.0 0.0085
3805.0 0.00851
3810.0 0.00855
3815.0 0.0086
3820.0 0.00866
3825.0 0.00869
3830.0 0.0087
3835.0 0.00868
3840.0 0.00865
3845.0 0.00859
3850.0 0.0085
3855.0 0.00842
3860.0 0.00836
3865.0 0.0083
3870.0 0.00825
3875.0 0.0082
3880.0 0.00816
3885.0 0.00812
3890.0 0.00811
3895.0 0.00812
3900.0 0.00812
3905.0 0.00811
3910.0 0.00808
3915.0 0.00803
3920.0 0.00797
3925.0 0.00789
3930.0 0.00782
3935.0 0.00775
3940.0 0.00768
3945.0 0.00764
3950.0 0.0076
3955.0 0.0076
3960.0 0.00761
3965.0 0.0076
3970.0 0.00758
3975.0 0.00756
3980.0 0.00754
3985.0 0.00751
3990.0 0.00746
3995.0 0.00742
4000.0 0.00737
4005.0 0.00733
4010.0 0.0073
4015.0 0.00729
4020.0 0.00729
4025.0 0.0073
4030.0 0.00729
4035.0 0.00727
4040.0 0.00725
4045.0 0.00723
4050.0 0.00717
4055.0 0.0071
4060.0 0.00702
4065.0 0.00695
4070.0 0.00688
4075.0 0.00682
4080.0 0.00674
4085.0 0.00669
4090.0 0.00667
4095.0 0.00667
4100.0 0.00669
4105.0 0.00672
4110.0 0.00674
4115.0 0.00677
4120.0 0.0068
4125.0 0.00683
4130.0 0.00684
4135.0 0.00683
4140.0 0.0068
4145.0 0.00673
4150.0 0.00665
4155.0 0.00656
4160.0 0.00649
4165.0 0.00642
4170.0 0.00638
4175.0 0.00633
4180.0 0.00628
4185.0 0.00625
4190.0 0.00622
4195.0 0.00619
4200.0 0.00616
4205.0 0.00615
4210.0 0.00613
4215.0 0.00612
4220.0 0.00611
4225.0 0.00608
4230.0 0.00606
4235.0 0.00606
4240.0 0.00604
4245.0 0.00604
4250.0 0.00601
4255.0 0.00599
4260.0 0.00599
4265.0 0.006
4270.0 0.00599
4275.0 0.00599
4280.0 0.00596
4285.0 0.00593
4290.0 0.00589
4295.0 0.00586
4300.0 0.00583
4305.0 0.00581
4310.0 0.0058
4315.0 0.0058
4320.0 0.00582
4325.0 0.00584
4330.0 0.00586
4335.0 0.00589
4340.0 0.00591
4345.0 0.00593
4350.0 0.00594
4355.0 0.00593
4360.0 0.0059
4365.0 0.00585
4370.0 0.00578
4375.0 0.0057
4380.0 0.00561
4385.0 0.00551
4390.0 0.00542
4395.0 0.00536
4400.0 0.00531
4405.0 0.0053
4410.0 0.00531
4415.0 0.00533
4420.0 0.00538
4425.0 0.00542
4430.0 0.00548
4435.0 0.00554
4440.0 0.00559
4445.0 0.00562
4450.0 0.00563
4455.0 0.00562
4460.0 0.0056
4465.0 0.00558
4470.0 0.00553
4475.0 0.00548
4480.0 0.00545
4485.0 0.00541
4490.0 0.00537
4495.0 0.00534
4500.0 0.00531
4505.0 0.00528
4510.0 0.00525
4515.0 0.00523
4520.0 0.0052
4525.0 0.00515
4530.0 0.00511
4535.0 0.00508
4540.0 0.00507
4545.0 0.00507
4550.0 0.00506
4555.0 0.00506
4560.0 0.00506
4565.0 0.00507
4570.0 0.0051
4575.0 0.00516
4580.0 0.0052
4585.0 0.00521
4590.0 0.00522
4595.0 0.00521
4600.0 0.00519
4605.0 0.00516
4610.0 0.00512
4615.0 0.0051
4620.0 0.00507
4625.0 0.00504
4630.0 0.00502
4635.0 0.00501
4640.0 0.005
4645.0 0.005
4650.0 0.005
4655.0 0.005
4660.0 0.005
4665.0 0.005
4670.0 0.00501
4675.0 0.00499
4680.0 0.00496
4685.0 0.00493
4690.0 0.00489
4695.0 0.00483
4700.0 0.00477
4705.0 0.00471
4710.0 0.00465
4715.0 0.00462
4720.0 0.0046
4725.0 0.00459
4730.0 0.00459
4735.0 0.00458
4740.0 0.00459
4745.0 0.00459
4750.0 0.0046
4755.0 0.0046
4760.0 0.0046
4765.0 0.00459
4770.0 0.00458
4775.0 0.00457
4780.0 0.00457
4785.0 0.00459
4790.0 0.00459
4795.0 0.00458
4800.0 0.00456
4805.0 0.00455
4810.0 0.00454
4815.0 0.00454
4820.0 0.00453
4825.0 0.00453
4830.0 0.00453
4835.0 0.00454
4840.0 0.00455
4845.0 0.00456
4850.0 0.00457
4855.0 0.00457
4860.0 0.00456
4865.0 0.00456
4870.0 0.00455
4875.0 0.00454
4880.0 0.00453
4885.0 0.00452
4890.0 0.00451
4895.0 0.0045
4900.0 0.00449
4905.0 0.00446
4910.0 0.00443
4915.0 0.0044
4920.0 0.00438
4925.0 0.00437
4930.0 0.00438
4935.0 0.00438
4940.0 0.00437
4945.0 0.00436
4950.0 0.00435
4955.0 0.00434
4960.0 0.00433
4965.0 0.00432
4970.0 0.0043
4975.0 0.00429
4980.0 0.00428
4985.0 0.00428
4990.0 0.00427
4995.0 0.00427
5000.0 0.00426
5005.0 0.00424
5010.0 0.00423
5015.0 0.00421
5020.0 0.00419
5025.0 0.00417
5030.0 0.00415
5035.0 0.00414
5040.0 0.00413
5045.0 0.00412
5050.0 0.00411
5055.0 0.0041
5060.0 0.00408
5065.0 0.00407
5070.0 0.00405
5075.0 0.00405
5080.0 0.00404
5085.0 0.00403
5090.0 0.00401
5095.0 0.004
5100.0 0.00399
5105.0 0.00398
5110.0 0.00397
5115.0 0.00396
5120.0 0.00396
5125.0 0.00396
5130.0 0.00396
5135.0 0.00396
5140.0 0.00396
5145.0 0.00396
5150.0 0.00396
5155.0 0.00395
5160.0 0.00395
5165.0 0.00393
5170.0 0.00391
5175.0 0.00389
5180.0 0.00387
5185.0 0.00387
5190.0 0.00386
5195.0 0.00384
5200.0 0.00383
5205.0 0.00382
5210.0 0.00381
5215.0 0.0038
5220.0 0.0038
5225.0 0.00379
5230.0 0.00379
5235.0 0.00379
5240.0 0.00379
5245.0 0.00378
5250.0 0.00378
5255.0 0.00378
5260.0 0.00377
5265.0 0.00376
5270.0 0.00375
5275.0 0.00374
5280.0 0.00373
5285.0 0.00372
5290.0 0.00371
5295.0 0.0037
5300.0 0.00369
5305.0 0.00367
5310.0 0.00366
5315.0 0.00365
5320.0 0.00363
5325.0 0.00362
5330.0 0.00362
5335.0 0.00362
5340.0 0.00361
5345.0 0.00361
5350.0 0.00361
5355.0 0.00361
5360.0 0.00361
5365.0 0.00361
5370.0 0.0036
5375.0 0.00359
5380.0 0.00358
5385.0 0.00357
5390.0 0.00355
5395.0 0.00352
5400.0 0.0035
5405.0 0.00347
5410.0 0.00344
5415.0 0.00342
5420.0 0.0034
5425.0 0.00338
5430.0 0.00336
5435.0 0.00335
5440.0 0.00334
5445.0 0.00334
5450.0 0.00334
5455.0 0.00334
5460.0 0.00334
5465.0 0.00334
5470.0 0.00334
5475.0 0.00334
5480.0 0.00334
5485.0 0.00333
5490.0 0.00333
5495.0 0.00332
5500.0 0.00332
5505.0 0.00331
5510.0 0.0033
5515.0 0.00329
5520.0 0.00328
5525.0 0.00328
5530.0 0.00328
5535.0 0.00327
5540.0 0.00326
5545.0 0.00325
5550.0 0.00325
5555.0 0.00323
5560.0 0.00322
5565.0 0.00322
5570.0 0.00321
5575.0 0.00321
5580.0 0.0032
5585.0 0.00319
5590.0 0.00318
5595.0 0.00317
5600.0 0.00316
5605.0 0.00316
5610.0 0.00315
5615.0 0.00314
5620.0 0.00314
5625.0 0.00314
5630.0 0.00313
5635.0 0.00313
5640.0 0.00313
5645.0 0.00314
5650.0 0.00315
5655.0 0.00317
5660.0 0.00319
5665.0 0.00321
5670.0 0.00323
5675.0 0.00325
5680.0 0.00327
5685.0 0.00328
5690.0 0.00329
5695.0 0.00329
5700.0 0.00329
5705.0 0.00328
5710.0 0.00328
5715.0 0.00326
5720.0 0.00325
5725.0 0.00322
5730.0 0.0032
5735.0 0.00317
5740.0 0.00315
5745.0 0.00313
5750.0 0.00311
5755.0 0.00309
5760.0 0.00308
5765.0 0.00306
5770.0 0.00305
5775.0 0.00303
5780.0 0.00301
5785.0 0.003
5790.0 0.00299
5795.0 0.00299
5800.0 0.003
5805.0 0.00301
5810.0 0.003
5815.0 0.00298
5820.0 0.00296
5825.0 0.00294
5830.0 0.00292
5835.0 0.00291
5840.0 0.0029
5845.0 0.00289
5850.0 0.00289
5855.0 0.00289
5860.0 0.00289
5865.0 0.00289
5870.0 0.0029
5875.0 0.00291
5880.0 0.00292
5885.0 0.00293
5890.0 0.00295
5895.0 0.00296
5900.0 0.00297
5905.0 0.00297
5910.0 0.00296
5915.0 0.00295
5920.0 0.00294
5925.0 0.00291
5930.0 0.00288
5935.0 0.00286
5940.0 0.00285
5945.0 0.00285
5950.0 0.00285
5955.0 0.00284
5960.0 0.00282
5965.0 0.0028
5970.0 0.00278
5975.0 0.00276
5980.0 0.00275
5985.0 0.00273
5990.0 0.00271
5995.0 0.0027
6000.0 0.00268
6005.0 0.00267
6010.0 0.00266
6015.0 0.00265
6020.0 0.00263
6025.0 0.00262
6030.0 0.00261
6035.0 0.00259
6040.0 0.00258
6045.0 0.00257
6050.0 0.00256
6055.0 0.00255
6060.0 0.00254
6065.0 0.00253
6070.0 0.00252
6075.0 0.00252
6080.0 0.00251
6085.0 0.0025
6090.0 0.00249
6095.0 0.00248
6100.0 0.00248
6105.0 0.00247
6110.0 0.00246
6115.0 0.00245
6120.0 0.00244
6125.0 0.00243
6130.0 0.00242
6135.0 0.00241
6140.0 0.00241
6145.0 0.0024
6150.0 0.00239
6155.0 0.00238
6160.0 0.00238
6165.0 0.00237
6170.0 0.00237
6175.0 0.00237
6180.0 0.00236
6185.0 0.00235
6190.0 0.00234
6195.0 0.00234
6200.0 0.00234
6205.0 0.00233
6210.0 0.00233
6215.0 0.00233
6220.0 0.00233
6225.0 0.00233
6230.0 0.00233
6235.0 0.00233
6240.0 0.00232
6245.0 0.00232
6250.0 0.00232
6255.0 0.00231
6260.0 0.00231
6265.0 0.00231
6270.0 0.0023
6275.0 0.0023
6280.0 0.0023
6285.0 0.0023
6290.0 0.0023
6295.0 0.00229
6300.0 0.00229
6305.0 0.00229
6310.0 0.00229
6315.0 0.00229
6320.0 0.00228
6325.0 0.00228
6330.0 0.00227
6335.0 0.00227
6340.0 0.00226
6345.0 0.00226
6350.0 0.00225
6355.0 0.00223
6360.0 0.00222
6365.0 0.00221
6370.0 0.00221
6375.0 0.00221
6380.0 0.0022
6385.0 0.0022
6390.0 0.00219
6395.0 0.00218
6400.0 0.00217
6405.0 0.00217
6410.0 0.00216
6415.0 0.00215
6420.0 0.00215
6425.0 0.00214
6430.0 0.00213
6435.0 0.00213
6440.0 0.00214
6445.0 0.00214
6450.0 0.00214
6455.0 0.00214
6460.0 0.00213
6465.0 0.00213
6470.0 0.00213
6475.0 0.00213
6480.0 0.00214
6485.0 0.00216
6490.0 0.00215
6495.0 0.00213
6500.0 0.0021
6505.0 0.00207
6510.0 0.00206
6515.0 0.00205
6520.0 0.00206
6525.0 0.00208
6530.0 0.00211
6535.0 0.00214
6540.0 0.00217
6545.0 0.00221
6550.0 0.00226
6555.0 0.00229
6560.0 0.00232
6565.0 0.00234
6570.0 0.00235
6575.0 0.00234
6580.0 0.00232
6585.0 0.0023
6590.0 0.00226
6595.0 0.00222
6600.0 0.00217
6605.0 0.00212
6610.0 0.00206
6615.0 0.002
6620.0 0.00196
6625.0 0.00194
6630.0 0.00194
6635.0 0.00194
6640.0 0.00193
6645.0 0.00192
6650.0 0.00192
6655.0 0.00191
6660.0 0.00191
6665.0 0.00192
6670.0 0.00193
6675.0 0.00193
6680.0 0.00193
6685.0 0.00194
6690.0 0.00194
6695.0 0.00194
6700.0 0.00195
6705.0 0.00195
6710.0 0.00195
6715.0 0.00194
6720.0 0.00193
6725.0 0.00192
6730.0 0.0019
6735.0 0.00188
6740.0 0.00187
6745.0 0.00186
6750.0 0.00185
6755.0 0.00184
6760.0 0.00183
6765.0 0.00182
6770.0 0.00181
6775.0 0.00181
6780.0 0.0018
6785.0 0.00179
6790.0 0.00178
6795.0 0.00178
6800.0 0.00178
6805.0 0.00177
6810.0 0.00176
6815.0 0.00176
6820.0 0.00175
6825.0 0.00175
6830.0 0.00174
6835.0 0.00174
6840.0 0.00173
6845.0 0.00173
6850.0 0.00172
6855.0 0.00172
6860.0 0.00171
6865.0 0.0017
6870.0 0.0017
6875.0 0.00169
6880.0 0.00168
6885.0 0.00168
6890.0 0.00167
6895.0 0.00167
6900.0 0.00166
6905.0 0.00166
6910.0 0.00165
6915.0 0.00165
6920.0 0.00165
6925.0 0.00165
6930.0 0.00164
6935.0 0.00164
6940.0 0.00164
6945.0 0.00164
6950.0 0.00164
6955.0 0.00164
6960.0 0.00163
6965.0 0.00163
6970.0 0.00163
6975.0 0.00162
6980.0 0.00162
6985.0 0.00161
6990.0 0.00161
6995.0 0.00161
7000.0 0.0016
7005.0 0.00159
7010.0 0.00158
7015.0 0.00156
7020.0 0.00155
7025.0 0.00154
7030.0 0.00153
7035.0 0.00153
7040.0 0.00152
7045.0 0.00152
7050.0 0.00153
7055.0 0.00153
7060.0 0.00153
7065.0 0.00153
7070.0 0.00153
7075.0 0.00154
7080.0 0.00154
7085.0 0.00154
7090.0 0.00153
7095.0 0.00153
7100.0 0.00152
7105.0 0.00151
7110.0 0.00151
7115.0 0.0015
7120.0 0.00149
7125.0 0.00148
7130.0 0.00149
7135.0 0.0015
7140.0 0.00151
7145.0 0.00153
7150.0 0.00153
7155.0 0.00154
7160.0 0.00155
7165.0 0.00155
7170.0 0.00155
7175.0 0.00156
7180.0 0.00156
7185.0 0.00155
7190.0 0.00155
7195.0 0.00155
7200.0 0.00155
7205.0 0.00155
7210.0 0.00154
7215.0 0.00154
7220.0 0.00153
7225.0 0.00153
7230.0 0.00152
7235.0 0.00152
7240.0 0.00151
7245.0 0.00151
7250.0 0.0015
7255.0 0.00149
7260.0 0.00148
7265.0 0.00146
7270.0 0.00145
7275.0 0.00143
7280.0 0.00142
7285.0 0.00141
7290.0 0.0014
7295.0 0.0014
7300.0 0.00139
7305.0 0.00139
7310.0 0.00138
7315.0 0.00138
7320.0 0.00137
7325.0 0.00136
7330.0 0.00135
7335.0 0.00134
7340.0 0.00134
7345.0 0.00133
7350.0 0.00133
7355.0 0.00132
7360.0 0.00132
7365.0 0.00131
7370.0 0.0013
7375.0 0.00129
7380.0 0.00128
7385.0 0.00127
7390.0 0.00126
7395.0 0.00126
7400.0 0.00126
7405.0 0.00126
7410.0 0.00126
7415.0 0.00126
7420.0 0.00126
7425.0 0.00125
7430.0 0.00126
7435.0 0.00126
7440.0 0.00126
7445.0 0.00126
7450.0 0.00126
7455.0 0.00125
7460.0 0.00125
7465.0 0.00125
7470.0 0.00125
7475.0 0.00124
7480.0 0.00124
7485.0 0.00123
7490.0 0.00123
7495.0 0.00123
7500.0 0.00123
7505.0 0.00123
7510.0 0.00123
7515.0 0.00121
7520.0 0.0012
7525.0 0.00121
7530.0 0.00121
7535.0 0.00121
7540.0 0.00121
7545.0 0.00121
7550.0 0.00121
7555.0 0.00122
7560.0 0.00122
7565.0 0.00123
7570.0 0.00123
7575.0 0.00123
7580.0 0.00124
7585.0 0.00124
7590.0 0.00124
7595.0 0.00124
7600.0 0.00124
7605.0 0.00123
7610.0 0.00123
7615.0 0.00122
7620.0 0.00121
7625.0 0.00119
7630.0 0.00119
7635.0 0.00118
7640.0 0.00118
7645.0 0.00118
7650.0 0.00118
7655.0 0.00118
7660.0 0.00116
7665.0 0.00115
7670.0 0.00115
7675.0 0.00115
7680.0 0.00115
7685.0 0.00114
7690.0 0.00114
7695.0 0.00114
7700.0 0.00115
7705.0 0.00115
7710.0 0.00115
7715.0 0.00115
7720.0 0.00115
7725.0 0.00114
7730.0 0.00114
7735.0 0.00114
7740.0 0.00114
7745.0 0.00114
7750.0 0.00115
7755.0 0.00115
7760.0 0.00115
7765.0 0.00115
7770.0 0.00115
7775.0 0.00115
7780.0 0.00115
7785.0 0.00115
7790.0 0.00114
7795.0 0.00114
7800.0 0.00114
7805.0 0.00113
7810.0 0.00113
7815.0 0.00112
7820.0 0.00112
7825.0 0.00111
7830.0 0.00111
7835.0 0.00111
7840.0 0.00111
7845.0 0.0011
7850.0 0.0011
7855.0 0.0011
7860.0 0.0011
7865.0 0.0011
7870.0 0.00109
7875.0 0.00109
7880.0 0.00108
7885.0 0.00108
7890.0 0.00108
7895.0 0.00107
7900.0 0.00107
7905.0 0.00107
7910.0 0.00107
7915.0 0.00107
7920.0 0.00107
7925.0 0.00108
7930.0 0.00108
7935.0 0.00109
7940.0 0.00109
7945.0 0.00109
7950.0 0.00108
7955.0 0.00108
7960.0 0.00107
7965.0 0.00107
7970.0 0.00107
7975.0 0.00106
7980.0 0.00107
7985.0 0.00107
7990.0 0.00107
7995.0 0.00107
8000.0 0.00106
8005.0 0.00106
8010.0 0.00106
8015.0 0.00106
8020.0 0.00106
8025.0 0.00105
8030.0 0.00105
8035.0 0.00105
8040.0 0.00105
8045.0 0.00105
8050.0 0.00104
8055.0 0.00104
8060.0 0.00103
8065.0 0.00103
8070.0 0.00103
8075.0 0.00102
8080.0 0.00102
8085.0 0.00102
8090.0 0.00102
8095.0 0.00102
8100.0 0.00102
8105.0 0.00102
8110.0 0.00103
8115.0 0.00103
8120.0 0.00104
8125.0 0.00105
8130.0 0.00107
8135.0 0.00108
8140.0 0.00109
8145.0 0.00109
8150.0 0.00109
8155.0 0.00109
8160.0 0.00108
8165.0 0.00108
8170.0 0.00108
8175.0 0.00108
8180.0 0.00108
8185.0 0.00108
8190.0 0.00108
8195.0 0.00108
8200.0 0.00108
8205.0 0.00108
8210.0 0.00108
8215.0 0.00108
8220.0 0.00107
8225.0 0.00107
8230.0 0.00107
8235.0 0.00106
8240.0 0.00106
8245.0 0.00105
8250.0 0.00104
8255.0 0.00104
8260.0 0.00103
8265.0 0.00103
8270.0 0.00103
8275.0 0.00104
8280.0 0.00104
8285.0 0.00104
8290.0 0.00104
8295.0 0.00103
8300.0 0.00103
8305.0 0.00102
8310.0 0.00101
8315.0 0.000997
8320.0 0.000989
8325.0 0.000978
8330.0 0.00097
8335.0 0.000965
8340.0 0.000962
8345.0 0.000957
8350.0 0.000956
8355.0 0.000948
8360.0 0.000941
8365.0 0.000941
8370.0 0.000945
8375.0 0.000945
8380.0 0.000944
8385.0 0.000946
8390.0 0.000949
8395.0 0.000951
8400.0 0.000953
8405.0 0.000955
8410.0 0.000954
8415.0 0.000957
8420.0 0.000959
8425.0 0.00096
8430.0 0.000962
