#lamb flux
1605.0 0.000967
1610.0 0.000976
1615.0 0.000984
1620.0 0.000992
1625.0 0.001
1630.0 0.00101
1635.0 0.00102
1640.0 0.00103
1645.0 0.00104
1650.0 0.00104
1655.0 0.00105
1660.0 0.00106
1665.0 0.00107
1670.0 0.00108
1675.0 0.00109
1680.0 0.0011
1685.0 0.00111
1690.0 0.00112
1695.0 0.00113
1700.0 0.00114
1705.0 0.00115
1710.0 0.00116
1715.0 0.00117
1720.0 0.00118
1725.0 0.00119
1730.0 0.0012
1735.0 0.00121
1740.0 0.00122
1745.0 0.00123
1750.0 0.00124
1755.0 0.00125
1760.0 0.00126
1765.0 0.00127
1770.0 0.00128
1775.0 0.00129
1780.0 0.0013
1785.0 0.00132
1790.0 0.00133
1795.0 0.00134
1800.0 0.00135
1805.0 0.00136
1810.0 0.00137
1815.0 0.00139
1820.0 0.0014
1825.0 0.00141
1830.0 0.00142
1835.0 0.00143
1840.0 0.00144
1845.0 0.00146
1850.0 0.00147
1855.0 0.00148
1860.0 0.00149
1865.0 0.00151
1870.0 0.00152
1875.0 0.00153
1880.0 0.00154
1885.0 0.00156
1890.0 0.00157
1895.0 0.00158
1900.0 0.00159
1905.0 0.00161
1910.0 0.00162
1915.0 0.00163
1920.0 0.00165
1925.0 0.00166
1930.0 0.00167
1935.0 0.00169
1940.0 0.0017
1945.0 0.00171
1950.0 0.00173
1955.0 0.00174
1960.0 0.00175
1965.0 0.00177
1970.0 0.00178
1975.0 0.00179
1980.0 0.0018
1985.0 0.00182
1990.0 0.00183
1995.0 0.00184
2000.0 0.00186
2005.0 0.00187
2010.0 0.00188
2015.0 0.0019
2020.0 0.00191
2025.0 0.00192
2030.0 0.00194
2035.0 0.00195
2040.0 0.00196
2045.0 0.00197
2050.0 0.00199
2055.0 0.002
2060.0 0.00201
2065.0 0.00202
2070.0 0.00204
2075.0 0.00205
2080.0 0.00206
2085.0 0.00207
2090.0 0.00208
2095.0 0.00209
2100.0 0.00211
2105.0 0.00212
2110.0 0.00213
2115.0 0.00214
2120.0 0.00215
2125.0 0.00216
2130.0 0.00217
2135.0 0.00218
2140.0 0.00219
2145.0 0.00221
2150.0 0.00222
2155.0 0.00223
2160.0 0.00224
2165.0 0.00225
2170.0 0.00226
2175.0 0.00227
2180.0 0.00228
2185.0 0.00229
2190.0 0.0023
2195.0 0.00231
2200.0 0.00232
2205.0 0.00233
2210.0 0.00234
2215.0 0.00235
2220.0 0.00236
2225.0 0.00237
2230.0 0.00238
2235.0 0.00239
2240.0 0.0024
2245.0 0.0024
2250.0 0.00241
2255.0 0.00242
2260.0 0.00243
2265.0 0.00244
2270.0 0.00245
2275.0 0.00246
2280.0 0.00247
2285.0 0.00248
2290.0 0.00249
2295.0 0.0025
2300.0 0.00251
2305.0 0.00252
2310.0 0.00253
2315.0 0.00254
2320.0 0.00255
2325.0 0.00256
2330.0 0.00257
2335.0 0.00258
2340.0 0.00259
2345.0 0.0026
2350.0 0.00261
2355.0 0.00262
2360.0 0.00263
2365.0 0.00265
2370.0 0.00266
2375.0 0.00267
2380.0 0.00268
2385.0 0.00269
2390.0 0.0027
2395.0 0.00272
2400.0 0.00273
2405.0 0.00274
2410.0 0.00275
2415.0 0.00276
2420.0 0.00278
2425.0 0.00279
2430.0 0.0028
2435.0 0.00282
2440.0 0.00283
2445.0 0.00284
2450.0 0.00286
2455.0 0.00287
2460.0 0.00289
2465.0 0.0029
2470.0 0.00292
2475.0 0.00293
2480.0 0.00295
2485.0 0.00296
2490.0 0.00298
2495.0 0.003
2500.0 0.00301
2505.0 0.00303
2510.0 0.00305
2515.0 0.00307
2520.0 0.00308
2525.0 0.0031
2530.0 0.00312
2535.0 0.00314
2540.0 0.00316
2545.0 0.00318
2550.0 0.0032
2555.0 0.00322
2560.0 0.00324
2565.0 0.00326
2570.0 0.00328
2575.0 0.0033
2580.0 0.00332
2585.0 0.00334
2590.0 0.00336
2595.0 0.00338
2600.0 0.00341
2605.0 0.00343
2610.0 0.00345
2615.0 0.00347
2620.0 0.0035
2625.0 0.00352
2630.0 0.00355
2635.0 0.00357
2640.0 0.0036
2645.0 0.00362
2650.0 0.00365
2655.0 0.00367
2660.0 0.0037
2665.0 0.00373
2670.0 0.00375
2675.0 0.00378
2680.0 0.00381
2685.0 0.00383
2690.0 0.00386
2695.0 0.00389
2700.0 0.00392
2705.0 0.00395
2710.0 0.00398
2715.0 0.00401
2720.0 0.00404
2725.0 0.00407
2730.0 0.0041
2735.0 0.00413
2740.0 0.00416
2745.0 0.0042
2750.0 0.00423
2755.0 0.00426
2760.0 0.0043
2765.0 0.00433
2770.0 0.00436
2775.0 0.00439
2780.0 0.00443
2785.0 0.00447
2790.0 0.0045
2795.0 0.00454
2800.0 0.00457
2805.0 0.00461
2810.0 0.00464
2815.0 0.00468
2820.0 0.00472
2825.0 0.00475
2830.0 0.00479
2835.0 0.00483
2840.0 0.00486
2845.0 0.0049
2850.0 0.00494
2855.0 0.00498
2860.0 0.00501
2865.0 0.00505
2870.0 0.00509
2875.0 0.00513
2880.0 0.00517
2885.0 0.00521
2890.0 0.00525
2895.0 0.00528
2900.0 0.00532
2905.0 0.00536
2910.0 0.0054
2915.0 0.00544
2920.0 0.00548
2925.0 0.00551
2930.0 0.00555
2935.0 0.00559
2940.0 0.00563
2945.0 0.00566
2950.0 0.0057
2955.0 0.00574
2960.0 0.00578
2965.0 0.00581
2970.0 0.00585
2975.0 0.00589
2980.0 0.00592
2985.0 0.00596
2990.0 0.00599
2995.0 0.00603
3000.0 0.00606
3005.0 0.00609
3010.0 0.00612
3015.0 0.00616
3020.0 0.00619
3025.0 0.00622
3030.0 0.00625
3035.0 0.00628
3040.0 0.0063
3045.0 0.00633
3050.0 0.00636
3055.0 0.00638
3060.0 0.00641
3065.0 0.00643
3070.0 0.00645
3075.0 0.00647
3080.0 0.00649
3085.0 0.00651
3090.0 0.00653
3095.0 0.00655
3100.0 0.00656
3105.0 0.00658
3110.0 0.00659
3115.0 0.0066
3120.0 0.00661
3125.0 0.00662
3130.0 0.00662
3135.0 0.00663
3140.0 0.00663
3145.0 0.00663
3150.0 0.00663
3155.0 0.00663
3160.0 0.00663
3165.0 0.00662
3170.0 0.00661
3175.0 0.0066
3180.0 0.00659
3185.0 0.00658
3190.0 0.00656
3195.0 0.00655
3200.0 0.00653
3205.0 0.00651
3210.0 0.00649
3215.0 0.00646
3220.0 0.00643
3225.0 0.0064
3230.0 0.00637
3235.0 0.00634
3240.0 0.00631
3245.0 0.00627
3250.0 0.00623
3255.0 0.00619
3260.0 0.00615
3265.0 0.00611
3270.0 0.00606
3275.0 0.00601
3280.0 0.00597
3285.0 0.00591
3290.0 0.00586
3295.0 0.00581
3300.0 0.00575
3305.0 0.0057
3310.0 0.00564
3315.0 0.00558
3320.0 0.00552
3325.0 0.00546
3330.0 0.0054
3335.0 0.00534
3340.0 0.00528
3345.0 0.00521
3350.0 0.00515
3355.0 0.00509
3360.0 0.00502
3365.0 0.00496
3370.0 0.00489
3375.0 0.00483
3380.0 0.00477
3385.0 0.0047
3390.0 0.00464
3395.0 0.00458
3400.0 0.00452
3405.0 0.00446
3410.0 0.0044
3415.0 0.00434
3420.0 0.00428
3425.0 0.00422
3430.0 0.00416
3435.0 0.00411
3440.0 0.00406
3445.0 0.004
3450.0 0.00395
3455.0 0.0039
3460.0 0.00385
3465.0 0.0038
3470.0 0.00376
3475.0 0.00371
3480.0 0.00367
3485.0 0.00362
3490.0 0.00358
3495.0 0.00354
3500.0 0.0035
3505.0 0.00346
3510.0 0.00342
3515.0 0.00339
3520.0 0.00335
3525.0 0.00332
3530.0 0.00329
3535.0 0.00325
3540.0 0.00322
3545.0 0.00319
3550.0 0.00316
3555.0 0.00313
3560.0 0.00311
3565.0 0.00308
3570.0 0.00305
3575.0 0.00303
3580.0 0.00301
3585.0 0.00298
3590.0 0.00296
3595.0 0.00294
3600.0 0.00292
3605.0 0.0029
3610.0 0.00288
3615.0 0.00286
3620.0 0.00284
3625.0 0.00282
3630.0 0.0028
3635.0 0.00279
3640.0 0.00277
3645.0 0.00276
3650.0 0.00274
3655.0 0.00273
3660.0 0.00272
3665.0 0.00271
3670.0 0.0027
3675.0 0.00269
3680.0 0.00268
3685.0 0.00267
3690.0 0.00266
3695.0 0.00266
3700.0 0.00265
3705.0 0.00265
3710.0 0.00265
3715.0 0.00265
3720.0 0.00265
3725.0 0.00266
3730.0 0.00266
3735.0 0.00267
3740.0 0.00268
3745.0 0.00269
3750.0 0.0027
3755.0 0.00271
3760.0 0.00273
3765.0 0.00274
3770.0 0.00276
3775.0 0.00278
3780.0 0.0028
3785.0 0.00283
3790.0 0.00285
3795.0 0.00288
3800.0 0.0029
3805.0 0.00293
3810.0 0.00296
3815.0 0.00299
3820.0 0.00302
3825.0 0.00305
3830.0 0.00308
3835.0 0.00311
3840.0 0.00314
3845.0 0.00317
3850.0 0.0032
3855.0 0.00322
3860.0 0.00325
3865.0 0.00327
3870.0 0.00329
3875.0 0.00331
3880.0 0.00333
3885.0 0.00335
3890.0 0.00336
3895.0 0.00338
3900.0 0.00339
3905.0 0.0034
3910.0 0.00341
3915.0 0.00341
3920.0 0.00341
3925.0 0.00342
3930.0 0.00342
3935.0 0.00342
3940.0 0.00342
3945.0 0.00341
3950.0 0.00341
3955.0 0.0034
3960.0 0.00339
3965.0 0.00339
3970.0 0.00338
3975.0 0.00336
3980.0 0.00335
3985.0 0.00334
3990.0 0.00333
3995.0 0.00331
4000.0 0.00329
4005.0 0.00328
4010.0 0.00326
4015.0 0.00324
4020.0 0.00322
4025.0 0.0032
4030.0 0.00318
4035.0 0.00316
4040.0 0.00314
4045.0 0.00312
4050.0 0.0031
4055.0 0.00309
4060.0 0.00307
4065.0 0.00305
4070.0 0.00303
4075.0 0.00301
4080.0 0.003
4085.0 0.00298
4090.0 0.00296
4095.0 0.00295
4100.0 0.00294
4105.0 0.00293
4110.0 0.00292
4115.0 0.00291
4120.0 0.0029
4125.0 0.0029
4130.0 0.0029
4135.0 0.00289
4140.0 0.00289
4145.0 0.0029
4150.0 0.0029
4155.0 0.0029
4160.0 0.00291
4165.0 0.00292
4170.0 0.00293
4175.0 0.00294
4180.0 0.00295
4185.0 0.00297
4190.0 0.00298
4195.0 0.003
4200.0 0.00301
4205.0 0.00303
4210.0 0.00305
4215.0 0.00307
4220.0 0.00308
4225.0 0.0031
4230.0 0.00312
4235.0 0.00313
4240.0 0.00315
4245.0 0.00316
4250.0 0.00317
4255.0 0.00318
4260.0 0.00319
4265.0 0.0032
4270.0 0.00321
4275.0 0.00322
4280.0 0.00322
4285.0 0.00323
4290.0 0.00323
4295.0 0.00323
4300.0 0.00324
4305.0 0.00324
4310.0 0.00324
4315.0 0.00324
4320.0 0.00324
4325.0 0.00324
4330.0 0.00324
4335.0 0.00324
4340.0 0.00323
4345.0 0.00323
4350.0 0.00323
4355.0 0.00323
4360.0 0.00323
4365.0 0.00324
4370.0 0.00324
4375.0 0.00324
4380.0 0.00324
4385.0 0.00324
4390.0 0.00325
4395.0 0.00325
4400.0 0.00326
4405.0 0.00326
4410.0 0.00327
4415.0 0.00327
4420.0 0.00328
4425.0 0.00328
4430.0 0.00329
4435.0 0.0033
4440.0 0.0033
4445.0 0.00331
4450.0 0.00331
4455.0 0.00332
4460.0 0.00332
4465.0 0.00333
4470.0 0.00333
4475.0 0.00333
4480.0 0.00333
4485.0 0.00333
4490.0 0.00333
4495.0 0.00333
4500.0 0.00332
4505.0 0.00331
4510.0 0.0033
4515.0 0.00329
4520.0 0.00328
4525.0 0.00326
4530.0 0.00324
4535.0 0.00322
4540.0 0.0032
4545.0 0.00318
4550.0 0.00316
4555.0 0.00313
4560.0 0.00311
4565.0 0.00308
4570.0 0.00305
4575.0 0.00302
4580.0 0.00299
4585.0 0.00297
4590.0 0.00294
4595.0 0.00291
4600.0 0.00289
4605.0 0.00286
4610.0 0.00284
4615.0 0.00282
4620.0 0.0028
4625.0 0.00278
4630.0 0.00277
4635.0 0.00276
4640.0 0.00274
4645.0 0.00274
4650.0 0.00273
4655.0 0.00273
4660.0 0.00273
4665.0 0.00273
4670.0 0.00273
4675.0 0.00273
4680.0 0.00274
4685.0 0.00275
4690.0 0.00276
4695.0 0.00277
4700.0 0.00279
4705.0 0.0028
4710.0 0.00282
4715.0 0.00284
4720.0 0.00286
4725.0 0.00287
4730.0 0.00289
4735.0 0.00291
4740.0 0.00293
4745.0 0.00295
4750.0 0.00297
4755.0 0.00299
4760.0 0.00301
4765.0 0.00303
4770.0 0.00304
4775.0 0.00306
4780.0 0.00308
4785.0 0.0031
4790.0 0.00311
4795.0 0.00313
4800.0 0.00314
4805.0 0.00316
4810.0 0.00317
4815.0 0.00318
4820.0 0.00319
4825.0 0.0032
4830.0 0.00321
4835.0 0.00322
4840.0 0.00322
4845.0 0.00322
4850.0 0.00322
4855.0 0.00322
4860.0 0.00322
4865.0 0.00322
4870.0 0.00321
4875.0 0.0032
4880.0 0.00319
4885.0 0.00318
4890.0 0.00317
4895.0 0.00315
4900.0 0.00314
4905.0 0.00312
4910.0 0.00311
4915.0 0.00309
4920.0 0.00308
4925.0 0.00306
4930.0 0.00305
4935.0 0.00303
4940.0 0.00302
4945.0 0.00301
4950.0 0.003
4955.0 0.00299
4960.0 0.00298
4965.0 0.00297
4970.0 0.00296
4975.0 0.00296
4980.0 0.00296
4985.0 0.00295
4990.0 0.00295
4995.0 0.00295
5000.0 0.00295
5005.0 0.00296
5010.0 0.00296
5015.0 0.00296
5020.0 0.00297
5025.0 0.00298
5030.0 0.00298
5035.0 0.00299
5040.0 0.003
5045.0 0.00301
5050.0 0.00302
5055.0 0.00303
5060.0 0.00305
5065.0 0.00306
5070.0 0.00307
5075.0 0.00309
5080.0 0.0031
5085.0 0.00311
5090.0 0.00313
5095.0 0.00314
5100.0 0.00315
5105.0 0.00317
5110.0 0.00318
5115.0 0.00319
5120.0 0.0032
5125.0 0.00321
5130.0 0.00322
5135.0 0.00323
5140.0 0.00324
5145.0 0.00324
5150.0 0.00325
5155.0 0.00325
5160.0 0.00325
5165.0 0.00325
5170.0 0.00325
5175.0 0.00324
5180.0 0.00324
5185.0 0.00323
5190.0 0.00322
5195.0 0.00321
5200.0 0.0032
5205.0 0.00318
5210.0 0.00317
5215.0 0.00315
5220.0 0.00313
5225.0 0.00311
5230.0 0.00309
5235.0 0.00307
5240.0 0.00305
5245.0 0.00303
5250.0 0.003
5255.0 0.00298
5260.0 0.00295
5265.0 0.00293
5270.0 0.00291
5275.0 0.00288
5280.0 0.00286
5285.0 0.00283
5290.0 0.00281
5295.0 0.00278
5300.0 0.00276
5305.0 0.00274
5310.0 0.00271
5315.0 0.00269
5320.0 0.00267
5325.0 0.00265
5330.0 0.00263
5335.0 0.00261
5340.0 0.00259
5345.0 0.00257
5350.0 0.00256
5355.0 0.00254
5360.0 0.00252
5365.0 0.00251
5370.0 0.00249
5375.0 0.00248
5380.0 0.00246
5385.0 0.00245
5390.0 0.00243
5395.0 0.00242
5400.0 0.00241
5405.0 0.00239
5410.0 0.00238
5415.0 0.00236
5420.0 0.00235
5425.0 0.00234
5430.0 0.00232
5435.0 0.00231
5440.0 0.00229
5445.0 0.00227
5450.0 0.00226
5455.0 0.00224
5460.0 0.00222
5465.0 0.00221
5470.0 0.00219
5475.0 0.00217
5480.0 0.00216
5485.0 0.00214
5490.0 0.00212
5495.0 0.0021
5500.0 0.00209
5505.0 0.00207
5510.0 0.00205
5515.0 0.00204
5520.0 0.00202
5525.0 0.002
5530.0 0.00199
5535.0 0.00197
5540.0 0.00195
5545.0 0.00194
5550.0 0.00192
5555.0 0.0019
5560.0 0.00189
5565.0 0.00187
5570.0 0.00185
5575.0 0.00184
5580.0 0.00182
5585.0 0.00181
5590.0 0.00179
5595.0 0.00178
5600.0 0.00176
5605.0 0.00175
5610.0 0.00174
5615.0 0.00173
5620.0 0.00171
5625.0 0.0017
5630.0 0.00169
5635.0 0.00169
5640.0 0.00168
5645.0 0.00167
5650.0 0.00166
5655.0 0.00166
5660.0 0.00165
5665.0 0.00165
5670.0 0.00165
5675.0 0.00165
5680.0 0.00165
5685.0 0.00165
5690.0 0.00165
5695.0 0.00165
5700.0 0.00165
5705.0 0.00165
5710.0 0.00166
5715.0 0.00166
5720.0 0.00166
5725.0 0.00166
5730.0 0.00167
5735.0 0.00167
5740.0 0.00167
5745.0 0.00167
5750.0 0.00167
5755.0 0.00167
5760.0 0.00166
5765.0 0.00166
5770.0 0.00166
5775.0 0.00165
5780.0 0.00165
5785.0 0.00164
5790.0 0.00163
5795.0 0.00163
5800.0 0.00162
5805.0 0.00161
5810.0 0.0016
5815.0 0.00159
5820.0 0.00159
5825.0 0.00158
5830.0 0.00157
5835.0 0.00156
5840.0 0.00155
5845.0 0.00155
5850.0 0.00154
5855.0 0.00153
5860.0 0.00152
5865.0 0.00152
5870.0 0.00151
5875.0 0.0015
5880.0 0.0015
5885.0 0.00149
5890.0 0.00149
5895.0 0.00148
5900.0 0.00148
5905.0 0.00147
5910.0 0.00147
5915.0 0.00146
5920.0 0.00146
5925.0 0.00146
5930.0 0.00145
5935.0 0.00145
5940.0 0.00145
5945.0 0.00144
5950.0 0.00144
5955.0 0.00143
5960.0 0.00143
5965.0 0.00143
5970.0 0.00142
5975.0 0.00142
5980.0 0.00142
5985.0 0.00141
5990.0 0.00141
5995.0 0.0014
6000.0 0.0014
6005.0 0.00139
6010.0 0.00139
6015.0 0.00138
6020.0 0.00138
6025.0 0.00137
6030.0 0.00136
6035.0 0.00136
6040.0 0.00135
6045.0 0.00135
6050.0 0.00134
6055.0 0.00133
6060.0 0.00133
6065.0 0.00132
6070.0 0.00131
6075.0 0.00131
6080.0 0.0013
6085.0 0.0013
6090.0 0.00129
6095.0 0.00129
6100.0 0.00128
6105.0 0.00128
6110.0 0.00128
6115.0 0.00127
6120.0 0.00127
6125.0 0.00127
6130.0 0.00127
6135.0 0.00127
6140.0 0.00128
6145.0 0.00128
6150.0 0.00128
6155.0 0.00129
6160.0 0.0013
6165.0 0.00131
6170.0 0.00132
6175.0 0.00133
6180.0 0.00135
6185.0 0.00137
6190.0 0.00138
6195.0 0.00141
6200.0 0.00143
6205.0 0.00146
6210.0 0.00149
6215.0 0.00152
6220.0 0.00156
6225.0 0.0016
6230.0 0.00164
6235.0 0.00169
6240.0 0.00174
6245.0 0.0018
6250.0 0.00185
6255.0 0.00191
6260.0 0.00198
6265.0 0.00205
6270.0 0.00212
6275.0 0.00219
6280.0 0.00227
6285.0 0.00235
6290.0 0.00243
6295.0 0.00251
6300.0 0.0026
6305.0 0.00268
6310.0 0.00277
6315.0 0.00285
6320.0 0.00293
6325.0 0.00301
6330.0 0.00309
6335.0 0.00316
6340.0 0.00323
6345.0 0.00329
6350.0 0.00335
6355.0 0.0034
6360.0 0.00345
6365.0 0.00348
6370.0 0.00352
6375.0 0.00354
6380.0 0.00355
6385.0 0.00356
6390.0 0.00356
6395.0 0.00355
6400.0 0.00353
6405.0 0.00351
6410.0 0.00348
6415.0 0.00345
6420.0 0.00341
6425.0 0.00337
6430.0 0.00332
6435.0 0.00328
6440.0 0.00323
6445.0 0.00319
6450.0 0.00314
6455.0 0.0031
6460.0 0.00306
6465.0 0.00303
6470.0 0.003
6475.0 0.00298
6480.0 0.00296
6485.0 0.00295
6490.0 0.00294
6495.0 0.00293
6500.0 0.00292
6505.0 0.00292
6510.0 0.00292
6515.0 0.00291
6520.0 0.00291
6525.0 0.00291
6530.0 0.00291
6535.0 0.00291
6540.0 0.0029
6545.0 0.0029
6550.0 0.0029
6555.0 0.00289
6560.0 0.00289
6565.0 0.00288
6570.0 0.00288
6575.0 0.00287
6580.0 0.00286
6585.0 0.00285
6590.0 0.00285
6595.0 0.00284
6600.0 0.00283
6605.0 0.00282
6610.0 0.00281
6615.0 0.0028
6620.0 0.00279
6625.0 0.00278
6630.0 0.00277
6635.0 0.00276
6640.0 0.00275
6645.0 0.00274
6650.0 0.00273
6655.0 0.00272
6660.0 0.00271
6665.0 0.0027
6670.0 0.00268
6675.0 0.00267
6680.0 0.00266
6685.0 0.00264
6690.0 0.00263
6695.0 0.00262
6700.0 0.0026
6705.0 0.00258
6710.0 0.00257
6715.0 0.00255
6720.0 0.00254
6725.0 0.00252
6730.0 0.0025
6735.0 0.00248
6740.0 0.00247
6745.0 0.00245
6750.0 0.00243
6755.0 0.00241
6760.0 0.00239
6765.0 0.00237
6770.0 0.00235
6775.0 0.00233
6780.0 0.00231
6785.0 0.00229
6790.0 0.00227
6795.0 0.00225
6800.0 0.00223
6805.0 0.0022
6810.0 0.00218
6815.0 0.00216
6820.0 0.00214
6825.0 0.00212
6830.0 0.00209
6835.0 0.00207
6840.0 0.00205
6845.0 0.00202
6850.0 0.002
6855.0 0.00198
6860.0 0.00195
6865.0 0.00193
6870.0 0.0019
6875.0 0.00188
6880.0 0.00186
6885.0 0.00183
6890.0 0.00181
6895.0 0.00178
6900.0 0.00176
6905.0 0.00173
6910.0 0.00171
6915.0 0.00168
6920.0 0.00166
6925.0 0.00163
6930.0 0.00161
6935.0 0.00158
6940.0 0.00156
6945.0 0.00153
6950.0 0.00151
6955.0 0.00149
6960.0 0.00146
6965.0 0.00144
6970.0 0.00142
6975.0 0.0014
6980.0 0.00138
6985.0 0.00136
6990.0 0.00134
6995.0 0.00132
7000.0 0.0013
7005.0 0.00129
7010.0 0.00127
7015.0 0.00126
7020.0 0.00124
7025.0 0.00123
7030.0 0.00122
7035.0 0.00121
7040.0 0.0012
7045.0 0.00119
7050.0 0.00118
7055.0 0.00117
7060.0 0.00117
7065.0 0.00116
7070.0 0.00116
7075.0 0.00115
7080.0 0.00115
7085.0 0.00115
7090.0 0.00114
7095.0 0.00114
7100.0 0.00114
7105.0 0.00114
7110.0 0.00114
7115.0 0.00113
7120.0 0.00113
7125.0 0.00113
7130.0 0.00113
7135.0 0.00113
7140.0 0.00113
7145.0 0.00113
7150.0 0.00112
7155.0 0.00112
7160.0 0.00112
7165.0 0.00112
7170.0 0.00112
7175.0 0.00112
7180.0 0.00112
7185.0 0.00112
7190.0 0.00111
7195.0 0.00111
7200.0 0.00111
7205.0 0.00111
7210.0 0.00111
7215.0 0.00111
7220.0 0.00111
7225.0 0.00111
7230.0 0.00111
7235.0 0.00111
7240.0 0.00111
7245.0 0.00111
7250.0 0.00111
7255.0 0.00111
7260.0 0.00111
7265.0 0.00111
7270.0 0.00111
7275.0 0.00111
7280.0 0.00111
7285.0 0.00111
7290.0 0.00111
7295.0 0.00111
7300.0 0.00111
7305.0 0.00111
7310.0 0.00111
7315.0 0.00111
7320.0 0.0011
7325.0 0.0011
7330.0 0.0011
7335.0 0.0011
7340.0 0.0011
7345.0 0.0011
7350.0 0.0011
7355.0 0.0011
7360.0 0.00109
7365.0 0.00109
7370.0 0.00109
7375.0 0.00109
7380.0 0.00108
7385.0 0.00108
7390.0 0.00108
7395.0 0.00107
7400.0 0.00107
7405.0 0.00107
7410.0 0.00106
7415.0 0.00106
7420.0 0.00105
7425.0 0.00105
7430.0 0.00104
7435.0 0.00104
7440.0 0.00103
7445.0 0.00103
7450.0 0.00102
7455.0 0.00102
7460.0 0.00101
7465.0 0.001
7470.0 0.000998
7475.0 0.000992
7480.0 0.000986
7485.0 0.00098
7490.0 0.000974
7495.0 0.000968
7500.0 0.000962
7505.0 0.000956
7510.0 0.000951
7515.0 0.000946
7520.0 0.000941
7525.0 0.000936
7530.0 0.000931
7535.0 0.000927
7540.0 0.000924
7545.0 0.00092
7550.0 0.000917
7555.0 0.000914
7560.0 0.000912
7565.0 0.00091
7570.0 0.000908
7575.0 0.000907
7580.0 0.000906
7585.0 0.000906
7590.0 0.000905
7595.0 0.000906
7600.0 0.000906
7605.0 0.000906
7610.0 0.000907
7615.0 0.000907
7620.0 0.000908
7625.0 0.000909
7630.0 0.00091
7635.0 0.00091
7640.0 0.000911
7645.0 0.000911
7650.0 0.000912
7655.0 0.000912
7660.0 0.000912
7665.0 0.000912
7670.0 0.000911
7675.0 0.000911
7680.0 0.00091
7685.0 0.000909
7690.0 0.000907
7695.0 0.000906
7700.0 0.000904
7705.0 0.000902
7710.0 0.000899
7715.0 0.000897
7720.0 0.000894
7725.0 0.000891
7730.0 0.000888
7735.0 0.000885
7740.0 0.000881
7745.0 0.000878
7750.0 0.000874
7755.0 0.000871
7760.0 0.000867
7765.0 0.000863
7770.0 0.00086
7775.0 0.000856
7780.0 0.000853
7785.0 0.000849
7790.0 0.000845
7795.0 0.000842
7800.0 0.000839
7805.0 0.000835
7810.0 0.000832
7815.0 0.000829
7820.0 0.000827
7825.0 0.000824
7830.0 0.000822
7835.0 0.000819
7840.0 0.000817
7845.0 0.000815
7850.0 0.000813
7855.0 0.000811
7860.0 0.000809
7865.0 0.000808
7870.0 0.000806
7875.0 0.000804
7880.0 0.000803
7885.0 0.000801
7890.0 0.000799
7895.0 0.000797
7900.0 0.000795
7905.0 0.000793
7910.0 0.000791
7915.0 0.000789
7920.0 0.000786
7925.0 0.000783
7930.0 0.00078
7935.0 0.000777
7940.0 0.000773
7945.0 0.000769
7950.0 0.000764
7955.0 0.00076
7960.0 0.000755
7965.0 0.00075
7970.0 0.000744
7975.0 0.000738
7980.0 0.000732
7985.0 0.000726
7990.0 0.00072
7995.0 0.000713
8000.0 0.000707
8005.0 0.0007
8010.0 0.000694
8015.0 0.000688
8020.0 0.000681
8025.0 0.000675
8030.0 0.000669
8035.0 0.000663
8040.0 0.000657
8045.0 0.000651
8050.0 0.000646
8055.0 0.00064
8060.0 0.000635
8065.0 0.00063
8070.0 0.000625
8075.0 0.000621
8080.0 0.000616
8085.0 0.000612
8090.0 0.000608
8095.0 0.000604
8100.0 0.000601
8105.0 0.000597
8110.0 0.000594
8115.0 0.000591
8120.0 0.000588
8125.0 0.000585
8130.0 0.000583
8135.0 0.00058
8140.0 0.000578
8145.0 0.000576
8150.0 0.000574
8155.0 0.000572
8160.0 0.00057
8165.0 0.000569
8170.0 0.000567
8175.0 0.000566
8180.0 0.000565
8185.0 0.000563
8190.0 0.000562
8195.0 0.000562
8200.0 0.000561
8205.0 0.00056
8210.0 0.000559
8215.0 0.000559
8220.0 0.000558
8225.0 0.000557
8230.0 0.000557
8235.0 0.000557
8240.0 0.000556
8245.0 0.000556
8250.0 0.000556
8255.0 0.000555
