#lamb flux
1605.0 5.39e-05
1610.0 5.4e-05
1615.0 5.41e-05
1620.0 5.42e-05
1625.0 5.43e-05
1630.0 5.44e-05
1635.0 5.45e-05
1640.0 5.46e-05
1645.0 5.47e-05
1650.0 5.49e-05
1655.0 5.5e-05
1660.0 5.51e-05
1665.0 5.52e-05
1670.0 5.53e-05
1675.0 5.54e-05
1680.0 5.55e-05
1685.0 5.56e-05
1690.0 5.58e-05
1695.0 5.59e-05
1700.0 5.6e-05
1705.0 5.61e-05
1710.0 5.62e-05
1715.0 5.63e-05
1720.0 5.64e-05
1725.0 5.66e-05
1730.0 5.67e-05
1735.0 5.68e-05
1740.0 5.69e-05
1745.0 5.7e-05
1750.0 5.72e-05
1755.0 5.73e-05
1760.0 5.74e-05
1765.0 5.75e-05
1770.0 5.76e-05
1775.0 5.78e-05
1780.0 5.79e-05
1785.0 5.8e-05
1790.0 5.81e-05
1795.0 5.83e-05
1800.0 5.84e-05
1805.0 5.85e-05
1810.0 5.86e-05
1815.0 5.88e-05
1820.0 5.89e-05
1825.0 5.9e-05
1830.0 5.92e-05
1835.0 5.93e-05
1840.0 5.94e-05
1845.0 5.95e-05
1850.0 5.97e-05
1855.0 5.98e-05
1860.0 5.99e-05
1865.0 6.01e-05
1870.0 6.02e-05
1875.0 6.03e-05
1880.0 6.05e-05
1885.0 6.06e-05
1890.0 6.07e-05
1895.0 6.09e-05
1900.0 6.1e-05
1905.0 6.11e-05
1910.0 6.13e-05
1915.0 6.14e-05
1920.0 6.16e-05
1925.0 6.17e-05
1930.0 6.18e-05
1935.0 6.2e-05
1940.0 6.21e-05
1945.0 6.22e-05
1950.0 6.24e-05
1955.0 6.25e-05
1960.0 6.27e-05
1965.0 6.28e-05
1970.0 6.3e-05
1975.0 6.31e-05
1980.0 6.32e-05
1985.0 6.34e-05
1990.0 6.35e-05
1995.0 6.37e-05
2000.0 6.38e-05
2005.0 6.4e-05
2010.0 6.41e-05
2015.0 6.43e-05
2020.0 6.44e-05
2025.0 6.46e-05
2030.0 6.47e-05
2035.0 6.49e-05
2040.0 6.5e-05
2045.0 6.52e-05
2050.0 6.53e-05
2055.0 6.55e-05
2060.0 6.56e-05
2065.0 6.58e-05
2070.0 6.59e-05
2075.0 6.61e-05
2080.0 6.63e-05
2085.0 6.64e-05
2090.0 6.66e-05
2095.0 6.67e-05
2100.0 6.69e-05
2105.0 6.7e-05
2110.0 6.72e-05
2115.0 6.74e-05
2120.0 6.75e-05
2125.0 6.77e-05
2130.0 6.78e-05
2135.0 6.8e-05
2140.0 6.82e-05
2145.0 6.83e-05
2150.0 6.85e-05
2155.0 6.87e-05
2160.0 6.88e-05
2165.0 6.9e-05
2170.0 6.92e-05
2175.0 6.93e-05
2180.0 6.95e-05
2185.0 6.97e-05
2190.0 6.98e-05
2195.0 7e-05
2200.0 7.02e-05
2205.0 7.04e-05
2210.0 7.05e-05
2215.0 7.07e-05
2220.0 7.09e-05
2225.0 7.1e-05
2230.0 7.12e-05
2235.0 7.14e-05
2240.0 7.16e-05
2245.0 7.18e-05
2250.0 7.19e-05
2255.0 7.21e-05
2260.0 7.23e-05
2265.0 7.25e-05
2270.0 7.26e-05
2275.0 7.28e-05
2280.0 7.3e-05
2285.0 7.32e-05
2290.0 7.34e-05
2295.0 7.36e-05
2300.0 7.38e-05
2305.0 7.39e-05
2310.0 7.41e-05
2315.0 7.43e-05
2320.0 7.45e-05
2325.0 7.47e-05
2330.0 7.49e-05
2335.0 7.51e-05
2340.0 7.53e-05
2345.0 7.55e-05
2350.0 7.56e-05
2355.0 7.58e-05
2360.0 7.6e-05
2365.0 7.62e-05
2370.0 7.64e-05
2375.0 7.66e-05
2380.0 7.68e-05
2385.0 7.7e-05
2390.0 7.72e-05
2395.0 7.74e-05
2400.0 7.76e-05
2405.0 7.78e-05
2410.0 7.8e-05
2415.0 7.82e-05
2420.0 7.84e-05
2425.0 7.86e-05
2430.0 7.88e-05
2435.0 7.9e-05
2440.0 7.93e-05
2445.0 7.95e-05
2450.0 7.97e-05
2455.0 7.99e-05
2460.0 8.01e-05
2465.0 8.03e-05
2470.0 8.05e-05
2475.0 8.07e-05
2480.0 8.1e-05
2485.0 8.12e-05
2490.0 8.14e-05
2495.0 8.16e-05
2500.0 8.18e-05
2505.0 8.2e-05
2510.0 8.22e-05
2515.0 8.25e-05
2520.0 8.27e-05
2525.0 8.29e-05
2530.0 8.31e-05
2535.0 8.34e-05
2540.0 8.36e-05
2545.0 8.38e-05
2550.0 8.4e-05
2555.0 8.43e-05
2560.0 8.45e-05
2565.0 8.47e-05
2570.0 8.5e-05
2575.0 8.52e-05
2580.0 8.54e-05
2585.0 8.56e-05
2590.0 8.59e-05
2595.0 8.61e-05
2600.0 8.64e-05
2605.0 8.66e-05
2610.0 8.68e-05
2615.0 8.71e-05
2620.0 8.73e-05
2625.0 8.75e-05
2630.0 8.78e-05
2635.0 8.8e-05
2640.0 8.83e-05
2645.0 8.85e-05
2650.0 8.87e-05
2655.0 8.9e-05
2660.0 8.92e-05
2665.0 8.95e-05
2670.0 8.97e-05
2675.0 9e-05
2680.0 9.02e-05
2685.0 9.05e-05
2690.0 9.07e-05
2695.0 9.1e-05
2700.0 9.12e-05
2705.0 9.15e-05
2710.0 9.17e-05
2715.0 9.2e-05
2720.0 9.22e-05
2725.0 9.25e-05
2730.0 9.27e-05
2735.0 9.3e-05
2740.0 9.33e-05
2745.0 9.35e-05
2750.0 9.38e-05
2755.0 9.4e-05
2760.0 9.43e-05
2765.0 9.46e-05
2770.0 9.48e-05
2775.0 9.51e-05
2780.0 9.53e-05
2785.0 9.56e-05
2790.0 9.59e-05
2795.0 9.61e-05
2800.0 9.64e-05
2805.0 9.67e-05
2810.0 9.69e-05
2815.0 9.72e-05
2820.0 9.75e-05
2825.0 9.77e-05
2830.0 9.8e-05
2835.0 9.83e-05
2840.0 9.85e-05
2845.0 9.88e-05
2850.0 9.91e-05
2855.0 9.93e-05
2860.0 9.96e-05
2865.0 9.99e-05
2870.0 0.0001
2875.0 0.0001
2880.0 0.000101
2885.0 0.000101
2890.0 0.000101
2895.0 0.000102
2900.0 0.000102
2905.0 0.000102
2910.0 0.000102
2915.0 0.000103
2920.0 0.000103
2925.0 0.000103
2930.0 0.000103
2935.0 0.000104
2940.0 0.000104
2945.0 0.000104
2950.0 0.000105
2955.0 0.000105
2960.0 0.000105
2965.0 0.000105
2970.0 0.000106
2975.0 0.000106
2980.0 0.000106
2985.0 0.000107
2990.0 0.000107
2995.0 0.000107
3000.0 0.000107
3005.0 0.000108
3010.0 0.000108
3015.0 0.000108
3020.0 0.000108
3025.0 0.000109
3030.0 0.000109
3035.0 0.000109
3040.0 0.00011
3045.0 0.00011
3050.0 0.00011
3055.0 0.00011
3060.0 0.000111
3065.0 0.000111
3070.0 0.000111
3075.0 0.000112
3080.0 0.000112
3085.0 0.000112
3090.0 0.000112
3095.0 0.000113
3100.0 0.000113
3105.0 0.000113
3110.0 0.000114
3115.0 0.000114
3120.0 0.000114
3125.0 0.000114
3130.0 0.000115
3135.0 0.000115
3140.0 0.000115
3145.0 0.000116
3150.0 0.000116
3155.0 0.000116
3160.0 0.000116
3165.0 0.000117
3170.0 0.000117
3175.0 0.000117
3180.0 0.000118
3185.0 0.000118
3190.0 0.000118
3195.0 0.000118
3200.0 0.000119
3205.0 0.000119
3210.0 0.000119
3215.0 0.00012
3220.0 0.00012
3225.0 0.00012
3230.0 0.000121
3235.0 0.000121
3240.0 0.000121
3245.0 0.000121
3250.0 0.000122
3255.0 0.000122
3260.0 0.000122
3265.0 0.000123
3270.0 0.000123
3275.0 0.000123
3280.0 0.000124
3285.0 0.000124
3290.0 0.000124
3295.0 0.000125
3300.0 0.000125
3305.0 0.000125
3310.0 0.000126
3315.0 0.000126
3320.0 0.000126
3325.0 0.000127
3330.0 0.000127
3335.0 0.000128
3340.0 0.000128
3345.0 0.000128
3350.0 0.000129
3355.0 0.000129
3360.0 0.000129
3365.0 0.00013
3370.0 0.00013
3375.0 0.000131
3380.0 0.000131
3385.0 0.000132
3390.0 0.000132
3395.0 0.000132
3400.0 0.000133
3405.0 0.000133
3410.0 0.000134
3415.0 0.000134
3420.0 0.000135
3425.0 0.000135
3430.0 0.000136
3435.0 0.000136
3440.0 0.000137
3445.0 0.000137
3450.0 0.000138
3455.0 0.000138
3460.0 0.000139
3465.0 0.00014
3470.0 0.00014
3475.0 0.000141
3480.0 0.000141
3485.0 0.000142
3490.0 0.000143
3495.0 0.000143
3500.0 0.000144
3505.0 0.000145
3510.0 0.000145
3515.0 0.000146
3520.0 0.000147
3525.0 0.000148
3530.0 0.000148
3535.0 0.000149
3540.0 0.00015
3545.0 0.000151
3550.0 0.000152
3555.0 0.000152
3560.0 0.000153
3565.0 0.000154
3570.0 0.000155
3575.0 0.000156
3580.0 0.000157
3585.0 0.000158
3590.0 0.000159
3595.0 0.00016
3600.0 0.000161
3605.0 0.000162
3610.0 0.000163
3615.0 0.000164
3620.0 0.000166
3625.0 0.000167
3630.0 0.000168
3635.0 0.000169
3640.0 0.000171
3645.0 0.000172
3650.0 0.000173
3655.0 0.000175
3660.0 0.000176
3665.0 0.000177
3670.0 0.000179
3675.0 0.00018
3680.0 0.000182
3685.0 0.000183
3690.0 0.000185
3695.0 0.000186
3700.0 0.000188
3705.0 0.00019
3710.0 0.000191
3715.0 0.000193
3720.0 0.000195
3725.0 0.000197
3730.0 0.000199
3735.0 0.000201
3740.0 0.000202
3745.0 0.000204
3750.0 0.000206
3755.0 0.000208
3760.0 0.000211
3765.0 0.000213
3770.0 0.000215
3775.0 0.000217
3780.0 0.000219
3785.0 0.000221
3790.0 0.000224
3795.0 0.000226
3800.0 0.000229
3805.0 0.000231
3810.0 0.000233
3815.0 0.000236
3820.0 0.000238
3825.0 0.000241
3830.0 0.000244
3835.0 0.000246
3840.0 0.000249
3845.0 0.000252
3850.0 0.000254
3855.0 0.000257
3860.0 0.00026
3865.0 0.000263
3870.0 0.000266
3875.0 0.000269
3880.0 0.000272
3885.0 0.000275
3890.0 0.000278
3895.0 0.000281
3900.0 0.000284
3905.0 0.000287
3910.0 0.00029
3915.0 0.000293
3920.0 0.000297
3925.0 0.0003
3930.0 0.000303
3935.0 0.000306
3940.0 0.00031
3945.0 0.000313
3950.0 0.000316
3955.0 0.00032
3960.0 0.000323
3965.0 0.000327
3970.0 0.00033
3975.0 0.000334
3980.0 0.000337
3985.0 0.000341
3990.0 0.000344
3995.0 0.000348
4000.0 0.000351
4005.0 0.000355
4010.0 0.000358
4015.0 0.000362
4020.0 0.000366
4025.0 0.000369
4030.0 0.000373
4035.0 0.000377
4040.0 0.00038
4045.0 0.000384
4050.0 0.000388
4055.0 0.000391
4060.0 0.000395
4065.0 0.000399
4070.0 0.000402
4075.0 0.000406
4080.0 0.00041
4085.0 0.000414
4090.0 0.000417
4095.0 0.000421
4100.0 0.000425
4105.0 0.000429
4110.0 0.000433
4115.0 0.000436
4120.0 0.00044
4125.0 0.000444
4130.0 0.000448
4135.0 0.000452
4140.0 0.000456
4145.0 0.00046
4150.0 0.000464
4155.0 0.000468
4160.0 0.000471
4165.0 0.000475
4170.0 0.000479
4175.0 0.000483
4180.0 0.000487
4185.0 0.000491
4190.0 0.000496
4195.0 0.0005
4200.0 0.000504
4205.0 0.000508
4210.0 0.000512
4215.0 0.000516
4220.0 0.00052
4225.0 0.000525
4230.0 0.000529
4235.0 0.000533
4240.0 0.000538
4245.0 0.000542
4250.0 0.000546
4255.0 0.000551
4260.0 0.000555
4265.0 0.00056
4270.0 0.000564
4275.0 0.000569
4280.0 0.000574
4285.0 0.000578
4290.0 0.000583
4295.0 0.000588
4300.0 0.000592
4305.0 0.000597
4310.0 0.000602
4315.0 0.000607
4320.0 0.000612
4325.0 0.000617
4330.0 0.000622
4335.0 0.000627
4340.0 0.000632
4345.0 0.000637
4350.0 0.000643
4355.0 0.000648
4360.0 0.000653
4365.0 0.000658
4370.0 0.000664
4375.0 0.000669
4380.0 0.000675
4385.0 0.00068
4390.0 0.000686
4395.0 0.000691
4400.0 0.000697
4405.0 0.000703
4410.0 0.000708
4415.0 0.000714
4420.0 0.00072
4425.0 0.000726
4430.0 0.000731
4435.0 0.000737
4440.0 0.000743
4445.0 0.000749
4450.0 0.000755
4455.0 0.000761
4460.0 0.000767
4465.0 0.000773
4470.0 0.000779
4475.0 0.000785
4480.0 0.000791
4485.0 0.000797
4490.0 0.000803
4495.0 0.000809
4500.0 0.000815
4505.0 0.00082
4510.0 0.000826
4515.0 0.000832
4520.0 0.000838
4525.0 0.000844
4530.0 0.00085
4535.0 0.000856
4540.0 0.000861
4545.0 0.000867
4550.0 0.000873
4555.0 0.000878
4560.0 0.000884
4565.0 0.000889
4570.0 0.000894
4575.0 0.0009
4580.0 0.000905
4585.0 0.00091
4590.0 0.000915
4595.0 0.00092
4600.0 0.000925
4605.0 0.00093
4610.0 0.000935
4615.0 0.000939
4620.0 0.000944
4625.0 0.000948
4630.0 0.000953
4635.0 0.000957
4640.0 0.000961
4645.0 0.000965
4650.0 0.000969
4655.0 0.000973
4660.0 0.000977
4665.0 0.00098
4670.0 0.000984
4675.0 0.000987
4680.0 0.00099
4685.0 0.000993
4690.0 0.000996
4695.0 0.000999
4700.0 0.001
4705.0 0.001
4710.0 0.00101
4715.0 0.00101
4720.0 0.00101
4725.0 0.00101
4730.0 0.00102
4735.0 0.00102
4740.0 0.00102
4745.0 0.00102
4750.0 0.00102
4755.0 0.00102
4760.0 0.00103
4765.0 0.00103
4770.0 0.00103
4775.0 0.00103
4780.0 0.00103
4785.0 0.00103
4790.0 0.00103
4795.0 0.00103
4800.0 0.00103
4805.0 0.00103
4810.0 0.00103
4815.0 0.00103
4820.0 0.00104
4825.0 0.00104
4830.0 0.00104
4835.0 0.00104
4840.0 0.00104
4845.0 0.00104
4850.0 0.00104
4855.0 0.00104
4860.0 0.00104
4865.0 0.00104
4870.0 0.00104
4875.0 0.00104
4880.0 0.00104
4885.0 0.00104
4890.0 0.00104
4895.0 0.00103
4900.0 0.00103
4905.0 0.00103
4910.0 0.00103
4915.0 0.00103
4920.0 0.00103
4925.0 0.00103
4930.0 0.00103
4935.0 0.00103
4940.0 0.00103
4945.0 0.00103
4950.0 0.00103
4955.0 0.00103
4960.0 0.00103
4965.0 0.00103
4970.0 0.00103
4975.0 0.00103
4980.0 0.00102
4985.0 0.00102
4990.0 0.00102
4995.0 0.00102
5000.0 0.00102
5005.0 0.00102
5010.0 0.00102
5015.0 0.00102
5020.0 0.00102
5025.0 0.00102
5030.0 0.00102
5035.0 0.00101
5040.0 0.00101
5045.0 0.00101
5050.0 0.00101
5055.0 0.00101
5060.0 0.00101
5065.0 0.00101
5070.0 0.00101
5075.0 0.001
5080.0 0.001
5085.0 0.001
5090.0 0.001
5095.0 0.000999
5100.0 0.000997
5105.0 0.000995
5110.0 0.000994
5115.0 0.000992
5120.0 0.000991
5125.0 0.000989
5130.0 0.000987
5135.0 0.000985
5140.0 0.000984
5145.0 0.000982
5150.0 0.00098
5155.0 0.000978
5160.0 0.000976
5165.0 0.000974
5170.0 0.000972
5175.0 0.00097
5180.0 0.000968
5185.0 0.000966
5190.0 0.000964
5195.0 0.000962
5200.0 0.00096
5205.0 0.000958
5210.0 0.000956
5215.0 0.000953
5220.0 0.000951
5225.0 0.000949
5230.0 0.000947
5235.0 0.000944
5240.0 0.000942
5245.0 0.000939
5250.0 0.000937
5255.0 0.000935
5260.0 0.000932
5265.0 0.00093
5270.0 0.000927
5275.0 0.000924
5280.0 0.000922
5285.0 0.000919
5290.0 0.000916
5295.0 0.000914
5300.0 0.000911
5305.0 0.000908
5310.0 0.000905
5315.0 0.000902
5320.0 0.000899
5325.0 0.000896
5330.0 0.000893
5335.0 0.00089
5340.0 0.000887
5345.0 0.000884
5350.0 0.000881
5355.0 0.000878
5360.0 0.000874
5365.0 0.000871
5370.0 0.000868
5375.0 0.000864
5380.0 0.000861
5385.0 0.000857
5390.0 0.000854
5395.0 0.00085
5400.0 0.000847
5405.0 0.000843
5410.0 0.000839
5415.0 0.000836
5420.0 0.000832
5425.0 0.000828
5430.0 0.000824
5435.0 0.00082
5440.0 0.000816
5445.0 0.000813
5450.0 0.000809
5455.0 0.000805
5460.0 0.000801
5465.0 0.000797
5470.0 0.000793
5475.0 0.000789
5480.0 0.000784
5485.0 0.00078
5490.0 0.000776
5495.0 0.000772
5500.0 0.000768
5505.0 0.000764
5510.0 0.00076
5515.0 0.000756
5520.0 0.000752
5525.0 0.000748
5530.0 0.000744
5535.0 0.00074
5540.0 0.000736
5545.0 0.000732
5550.0 0.000728
5555.0 0.000725
5560.0 0.000721
5565.0 0.000717
5570.0 0.000714
5575.0 0.00071
5580.0 0.000706
5585.0 0.000703
5590.0 0.0007
5595.0 0.000696
5600.0 0.000693
5605.0 0.00069
5610.0 0.000687
5615.0 0.000684
5620.0 0.000681
5625.0 0.000678
5630.0 0.000675
5635.0 0.000673
5640.0 0.00067
5645.0 0.000668
5650.0 0.000666
5655.0 0.000663
5660.0 0.000661
5665.0 0.000659
5670.0 0.000657
5675.0 0.000656
5680.0 0.000654
5685.0 0.000652
5690.0 0.000651
5695.0 0.00065
5700.0 0.000649
5705.0 0.000647
5710.0 0.000646
5715.0 0.000645
5720.0 0.000645
5725.0 0.000644
5730.0 0.000643
5735.0 0.000643
5740.0 0.000643
5745.0 0.000642
5750.0 0.000642
5755.0 0.000642
5760.0 0.000642
5765.0 0.000642
5770.0 0.000642
5775.0 0.000643
5780.0 0.000643
5785.0 0.000643
5790.0 0.000644
5795.0 0.000645
5800.0 0.000645
5805.0 0.000646
5810.0 0.000647
5815.0 0.000648
5820.0 0.000648
5825.0 0.000649
5830.0 0.00065
5835.0 0.000652
5840.0 0.000653
5845.0 0.000654
5850.0 0.000655
5855.0 0.000656
5860.0 0.000657
5865.0 0.000659
5870.0 0.00066
5875.0 0.000661
5880.0 0.000663
5885.0 0.000664
5890.0 0.000665
5895.0 0.000667
5900.0 0.000668
5905.0 0.00067
5910.0 0.000671
5915.0 0.000673
5920.0 0.000674
5925.0 0.000676
5930.0 0.000677
5935.0 0.000679
5940.0 0.00068
5945.0 0.000682
5950.0 0.000683
5955.0 0.000685
5960.0 0.000687
5965.0 0.000688
5970.0 0.00069
5975.0 0.000692
5980.0 0.000693
5985.0 0.000695
5990.0 0.000697
5995.0 0.000699
6000.0 0.0007
6005.0 0.000702
6010.0 0.000704
6015.0 0.000706
6020.0 0.000708
6025.0 0.00071
6030.0 0.000712
6035.0 0.000714
6040.0 0.000716
6045.0 0.000719
6050.0 0.000721
6055.0 0.000723
6060.0 0.000726
6065.0 0.000728
6070.0 0.000731
6075.0 0.000733
6080.0 0.000736
6085.0 0.000739
6090.0 0.000742
6095.0 0.000745
6100.0 0.000748
6105.0 0.000751
6110.0 0.000754
6115.0 0.000757
6120.0 0.000761
6125.0 0.000764
6130.0 0.000768
6135.0 0.000772
6140.0 0.000775
6145.0 0.000779
6150.0 0.000783
6155.0 0.000787
6160.0 0.000791
6165.0 0.000795
6170.0 0.0008
6175.0 0.000804
6180.0 0.000808
6185.0 0.000813
6190.0 0.000818
6195.0 0.000822
6200.0 0.000827
6205.0 0.000832
6210.0 0.000837
6215.0 0.000842
6220.0 0.000847
6225.0 0.000852
6230.0 0.000857
6235.0 0.000862
6240.0 0.000867
6245.0 0.000873
6250.0 0.000878
6255.0 0.000883
6260.0 0.000889
6265.0 0.000894
6270.0 0.0009
6275.0 0.000905
6280.0 0.00091
6285.0 0.000916
6290.0 0.000921
6295.0 0.000927
6300.0 0.000932
6305.0 0.000937
6310.0 0.000942
6315.0 0.000948
6320.0 0.000953
6325.0 0.000958
6330.0 0.000963
6335.0 0.000968
6340.0 0.000973
6345.0 0.000977
6350.0 0.000982
6355.0 0.000987
6360.0 0.000991
6365.0 0.000995
6370.0 0.001
6375.0 0.001
6380.0 0.00101
6385.0 0.00101
6390.0 0.00102
6395.0 0.00102
6400.0 0.00102
6405.0 0.00103
6410.0 0.00103
6415.0 0.00103
6420.0 0.00103
6425.0 0.00104
6430.0 0.00104
6435.0 0.00104
6440.0 0.00104
6445.0 0.00105
6450.0 0.00105
6455.0 0.00105
6460.0 0.00105
6465.0 0.00105
6470.0 0.00105
6475.0 0.00105
6480.0 0.00105
6485.0 0.00105
6490.0 0.00105
6495.0 0.00105
6500.0 0.00105
6505.0 0.00105
6510.0 0.00105
6515.0 0.00105
6520.0 0.00105
6525.0 0.00105
6530.0 0.00105
6535.0 0.00105
6540.0 0.00104
6545.0 0.00104
6550.0 0.00104
6555.0 0.00104
6560.0 0.00104
6565.0 0.00103
6570.0 0.00103
6575.0 0.00103
6580.0 0.00103
6585.0 0.00102
6590.0 0.00102
6595.0 0.00102
6600.0 0.00101
6605.0 0.00101
6610.0 0.00101
6615.0 0.001
6620.0 0.001
6625.0 0.000997
6630.0 0.000993
6635.0 0.00099
6640.0 0.000986
6645.0 0.000983
6650.0 0.000979
6655.0 0.000975
6660.0 0.000972
6665.0 0.000968
6670.0 0.000964
6675.0 0.000961
6680.0 0.000957
6685.0 0.000954
6690.0 0.00095
6695.0 0.000947
6700.0 0.000943
6705.0 0.00094
6710.0 0.000936
6715.0 0.000933
6720.0 0.00093
6725.0 0.000926
6730.0 0.000923
6735.0 0.00092
6740.0 0.000917
6745.0 0.000914
6750.0 0.000911
6755.0 0.000909
6760.0 0.000906
6765.0 0.000903
6770.0 0.000901
6775.0 0.000899
6780.0 0.000896
6785.0 0.000894
6790.0 0.000892
6795.0 0.00089
6800.0 0.000888
6805.0 0.000887
6810.0 0.000885
6815.0 0.000883
6820.0 0.000882
6825.0 0.000881
6830.0 0.00088
6835.0 0.000879
6840.0 0.000878
6845.0 0.000877
6850.0 0.000877
6855.0 0.000876
6860.0 0.000876
6865.0 0.000876
6870.0 0.000876
6875.0 0.000876
6880.0 0.000876
6885.0 0.000876
6890.0 0.000877
6895.0 0.000877
6900.0 0.000878
6905.0 0.000879
6910.0 0.00088
6915.0 0.000881
6920.0 0.000882
6925.0 0.000883
6930.0 0.000885
6935.0 0.000886
6940.0 0.000888
6945.0 0.000889
6950.0 0.000891
6955.0 0.000893
6960.0 0.000895
6965.0 0.000897
6970.0 0.0009
6975.0 0.000902
6980.0 0.000904
6985.0 0.000907
6990.0 0.000909
6995.0 0.000912
7000.0 0.000915
7005.0 0.000918
7010.0 0.00092
7015.0 0.000923
7020.0 0.000926
7025.0 0.000929
7030.0 0.000932
7035.0 0.000935
7040.0 0.000938
7045.0 0.000942
7050.0 0.000945
7055.0 0.000948
7060.0 0.000951
7065.0 0.000954
7070.0 0.000958
7075.0 0.000961
7080.0 0.000964
7085.0 0.000967
7090.0 0.00097
7095.0 0.000974
7100.0 0.000977
7105.0 0.00098
7110.0 0.000983
7115.0 0.000986
7120.0 0.000989
7125.0 0.000992
7130.0 0.000995
7135.0 0.000998
7140.0 0.001
7145.0 0.001
7150.0 0.00101
7155.0 0.00101
7160.0 0.00101
7165.0 0.00101
7170.0 0.00101
7175.0 0.00102
7180.0 0.00102
7185.0 0.00102
7190.0 0.00102
7195.0 0.00102
7200.0 0.00103
7205.0 0.00103
7210.0 0.00103
7215.0 0.00103
7220.0 0.00103
7225.0 0.00103
7230.0 0.00103
7235.0 0.00103
7240.0 0.00103
7245.0 0.00103
7250.0 0.00103
7255.0 0.00103
7260.0 0.00103
7265.0 0.00103
7270.0 0.00103
7275.0 0.00103
7280.0 0.00102
7285.0 0.00102
7290.0 0.00102
7295.0 0.00102
7300.0 0.00102
7305.0 0.00101
7310.0 0.00101
7315.0 0.00101
7320.0 0.00101
7325.0 0.001
7330.0 0.001
7335.0 0.000996
7340.0 0.000993
7345.0 0.000989
7350.0 0.000985
7355.0 0.000981
7360.0 0.000977
7365.0 0.000973
7370.0 0.000968
7375.0 0.000964
7380.0 0.000959
7385.0 0.000954
7390.0 0.000949
7395.0 0.000945
7400.0 0.00094
7405.0 0.000935
7410.0 0.00093
7415.0 0.000924
7420.0 0.000919
7425.0 0.000914
7430.0 0.000909
7435.0 0.000904
7440.0 0.000899
7445.0 0.000893
7450.0 0.000888
7455.0 0.000883
7460.0 0.000878
7465.0 0.000873
7470.0 0.000868
7475.0 0.000863
7480.0 0.000858
7485.0 0.000853
7490.0 0.000849
7495.0 0.000844
7500.0 0.000839
7505.0 0.000835
7510.0 0.00083
7515.0 0.000826
7520.0 0.000822
7525.0 0.000817
7530.0 0.000813
7535.0 0.00081
7540.0 0.000806
7545.0 0.000802
7550.0 0.000798
7555.0 0.000795
7560.0 0.000792
7565.0 0.000788
7570.0 0.000785
7575.0 0.000782
7580.0 0.00078
7585.0 0.000777
7590.0 0.000774
7595.0 0.000772
7600.0 0.000769
7605.0 0.000767
7610.0 0.000765
7615.0 0.000763
7620.0 0.000761
7625.0 0.000759
7630.0 0.000758
7635.0 0.000756
7640.0 0.000755
7645.0 0.000754
7650.0 0.000753
7655.0 0.000752
7660.0 0.000751
7665.0 0.00075
7670.0 0.000749
7675.0 0.000748
7680.0 0.000748
7685.0 0.000748
7690.0 0.000747
7695.0 0.000747
7700.0 0.000747
7705.0 0.000747
7710.0 0.000747
7715.0 0.000747
7720.0 0.000747
7725.0 0.000747
7730.0 0.000747
7735.0 0.000747
7740.0 0.000748
7745.0 0.000748
7750.0 0.000748
7755.0 0.000749
7760.0 0.000749
7765.0 0.00075
7770.0 0.00075
7775.0 0.000751
7780.0 0.000751
7785.0 0.000752
7790.0 0.000752
7795.0 0.000753
7800.0 0.000753
7805.0 0.000754
7810.0 0.000754
7815.0 0.000754
7820.0 0.000755
7825.0 0.000755
7830.0 0.000755
7835.0 0.000755
7840.0 0.000756
7845.0 0.000756
7850.0 0.000756
7855.0 0.000756
7860.0 0.000755
7865.0 0.000755
7870.0 0.000755
7875.0 0.000754
7880.0 0.000754
7885.0 0.000753
7890.0 0.000752
7895.0 0.000751
7900.0 0.00075
7905.0 0.000749
7910.0 0.000748
7915.0 0.000747
7920.0 0.000745
7925.0 0.000744
7930.0 0.000742
7935.0 0.00074
7940.0 0.000738
7945.0 0.000736
7950.0 0.000733
