#lamb flux
1605.0 0.000195
1610.0 0.000196
1615.0 0.000197
1620.0 0.000198
1625.0 0.000199
1630.0 0.0002
1635.0 0.000201
1640.0 0.000202
1645.0 0.000202
1650.0 0.000203
1655.0 0.000204
1660.0 0.000205
1665.0 0.000206
1670.0 0.000207
1675.0 0.000208
1680.0 0.000209
1685.0 0.00021
1690.0 0.000211
1695.0 0.000212
1700.0 0.000213
1705.0 0.000214
1710.0 0.000215
1715.0 0.000216
1720.0 0.000217
1725.0 0.000218
1730.0 0.000219
1735.0 0.00022
1740.0 0.000222
1745.0 0.000223
1750.0 0.000224
1755.0 0.000225
1760.0 0.000226
1765.0 0.000227
1770.0 0.000228
1775.0 0.000229
1780.0 0.00023
1785.0 0.000231
1790.0 0.000233
1795.0 0.000234
1800.0 0.000235
1805.0 0.000236
1810.0 0.000237
1815.0 0.000238
1820.0 0.00024
1825.0 0.000241
1830.0 0.000242
1835.0 0.000243
1840.0 0.000244
1845.0 0.000246
1850.0 0.000247
1855.0 0.000248
1860.0 0.000249
1865.0 0.000251
1870.0 0.000252
1875.0 0.000253
1880.0 0.000254
1885.0 0.000256
1890.0 0.000257
1895.0 0.000258
1900.0 0.00026
1905.0 0.000261
1910.0 0.000262
1915.0 0.000264
1920.0 0.000265
1925.0 0.000266
1930.0 0.000268
1935.0 0.000269
1940.0 0.00027
1945.0 0.000272
1950.0 0.000273
1955.0 0.000275
1960.0 0.000276
1965.0 0.000278
1970.0 0.000279
1975.0 0.000281
1980.0 0.000282
1985.0 0.000283
1990.0 0.000285
1995.0 0.000286
2000.0 0.000288
2005.0 0.000289
2010.0 0.000291
2015.0 0.000293
2020.0 0.000294
2025.0 0.000296
2030.0 0.000297
2035.0 0.000299
2040.0 0.0003
2045.0 0.000302
2050.0 0.000304
2055.0 0.000305
2060.0 0.000307
2065.0 0.000309
2070.0 0.00031
2075.0 0.000312
2080.0 0.000314
2085.0 0.000315
2090.0 0.000317
2095.0 0.000319
2100.0 0.000321
2105.0 0.000322
2110.0 0.000324
2115.0 0.000326
2120.0 0.000328
2125.0 0.000329
2130.0 0.000331
2135.0 0.000333
2140.0 0.000335
2145.0 0.000337
2150.0 0.000339
2155.0 0.00034
2160.0 0.000342
2165.0 0.000344
2170.0 0.000346
2175.0 0.000348
2180.0 0.00035
2185.0 0.000352
2190.0 0.000354
2195.0 0.000356
2200.0 0.000358
2205.0 0.00036
2210.0 0.000362
2215.0 0.000364
2220.0 0.000366
2225.0 0.000368
2230.0 0.00037
2235.0 0.000372
2240.0 0.000375
2245.0 0.000377
2250.0 0.000379
2255.0 0.000381
2260.0 0.000383
2265.0 0.000385
2270.0 0.000388
2275.0 0.00039
2280.0 0.000392
2285.0 0.000394
2290.0 0.000397
2295.0 0.000399
2300.0 0.000401
2305.0 0.000404
2310.0 0.000406
2315.0 0.000408
2320.0 0.000411
2325.0 0.000413
2330.0 0.000415
2335.0 0.000418
2340.0 0.00042
2345.0 0.000423
2350.0 0.000425
2355.0 0.000428
2360.0 0.00043
2365.0 0.000433
2370.0 0.000435
2375.0 0.000438
2380.0 0.000441
2385.0 0.000443
2390.0 0.000446
2395.0 0.000448
2400.0 0.000451
2405.0 0.000454
2410.0 0.000457
2415.0 0.000459
2420.0 0.000462
2425.0 0.000465
2430.0 0.000468
2435.0 0.00047
2440.0 0.000473
2445.0 0.000476
2450.0 0.000479
2455.0 0.000482
2460.0 0.000485
2465.0 0.000488
2470.0 0.000491
2475.0 0.000494
2480.0 0.000497
2485.0 0.0005
2490.0 0.000503
2495.0 0.000506
2500.0 0.000509
2505.0 0.000512
2510.0 0.000515
2515.0 0.000518
2520.0 0.000522
2525.0 0.000525
2530.0 0.000528
2535.0 0.000532
2540.0 0.000535
2545.0 0.000538
2550.0 0.000541
2555.0 0.000545
2560.0 0.000548
2565.0 0.000552
2570.0 0.000555
2575.0 0.000559
2580.0 0.000562
2585.0 0.000566
2590.0 0.000569
2595.0 0.000573
2600.0 0.000576
2605.0 0.00058
2610.0 0.000584
2615.0 0.000587
2620.0 0.000591
2625.0 0.000595
2630.0 0.000599
2635.0 0.000602
2640.0 0.000606
2645.0 0.00061
2650.0 0.000614
2655.0 0.000618
2660.0 0.000622
2665.0 0.000626
2670.0 0.00063
2675.0 0.000634
2680.0 0.000638
2685.0 0.000642
2690.0 0.000647
2695.0 0.000651
2700.0 0.000655
2705.0 0.000659
2710.0 0.000663
2715.0 0.000668
2720.0 0.000672
2725.0 0.000677
2730.0 0.000681
2735.0 0.000686
2740.0 0.00069
2745.0 0.000695
2750.0 0.000699
2755.0 0.000704
2760.0 0.000709
2765.0 0.000713
2770.0 0.000718
2775.0 0.000723
2780.0 0.000727
2785.0 0.000732
2790.0 0.000737
2795.0 0.000742
2800.0 0.000747
2805.0 0.000752
2810.0 0.000757
2815.0 0.000762
2820.0 0.000767
2825.0 0.000772
2830.0 0.000778
2835.0 0.000783
2840.0 0.000788
2845.0 0.000794
2850.0 0.000799
2855.0 0.000805
2860.0 0.00081
2865.0 0.000815
2870.0 0.000821
2875.0 0.000827
2880.0 0.000833
2885.0 0.000838
2890.0 0.000844
2895.0 0.00085
2900.0 0.000856
2905.0 0.000861
2910.0 0.000867
2915.0 0.000874
2920.0 0.00088
2925.0 0.000886
2930.0 0.000892
2935.0 0.000898
2940.0 0.000904
2945.0 0.000911
2950.0 0.000917
2955.0 0.000923
2960.0 0.00093
2965.0 0.000936
2970.0 0.000943
2975.0 0.00095
2980.0 0.000956
2985.0 0.000963
2990.0 0.00097
2995.0 0.000977
3000.0 0.000984
3005.0 0.000991
3010.0 0.000998
3015.0 0.00101
3020.0 0.00101
3025.0 0.00102
3030.0 0.00103
3035.0 0.00103
3040.0 0.00104
3045.0 0.00105
3050.0 0.00106
3055.0 0.00106
3060.0 0.00107
3065.0 0.00108
3070.0 0.00109
3075.0 0.0011
3080.0 0.0011
3085.0 0.00111
3090.0 0.00112
3095.0 0.00113
3100.0 0.00114
3105.0 0.00115
3110.0 0.00115
3115.0 0.00116
3120.0 0.00117
3125.0 0.00118
3130.0 0.00119
3135.0 0.0012
3140.0 0.00121
3145.0 0.00121
3150.0 0.00122
3155.0 0.00123
3160.0 0.00124
3165.0 0.00125
3170.0 0.00126
3175.0 0.00127
3180.0 0.00128
3185.0 0.00129
3190.0 0.0013
3195.0 0.00131
3200.0 0.00132
3205.0 0.00133
3210.0 0.00134
3215.0 0.00135
3220.0 0.00136
3225.0 0.00137
3230.0 0.00138
3235.0 0.00139
3240.0 0.0014
3245.0 0.00141
3250.0 0.00142
3255.0 0.00143
3260.0 0.00145
3265.0 0.00146
3270.0 0.00147
3275.0 0.00148
3280.0 0.00149
3285.0 0.0015
3290.0 0.00151
3295.0 0.00153
3300.0 0.00154
3305.0 0.00155
3310.0 0.00156
3315.0 0.00157
3320.0 0.00159
3325.0 0.0016
3330.0 0.00161
3335.0 0.00162
3340.0 0.00164
3345.0 0.00165
3350.0 0.00166
3355.0 0.00168
3360.0 0.00169
3365.0 0.0017
3370.0 0.00172
3375.0 0.00173
3380.0 0.00174
3385.0 0.00176
3390.0 0.00177
3395.0 0.00178
3400.0 0.0018
3405.0 0.00181
3410.0 0.00183
3415.0 0.00184
3420.0 0.00186
3425.0 0.00187
3430.0 0.00189
3435.0 0.0019
3440.0 0.00192
3445.0 0.00193
3450.0 0.00195
3455.0 0.00196
3460.0 0.00198
3465.0 0.00199
3470.0 0.00201
3475.0 0.00203
3480.0 0.00204
3485.0 0.00206
3490.0 0.00208
3495.0 0.00209
3500.0 0.00211
3505.0 0.00213
3510.0 0.00214
3515.0 0.00216
3520.0 0.00218
3525.0 0.0022
3530.0 0.00221
3535.0 0.00223
3540.0 0.00225
3545.0 0.00227
3550.0 0.00228
3555.0 0.0023
3560.0 0.00232
3565.0 0.00234
3570.0 0.00236
3575.0 0.00238
3580.0 0.0024
3585.0 0.00241
3590.0 0.00243
3595.0 0.00245
3600.0 0.00247
3605.0 0.00249
3610.0 0.00251
3615.0 0.00253
3620.0 0.00255
3625.0 0.00257
3630.0 0.00259
3635.0 0.00261
3640.0 0.00263
3645.0 0.00265
3650.0 0.00267
3655.0 0.0027
3660.0 0.00272
3665.0 0.00274
3670.0 0.00276
3675.0 0.00278
3680.0 0.0028
3685.0 0.00282
3690.0 0.00284
3695.0 0.00287
3700.0 0.00289
3705.0 0.00291
3710.0 0.00293
3715.0 0.00295
3720.0 0.00298
3725.0 0.003
3730.0 0.00302
3735.0 0.00304
3740.0 0.00307
3745.0 0.00309
3750.0 0.00311
3755.0 0.00314
3760.0 0.00316
3765.0 0.00318
3770.0 0.0032
3775.0 0.00323
3780.0 0.00325
3785.0 0.00327
3790.0 0.0033
3795.0 0.00332
3800.0 0.00335
3805.0 0.00337
3810.0 0.00339
3815.0 0.00342
3820.0 0.00344
3825.0 0.00346
3830.0 0.00349
3835.0 0.00351
3840.0 0.00353
3845.0 0.00356
3850.0 0.00358
3855.0 0.00361
3860.0 0.00363
3865.0 0.00365
3870.0 0.00368
3875.0 0.0037
3880.0 0.00372
3885.0 0.00375
3890.0 0.00377
3895.0 0.0038
3900.0 0.00382
3905.0 0.00384
3910.0 0.00387
3915.0 0.00389
3920.0 0.00391
3925.0 0.00394
3930.0 0.00396
3935.0 0.00398
3940.0 0.00401
3945.0 0.00403
3950.0 0.00405
3955.0 0.00407
3960.0 0.0041
3965.0 0.00412
3970.0 0.00414
3975.0 0.00416
3980.0 0.00419
3985.0 0.00421
3990.0 0.00423
3995.0 0.00425
4000.0 0.00427
4005.0 0.00429
4010.0 0.00431
4015.0 0.00434
4020.0 0.00436
4025.0 0.00438
4030.0 0.0044
4035.0 0.00442
4040.0 0.00444
4045.0 0.00446
4050.0 0.00447
4055.0 0.00449
4060.0 0.00451
4065.0 0.00453
4070.0 0.00455
4075.0 0.00457
4080.0 0.00458
4085.0 0.0046
4090.0 0.00462
4095.0 0.00463
4100.0 0.00465
4105.0 0.00467
4110.0 0.00468
4115.0 0.0047
4120.0 0.00471
4125.0 0.00473
4130.0 0.00474
4135.0 0.00476
4140.0 0.00477
4145.0 0.00478
4150.0 0.0048
4155.0 0.00481
4160.0 0.00482
4165.0 0.00483
4170.0 0.00484
4175.0 0.00485
4180.0 0.00486
4185.0 0.00487
4190.0 0.00488
4195.0 0.00489
4200.0 0.0049
4205.0 0.00491
4210.0 0.00492
4215.0 0.00493
4220.0 0.00493
4225.0 0.00494
4230.0 0.00495
4235.0 0.00495
4240.0 0.00496
4245.0 0.00496
4250.0 0.00497
4255.0 0.00497
4260.0 0.00497
4265.0 0.00498
4270.0 0.00498
4275.0 0.00498
4280.0 0.00498
4285.0 0.00498
4290.0 0.00498
4295.0 0.00498
4300.0 0.00498
4305.0 0.00498
4310.0 0.00498
4315.0 0.00498
4320.0 0.00498
4325.0 0.00498
4330.0 0.00497
4335.0 0.00497
4340.0 0.00497
4345.0 0.00496
4350.0 0.00496
4355.0 0.00495
4360.0 0.00495
4365.0 0.00494
4370.0 0.00493
4375.0 0.00493
4380.0 0.00492
4385.0 0.00491
4390.0 0.00491
4395.0 0.0049
4400.0 0.00489
4405.0 0.00488
4410.0 0.00487
4415.0 0.00486
4420.0 0.00485
4425.0 0.00484
4430.0 0.00483
4435.0 0.00482
4440.0 0.00481
4445.0 0.00479
4450.0 0.00478
4455.0 0.00477
4460.0 0.00476
4465.0 0.00474
4470.0 0.00473
4475.0 0.00472
4480.0 0.0047
4485.0 0.00469
4490.0 0.00467
4495.0 0.00466
4500.0 0.00464
4505.0 0.00463
4510.0 0.00461
4515.0 0.0046
4520.0 0.00458
4525.0 0.00456
4530.0 0.00455
4535.0 0.00453
4540.0 0.00451
4545.0 0.0045
4550.0 0.00448
4555.0 0.00446
4560.0 0.00444
4565.0 0.00443
4570.0 0.00441
4575.0 0.00439
4580.0 0.00437
4585.0 0.00435
4590.0 0.00434
4595.0 0.00432
4600.0 0.0043
4605.0 0.00428
4610.0 0.00426
4615.0 0.00424
4620.0 0.00422
4625.0 0.0042
4630.0 0.00419
4635.0 0.00417
4640.0 0.00415
4645.0 0.00413
4650.0 0.00411
4655.0 0.00409
4660.0 0.00407
4665.0 0.00405
4670.0 0.00403
4675.0 0.00401
4680.0 0.00399
4685.0 0.00397
4690.0 0.00395
4695.0 0.00393
4700.0 0.00391
4705.0 0.00389
4710.0 0.00387
4715.0 0.00385
4720.0 0.00384
4725.0 0.00382
4730.0 0.0038
4735.0 0.00378
4740.0 0.00376
4745.0 0.00374
4750.0 0.00372
4755.0 0.0037
4760.0 0.00368
4765.0 0.00366
4770.0 0.00364
4775.0 0.00363
4780.0 0.00361
4785.0 0.00359
4790.0 0.00357
4795.0 0.00355
4800.0 0.00353
4805.0 0.00352
4810.0 0.0035
4815.0 0.00348
4820.0 0.00346
4825.0 0.00344
4830.0 0.00343
4835.0 0.00341
4840.0 0.00339
4845.0 0.00337
4850.0 0.00336
4855.0 0.00334
4860.0 0.00332
4865.0 0.00331
4870.0 0.00329
4875.0 0.00327
4880.0 0.00326
4885.0 0.00324
4890.0 0.00322
4895.0 0.00321
4900.0 0.00319
4905.0 0.00318
4910.0 0.00316
4915.0 0.00315
4920.0 0.00313
4925.0 0.00311
4930.0 0.0031
4935.0 0.00309
4940.0 0.00307
4945.0 0.00306
4950.0 0.00304
4955.0 0.00303
4960.0 0.00301
4965.0 0.003
4970.0 0.00299
4975.0 0.00297
4980.0 0.00296
4985.0 0.00295
4990.0 0.00293
4995.0 0.00292
5000.0 0.00291
5005.0 0.0029
5010.0 0.00288
5015.0 0.00287
5020.0 0.00286
5025.0 0.00285
5030.0 0.00284
5035.0 0.00282
5040.0 0.00281
5045.0 0.0028
5050.0 0.00279
5055.0 0.00278
5060.0 0.00277
5065.0 0.00276
5070.0 0.00275
5075.0 0.00274
5080.0 0.00273
5085.0 0.00272
5090.0 0.00271
5095.0 0.0027
5100.0 0.00269
5105.0 0.00268
5110.0 0.00267
5115.0 0.00266
5120.0 0.00266
5125.0 0.00265
5130.0 0.00264
5135.0 0.00263
5140.0 0.00262
5145.0 0.00262
5150.0 0.00261
5155.0 0.0026
5160.0 0.00259
5165.0 0.00259
5170.0 0.00258
5175.0 0.00257
5180.0 0.00257
5185.0 0.00256
5190.0 0.00255
5195.0 0.00255
5200.0 0.00254
5205.0 0.00254
5210.0 0.00253
5215.0 0.00253
5220.0 0.00252
5225.0 0.00252
5230.0 0.00251
5235.0 0.00251
5240.0 0.0025
5245.0 0.0025
5250.0 0.0025
5255.0 0.00249
5260.0 0.00249
5265.0 0.00248
5270.0 0.00248
5275.0 0.00248
5280.0 0.00247
5285.0 0.00247
5290.0 0.00247
5295.0 0.00247
5300.0 0.00246
5305.0 0.00246
5310.0 0.00246
5315.0 0.00246
5320.0 0.00246
5325.0 0.00246
5330.0 0.00245
5335.0 0.00245
5340.0 0.00245
5345.0 0.00245
5350.0 0.00245
5355.0 0.00245
5360.0 0.00245
5365.0 0.00245
5370.0 0.00245
5375.0 0.00245
5380.0 0.00245
5385.0 0.00245
5390.0 0.00245
5395.0 0.00245
5400.0 0.00245
5405.0 0.00246
5410.0 0.00246
5415.0 0.00246
5420.0 0.00246
5425.0 0.00246
5430.0 0.00246
5435.0 0.00247
5440.0 0.00247
5445.0 0.00247
5450.0 0.00247
5455.0 0.00248
5460.0 0.00248
5465.0 0.00248
5470.0 0.00249
5475.0 0.00249
5480.0 0.00249
5485.0 0.0025
5490.0 0.0025
5495.0 0.00251
5500.0 0.00251
5505.0 0.00251
5510.0 0.00252
5515.0 0.00252
5520.0 0.00253
5525.0 0.00253
5530.0 0.00254
5535.0 0.00254
5540.0 0.00255
5545.0 0.00256
5550.0 0.00256
5555.0 0.00257
5560.0 0.00257
5565.0 0.00258
5570.0 0.00259
5575.0 0.00259
5580.0 0.0026
5585.0 0.00261
5590.0 0.00261
5595.0 0.00262
5600.0 0.00263
5605.0 0.00263
5610.0 0.00264
5615.0 0.00265
5620.0 0.00266
5625.0 0.00267
5630.0 0.00267
5635.0 0.00268
5640.0 0.00269
5645.0 0.0027
5650.0 0.00271
5655.0 0.00272
5660.0 0.00272
5665.0 0.00273
5670.0 0.00274
5675.0 0.00275
5680.0 0.00276
5685.0 0.00277
5690.0 0.00278
5695.0 0.00279
5700.0 0.0028
5705.0 0.00281
5710.0 0.00282
5715.0 0.00283
5720.0 0.00284
5725.0 0.00285
5730.0 0.00286
5735.0 0.00287
5740.0 0.00288
5745.0 0.00289
5750.0 0.0029
5755.0 0.00292
5760.0 0.00293
5765.0 0.00294
5770.0 0.00295
5775.0 0.00296
5780.0 0.00297
5785.0 0.00298
5790.0 0.003
5795.0 0.00301
5800.0 0.00302
5805.0 0.00303
5810.0 0.00304
5815.0 0.00306
5820.0 0.00307
5825.0 0.00308
5830.0 0.00309
5835.0 0.00311
5840.0 0.00312
5845.0 0.00313
5850.0 0.00314
5855.0 0.00316
5860.0 0.00317
5865.0 0.00318
5870.0 0.0032
5875.0 0.00321
5880.0 0.00322
5885.0 0.00324
5890.0 0.00325
5895.0 0.00326
5900.0 0.00327
5905.0 0.00329
5910.0 0.0033
5915.0 0.00332
5920.0 0.00333
5925.0 0.00334
5930.0 0.00336
5935.0 0.00337
5940.0 0.00338
5945.0 0.0034
5950.0 0.00341
5955.0 0.00342
5960.0 0.00344
5965.0 0.00345
5970.0 0.00346
5975.0 0.00348
5980.0 0.00349
5985.0 0.00351
5990.0 0.00352
5995.0 0.00353
6000.0 0.00355
6005.0 0.00356
6010.0 0.00357
6015.0 0.00359
6020.0 0.0036
6025.0 0.00361
6030.0 0.00363
6035.0 0.00364
6040.0 0.00365
6045.0 0.00367
6050.0 0.00368
6055.0 0.00369
6060.0 0.00371
6065.0 0.00372
6070.0 0.00373
6075.0 0.00374
6080.0 0.00376
6085.0 0.00377
6090.0 0.00378
6095.0 0.00379
6100.0 0.00381
6105.0 0.00382
6110.0 0.00383
6115.0 0.00384
6120.0 0.00385
6125.0 0.00387
6130.0 0.00388
6135.0 0.00389
6140.0 0.0039
6145.0 0.00391
6150.0 0.00392
6155.0 0.00393
6160.0 0.00394
6165.0 0.00395
6170.0 0.00396
6175.0 0.00397
6180.0 0.00398
6185.0 0.00399
6190.0 0.004
6195.0 0.00401
6200.0 0.00402
6205.0 0.00403
6210.0 0.00404
6215.0 0.00405
6220.0 0.00406
6225.0 0.00407
6230.0 0.00407
6235.0 0.00408
6240.0 0.00409
6245.0 0.0041
6250.0 0.0041
6255.0 0.00411
6260.0 0.00412
6265.0 0.00413
6270.0 0.00413
6275.0 0.00414
6280.0 0.00414
6285.0 0.00415
6290.0 0.00416
6295.0 0.00416
6300.0 0.00417
6305.0 0.00417
6310.0 0.00418
6315.0 0.00418
6320.0 0.00419
6325.0 0.00419
6330.0 0.00419
6335.0 0.0042
6340.0 0.0042
6345.0 0.0042
6350.0 0.00421
6355.0 0.00421
6360.0 0.00421
6365.0 0.00421
6370.0 0.00422
6375.0 0.00422
6380.0 0.00422
6385.0 0.00422
6390.0 0.00422
6395.0 0.00422
6400.0 0.00422
6405.0 0.00422
6410.0 0.00422
6415.0 0.00422
6420.0 0.00422
6425.0 0.00422
6430.0 0.00422
6435.0 0.00422
6440.0 0.00422
6445.0 0.00421
6450.0 0.00421
6455.0 0.00421
6460.0 0.00421
6465.0 0.0042
6470.0 0.0042
6475.0 0.0042
6480.0 0.00419
6485.0 0.00419
6490.0 0.00419
6495.0 0.00418
6500.0 0.00418
6505.0 0.00417
6510.0 0.00417
6515.0 0.00416
6520.0 0.00416
6525.0 0.00415
6530.0 0.00415
6535.0 0.00414
6540.0 0.00413
6545.0 0.00413
6550.0 0.00412
6555.0 0.00411
6560.0 0.0041
6565.0 0.0041
6570.0 0.00409
6575.0 0.00408
6580.0 0.00407
6585.0 0.00406
6590.0 0.00405
6595.0 0.00405
6600.0 0.00404
6605.0 0.00403
6610.0 0.00402
6615.0 0.00401
6620.0 0.004
6625.0 0.00399
6630.0 0.00398
6635.0 0.00397
6640.0 0.00396
6645.0 0.00395
6650.0 0.00393
6655.0 0.00392
6660.0 0.00391
6665.0 0.0039
6670.0 0.00389
6675.0 0.00388
6680.0 0.00387
6685.0 0.00385
6690.0 0.00384
6695.0 0.00383
6700.0 0.00382
6705.0 0.0038
6710.0 0.00379
6715.0 0.00378
6720.0 0.00376
6725.0 0.00375
6730.0 0.00374
6735.0 0.00372
6740.0 0.00371
6745.0 0.0037
6750.0 0.00368
6755.0 0.00367
6760.0 0.00366
6765.0 0.00364
6770.0 0.00363
6775.0 0.00361
6780.0 0.0036
6785.0 0.00359
6790.0 0.00357
6795.0 0.00356
6800.0 0.00354
6805.0 0.00353
6810.0 0.00351
6815.0 0.0035
6820.0 0.00348
6825.0 0.00347
6830.0 0.00345
6835.0 0.00344
6840.0 0.00343
6845.0 0.00341
6850.0 0.0034
6855.0 0.00338
6860.0 0.00337
6865.0 0.00335
6870.0 0.00334
6875.0 0.00332
6880.0 0.00331
6885.0 0.00329
6890.0 0.00328
6895.0 0.00326
6900.0 0.00325
6905.0 0.00323
6910.0 0.00322
6915.0 0.0032
6920.0 0.00319
6925.0 0.00317
6930.0 0.00316
6935.0 0.00314
6940.0 0.00313
6945.0 0.00311
6950.0 0.0031
6955.0 0.00308
6960.0 0.00307
6965.0 0.00306
6970.0 0.00304
6975.0 0.00303
6980.0 0.00301
6985.0 0.003
6990.0 0.00298
6995.0 0.00297
7000.0 0.00295
7005.0 0.00294
7010.0 0.00293
7015.0 0.00291
7020.0 0.0029
7025.0 0.00288
7030.0 0.00287
7035.0 0.00286
7040.0 0.00284
7045.0 0.00283
7050.0 0.00282
7055.0 0.0028
7060.0 0.00279
7065.0 0.00278
7070.0 0.00276
7075.0 0.00275
7080.0 0.00274
7085.0 0.00272
7090.0 0.00271
7095.0 0.0027
7100.0 0.00268
7105.0 0.00267
7110.0 0.00266
7115.0 0.00264
7120.0 0.00263
7125.0 0.00262
7130.0 0.00261
7135.0 0.00259
7140.0 0.00258
7145.0 0.00257
7150.0 0.00256
7155.0 0.00255
7160.0 0.00253
7165.0 0.00252
7170.0 0.00251
7175.0 0.0025
7180.0 0.00249
7185.0 0.00247
7190.0 0.00246
7195.0 0.00245
7200.0 0.00244
7205.0 0.00243
7210.0 0.00242
7215.0 0.00241
7220.0 0.00239
7225.0 0.00238
7230.0 0.00237
7235.0 0.00236
7240.0 0.00235
7245.0 0.00234
7250.0 0.00233
7255.0 0.00232
7260.0 0.00231
7265.0 0.0023
7270.0 0.00229
7275.0 0.00228
7280.0 0.00227
7285.0 0.00226
7290.0 0.00225
7295.0 0.00224
7300.0 0.00223
7305.0 0.00222
7310.0 0.00221
7315.0 0.0022
7320.0 0.00219
7325.0 0.00218
7330.0 0.00217
7335.0 0.00216
7340.0 0.00215
7345.0 0.00214
7350.0 0.00213
7355.0 0.00213
7360.0 0.00212
7365.0 0.00211
7370.0 0.0021
7375.0 0.00209
7380.0 0.00208
7385.0 0.00207
7390.0 0.00206
7395.0 0.00206
7400.0 0.00205
7405.0 0.00204
7410.0 0.00203
7415.0 0.00202
7420.0 0.00202
7425.0 0.00201
7430.0 0.002
7435.0 0.00199
7440.0 0.00198
7445.0 0.00198
7450.0 0.00197
7455.0 0.00196
7460.0 0.00195
7465.0 0.00195
7470.0 0.00194
7475.0 0.00193
7480.0 0.00193
7485.0 0.00192
7490.0 0.00191
7495.0 0.0019
7500.0 0.0019
7505.0 0.00189
7510.0 0.00188
7515.0 0.00188
7520.0 0.00187
7525.0 0.00186
7530.0 0.00186
7535.0 0.00185
7540.0 0.00184
7545.0 0.00184
7550.0 0.00183
7555.0 0.00183
7560.0 0.00182
7565.0 0.00181
7570.0 0.00181
7575.0 0.0018
7580.0 0.00179
7585.0 0.00179
7590.0 0.00178
7595.0 0.00178
7600.0 0.00177
7605.0 0.00177
7610.0 0.00176
7615.0 0.00175
7620.0 0.00175
7625.0 0.00174
7630.0 0.00174
7635.0 0.00173
7640.0 0.00173
7645.0 0.00172
7650.0 0.00171
7655.0 0.00171
7660.0 0.0017
7665.0 0.0017
7670.0 0.00169
7675.0 0.00169
7680.0 0.00168
7685.0 0.00168
7690.0 0.00167
7695.0 0.00167
7700.0 0.00166
7705.0 0.00166
7710.0 0.00165
7715.0 0.00165
7720.0 0.00164
7725.0 0.00164
7730.0 0.00163
7735.0 0.00163
7740.0 0.00162
7745.0 0.00162
7750.0 0.00161
7755.0 0.00161
7760.0 0.0016
7765.0 0.0016
7770.0 0.00159
7775.0 0.00159
7780.0 0.00159
7785.0 0.00158
7790.0 0.00158
7795.0 0.00157
7800.0 0.00157
7805.0 0.00156
7810.0 0.00156
7815.0 0.00155
7820.0 0.00155
7825.0 0.00154
7830.0 0.00154
7835.0 0.00154
7840.0 0.00153
7845.0 0.00153
7850.0 0.00152
7855.0 0.00152
7860.0 0.00151
7865.0 0.00151
7870.0 0.00151
7875.0 0.0015
7880.0 0.0015
7885.0 0.00149
7890.0 0.00149
7895.0 0.00148
7900.0 0.00148
7905.0 0.00148
7910.0 0.00147
7915.0 0.00147
7920.0 0.00146
7925.0 0.00146
7930.0 0.00146
7935.0 0.00145
7940.0 0.00145
7945.0 0.00144
7950.0 0.00144
7955.0 0.00144
7960.0 0.00143
7965.0 0.00143
7970.0 0.00142
7975.0 0.00142
7980.0 0.00142
7985.0 0.00141
7990.0 0.00141
7995.0 0.0014
8000.0 0.0014
8005.0 0.0014
8010.0 0.00139
8015.0 0.00139
8020.0 0.00138
8025.0 0.00138
8030.0 0.00138
8035.0 0.00137
8040.0 0.00137
8045.0 0.00136
8050.0 0.00136
8055.0 0.00136
8060.0 0.00135
8065.0 0.00135
8070.0 0.00135
8075.0 0.00134
8080.0 0.00134
8085.0 0.00133
8090.0 0.00133
8095.0 0.00133
8100.0 0.00132
8105.0 0.00132
8110.0 0.00131
8115.0 0.00131
8120.0 0.00131
8125.0 0.0013
8130.0 0.0013
8135.0 0.0013
8140.0 0.00129
8145.0 0.00129
8150.0 0.00129
8155.0 0.00128
8160.0 0.00128
8165.0 0.00127
8170.0 0.00127
8175.0 0.00127
8180.0 0.00126
8185.0 0.00126
8190.0 0.00126
8195.0 0.00125
8200.0 0.00125
8205.0 0.00125
8210.0 0.00124
8215.0 0.00124
