#lamb flux
1605.0 0.0681
1610.0 0.0686
1615.0 0.0691
1620.0 0.0696
1625.0 0.0701
1630.0 0.0707
1635.0 0.0712
1640.0 0.0717
1645.0 0.0722
1650.0 0.0728
1655.0 0.0733
1660.0 0.0738
1665.0 0.0744
1670.0 0.0749
1675.0 0.0754
1680.0 0.076
1685.0 0.0765
1690.0 0.0771
1695.0 0.0776
1700.0 0.0781
1705.0 0.0787
1710.0 0.0792
1715.0 0.0798
1720.0 0.0803
1725.0 0.0809
1730.0 0.0814
1735.0 0.082
1740.0 0.0825
1745.0 0.0831
1750.0 0.0836
1755.0 0.0842
1760.0 0.0847
1765.0 0.0853
1770.0 0.0858
1775.0 0.0863
1780.0 0.0869
1785.0 0.0874
1790.0 0.088
1795.0 0.0885
1800.0 0.089
1805.0 0.0896
1810.0 0.0901
1815.0 0.0906
1820.0 0.0912
1825.0 0.0917
1830.0 0.0922
1835.0 0.0928
1840.0 0.0933
1845.0 0.0938
1850.0 0.0943
1855.0 0.0948
1860.0 0.0953
1865.0 0.0958
1870.0 0.0963
1875.0 0.0968
1880.0 0.0972
1885.0 0.0977
1890.0 0.0982
1895.0 0.0986
1900.0 0.0991
1905.0 0.0996
1910.0 0.1
1915.0 0.1
1920.0 0.101
1925.0 0.101
1930.0 0.102
1935.0 0.102
1940.0 0.102
1945.0 0.103
1950.0 0.103
1955.0 0.103
1960.0 0.104
1965.0 0.104
1970.0 0.104
1975.0 0.105
1980.0 0.105
1985.0 0.105
1990.0 0.106
1995.0 0.106
2000.0 0.106
2005.0 0.106
2010.0 0.106
2015.0 0.106
2020.0 0.107
2025.0 0.107
2030.0 0.107
2035.0 0.107
2040.0 0.107
2045.0 0.107
2050.0 0.107
2055.0 0.107
2060.0 0.107
2065.0 0.107
2070.0 0.107
2075.0 0.107
2080.0 0.107
2085.0 0.107
2090.0 0.106
2095.0 0.106
2100.0 0.106
2105.0 0.106
2110.0 0.106
2115.0 0.105
2120.0 0.105
2125.0 0.105
2130.0 0.105
2135.0 0.104
2140.0 0.104
2145.0 0.104
2150.0 0.103
2155.0 0.103
2160.0 0.103
2165.0 0.102
2170.0 0.102
2175.0 0.102
2180.0 0.101
2185.0 0.101
2190.0 0.1
2195.0 0.0999
2200.0 0.0994
2205.0 0.099
2210.0 0.0985
2215.0 0.098
2220.0 0.0976
2225.0 0.0971
2230.0 0.0966
2235.0 0.0961
2240.0 0.0956
2245.0 0.0951
2250.0 0.0947
2255.0 0.0942
2260.0 0.0937
2265.0 0.0932
2270.0 0.0926
2275.0 0.0921
2280.0 0.0916
2285.0 0.0911
2290.0 0.0906
2295.0 0.09
2300.0 0.0895
2305.0 0.089
2310.0 0.0885
2315.0 0.0879
2320.0 0.0874
2325.0 0.0869
2330.0 0.0863
2335.0 0.0858
2340.0 0.0852
2345.0 0.0847
2350.0 0.0842
2355.0 0.0837
2360.0 0.0831
2365.0 0.0826
2370.0 0.0821
2375.0 0.0815
2380.0 0.081
2385.0 0.0805
2390.0 0.08
2395.0 0.0795
2400.0 0.0789
2405.0 0.0784
2410.0 0.0779
2415.0 0.0774
2420.0 0.0769
2425.0 0.0764
2430.0 0.0759
2435.0 0.0754
2440.0 0.075
2445.0 0.0745
2450.0 0.074
2455.0 0.0735
2460.0 0.073
2465.0 0.0726
2470.0 0.0721
2475.0 0.0717
2480.0 0.0712
2485.0 0.0708
2490.0 0.0704
2495.0 0.0699
2500.0 0.0695
2505.0 0.069
2510.0 0.0686
2515.0 0.0683
2520.0 0.0679
2525.0 0.0675
2530.0 0.0671
2535.0 0.0667
2540.0 0.0663
2545.0 0.0659
2550.0 0.0656
2555.0 0.0652
2560.0 0.0649
2565.0 0.0645
2570.0 0.0642
2575.0 0.0638
2580.0 0.0635
2585.0 0.0631
2590.0 0.0628
2595.0 0.0625
2600.0 0.0622
2605.0 0.0619
2610.0 0.0616
2615.0 0.0613
2620.0 0.061
2625.0 0.0607
2630.0 0.0605
2635.0 0.0602
2640.0 0.0599
2645.0 0.0597
2650.0 0.0594
2655.0 0.0592
2660.0 0.0589
2665.0 0.0586
2670.0 0.0584
2675.0 0.0582
2680.0 0.0579
2685.0 0.0577
2690.0 0.0575
2695.0 0.0572
2700.0 0.057
2705.0 0.0568
2710.0 0.0566
2715.0 0.0564
2720.0 0.0562
2725.0 0.056
2730.0 0.0558
2735.0 0.0556
2740.0 0.0553
2745.0 0.0551
2750.0 0.055
2755.0 0.0548
2760.0 0.0546
2765.0 0.0544
2770.0 0.0542
2775.0 0.054
2780.0 0.0539
2785.0 0.0537
2790.0 0.0535
2795.0 0.0534
2800.0 0.0532
2805.0 0.053
2810.0 0.0529
2815.0 0.0527
2820.0 0.0525
2825.0 0.0524
2830.0 0.0522
2835.0 0.0521
2840.0 0.0519
2845.0 0.0518
2850.0 0.0516
2855.0 0.0515
2860.0 0.0513
2865.0 0.0512
2870.0 0.051
2875.0 0.0509
2880.0 0.0507
2885.0 0.0506
2890.0 0.0505
2895.0 0.0503
2900.0 0.0502
2905.0 0.0501
2910.0 0.0499
2915.0 0.0498
2920.0 0.0497
2925.0 0.0495
2930.0 0.0494
2935.0 0.0493
2940.0 0.0492
2945.0 0.049
2950.0 0.0489
2955.0 0.0488
2960.0 0.0487
2965.0 0.0485
2970.0 0.0484
2975.0 0.0483
2980.0 0.0482
2985.0 0.0481
2990.0 0.0479
2995.0 0.0478
3000.0 0.0477
3005.0 0.0476
3010.0 0.0475
3015.0 0.0474
3020.0 0.0473
3025.0 0.0471
3030.0 0.047
3035.0 0.0469
3040.0 0.0468
3045.0 0.0467
3050.0 0.0466
3055.0 0.0465
3060.0 0.0464
3065.0 0.0462
3070.0 0.0461
3075.0 0.046
3080.0 0.0459
3085.0 0.0458
3090.0 0.0457
3095.0 0.0456
3100.0 0.0455
3105.0 0.0453
3110.0 0.0452
3115.0 0.0451
3120.0 0.045
3125.0 0.0449
3130.0 0.0448
3135.0 0.0447
3140.0 0.0445
3145.0 0.0444
3150.0 0.0443
3155.0 0.0442
3160.0 0.0441
3165.0 0.044
3170.0 0.0439
3175.0 0.0437
3180.0 0.0436
3185.0 0.0435
3190.0 0.0434
3195.0 0.0433
3200.0 0.0431
3205.0 0.043
3210.0 0.0429
3215.0 0.0428
3220.0 0.0426
3225.0 0.0425
3230.0 0.0424
3235.0 0.0423
3240.0 0.0421
3245.0 0.042
3250.0 0.0419
3255.0 0.0418
3260.0 0.0416
3265.0 0.0415
3270.0 0.0414
3275.0 0.0412
3280.0 0.0411
3285.0 0.0409
3290.0 0.0408
3295.0 0.0407
3300.0 0.0405
3305.0 0.0404
3310.0 0.0402
3315.0 0.0401
3320.0 0.0399
3325.0 0.0398
3330.0 0.0396
3335.0 0.0395
3340.0 0.0393
3345.0 0.0392
3350.0 0.039
3355.0 0.0389
3360.0 0.0387
3365.0 0.0385
3370.0 0.0384
3375.0 0.0382
3380.0 0.0381
3385.0 0.0379
3390.0 0.0377
3395.0 0.0375
3400.0 0.0374
3405.0 0.0372
3410.0 0.037
3415.0 0.0368
3420.0 0.0366
3425.0 0.0365
3430.0 0.0363
3435.0 0.0361
3440.0 0.0359
3445.0 0.0357
3450.0 0.0355
3455.0 0.0353
3460.0 0.0351
3465.0 0.0349
3470.0 0.0348
3475.0 0.0348
3480.0 0.0345
3485.0 0.0341
3490.0 0.0335
3495.0 0.0332
3500.0 0.0328
3505.0 0.0324
3510.0 0.032
3515.0 0.0316
3520.0 0.0313
3525.0 0.0309
3530.0 0.0307
3535.0 0.0305
3540.0 0.0302
3545.0 0.0301
3550.0 0.0301
3555.0 0.03
3560.0 0.03
3565.0 0.0301
3570.0 0.0301
3575.0 0.0302
3580.0 0.0301
3585.0 0.0299
3590.0 0.0298
3595.0 0.0296
3600.0 0.0293
3605.0 0.0291
3610.0 0.0287
3615.0 0.0283
3620.0 0.0281
3625.0 0.0278
3630.0 0.0276
3635.0 0.0274
3640.0 0.0271
3645.0 0.0268
3650.0 0.0267
3655.0 0.0268
3660.0 0.0267
3665.0 0.0268
3670.0 0.0269
3675.0 0.0269
3680.0 0.0268
3685.0 0.0269
3690.0 0.0271
3695.0 0.0271
3700.0 0.0271
3705.0 0.0271
3710.0 0.027
3715.0 0.027
3720.0 0.0268
3725.0 0.0267
3730.0 0.0265
3735.0 0.0263
3740.0 0.0262
3745.0 0.026
3750.0 0.0258
3755.0 0.0256
3760.0 0.0253
3765.0 0.0251
3770.0 0.0249
3775.0 0.0249
3780.0 0.0247
3785.0 0.0246
3790.0 0.0245
3795.0 0.0245
3800.0 0.0244
3805.0 0.0244
3810.0 0.0244
3815.0 0.0243
3820.0 0.0241
3825.0 0.0241
3830.0 0.0239
3835.0 0.0237
3840.0 0.0236
3845.0 0.0234
3850.0 0.0232
3855.0 0.023
3860.0 0.0228
3865.0 0.0226
3870.0 0.0224
3875.0 0.0223
3880.0 0.0221
3885.0 0.0219
3890.0 0.0217
3895.0 0.0215
3900.0 0.0214
3905.0 0.0213
3910.0 0.0212
3915.0 0.0212
3920.0 0.0211
3925.0 0.0211
3930.0 0.021
3935.0 0.0209
3940.0 0.0208
3945.0 0.0207
3950.0 0.0205
3955.0 0.0203
3960.0 0.0203
3965.0 0.0201
3970.0 0.02
3975.0 0.0198
3980.0 0.0197
3985.0 0.0195
3990.0 0.0194
3995.0 0.0192
4000.0 0.0192
4005.0 0.0191
4010.0 0.0191
4015.0 0.019
4020.0 0.0191
4025.0 0.0191
4030.0 0.0191
4035.0 0.0192
4040.0 0.0193
4045.0 0.0193
4050.0 0.0194
4055.0 0.0195
4060.0 0.0195
4065.0 0.0196
4070.0 0.0197
4075.0 0.0197
4080.0 0.0197
4085.0 0.0197
4090.0 0.0197
4095.0 0.0196
4100.0 0.0196
4105.0 0.0194
4110.0 0.0193
4115.0 0.0192
4120.0 0.0191
4125.0 0.0189
4130.0 0.0187
4135.0 0.0186
4140.0 0.0185
4145.0 0.0183
4150.0 0.0182
4155.0 0.0181
4160.0 0.018
4165.0 0.0179
4170.0 0.0177
4175.0 0.0176
4180.0 0.0174
4185.0 0.0173
4190.0 0.0171
4195.0 0.0169
4200.0 0.0168
4205.0 0.0167
4210.0 0.0165
4215.0 0.0164
4220.0 0.0163
4225.0 0.0163
4230.0 0.0162
4235.0 0.0162
4240.0 0.0161
4245.0 0.0161
4250.0 0.0162
4255.0 0.0162
4260.0 0.0163
4265.0 0.0165
4270.0 0.0166
4275.0 0.0167
4280.0 0.0168
4285.0 0.0169
4290.0 0.017
4295.0 0.0171
4300.0 0.0172
4305.0 0.0173
4310.0 0.0173
4315.0 0.0173
4320.0 0.0173
4325.0 0.0173
4330.0 0.0172
4335.0 0.0171
4340.0 0.0169
4345.0 0.0168
4350.0 0.0167
4355.0 0.0167
4360.0 0.0165
4365.0 0.0164
4370.0 0.0163
4375.0 0.0163
4380.0 0.0162
4385.0 0.0161
4390.0 0.016
4395.0 0.0159
4400.0 0.0159
4405.0 0.0159
4410.0 0.0158
4415.0 0.0158
4420.0 0.0157
4425.0 0.0156
4430.0 0.0155
4435.0 0.0154
4440.0 0.0153
4445.0 0.0153
4450.0 0.0152
4455.0 0.0151
4460.0 0.0151
4465.0 0.015
4470.0 0.0149
4475.0 0.0149
4480.0 0.0148
4485.0 0.0148
4490.0 0.0147
4495.0 0.0147
4500.0 0.0147
4505.0 0.0147
4510.0 0.0147
4515.0 0.0147
4520.0 0.0147
4525.0 0.0147
4530.0 0.0147
4535.0 0.0147
4540.0 0.0147
4545.0 0.0147
4550.0 0.0146
4555.0 0.0146
4560.0 0.0146
4565.0 0.0146
4570.0 0.0146
4575.0 0.0146
4580.0 0.0146
4585.0 0.0146
4590.0 0.0147
4595.0 0.0147
4600.0 0.0148
4605.0 0.0149
4610.0 0.015
4615.0 0.015
4620.0 0.0151
4625.0 0.0152
4630.0 0.0152
4635.0 0.0152
4640.0 0.0153
4645.0 0.0153
4650.0 0.0153
4655.0 0.0153
4660.0 0.0154
4665.0 0.0153
4670.0 0.0153
4675.0 0.0153
4680.0 0.0152
4685.0 0.0151
4690.0 0.015
4695.0 0.0149
4700.0 0.0148
4705.0 0.0147
4710.0 0.0146
4715.0 0.0145
4720.0 0.0144
4725.0 0.0143
4730.0 0.0142
4735.0 0.0141
4740.0 0.0141
4745.0 0.014
4750.0 0.0141
4755.0 0.0141
4760.0 0.0141
4765.0 0.0142
4770.0 0.0143
4775.0 0.0145
4780.0 0.0147
4785.0 0.0148
4790.0 0.015
4795.0 0.0152
4800.0 0.0155
4805.0 0.0156
4810.0 0.0158
4815.0 0.016
4820.0 0.0162
4825.0 0.0163
4830.0 0.0163
4835.0 0.0164
4840.0 0.0165
4845.0 0.0165
4850.0 0.0165
4855.0 0.0164
4860.0 0.0164
4865.0 0.0163
4870.0 0.0162
4875.0 0.0161
4880.0 0.016
4885.0 0.0159
4890.0 0.0158
4895.0 0.0157
4900.0 0.0155
4905.0 0.0154
4910.0 0.0153
4915.0 0.0152
4920.0 0.0151
4925.0 0.015
4930.0 0.0148
4935.0 0.0147
4940.0 0.0146
4945.0 0.0144
4950.0 0.0144
4955.0 0.0143
4960.0 0.0142
4965.0 0.0141
4970.0 0.014
4975.0 0.0139
4980.0 0.0138
4985.0 0.0137
4990.0 0.0136
4995.0 0.0135
5000.0 0.0134
5005.0 0.0133
5010.0 0.0132
5015.0 0.0131
5020.0 0.013
5025.0 0.0129
5030.0 0.0128
5035.0 0.0127
5040.0 0.0126
5045.0 0.0125
5050.0 0.0125
5055.0 0.0124
5060.0 0.0123
5065.0 0.0122
5070.0 0.0122
5075.0 0.0121
5080.0 0.0121
5085.0 0.012
5090.0 0.0119
5095.0 0.0119
5100.0 0.0119
5105.0 0.0118
5110.0 0.0118
5115.0 0.0117
5120.0 0.0117
5125.0 0.0116
5130.0 0.0116
5135.0 0.0115
5140.0 0.0115
5145.0 0.0114
5150.0 0.0114
5155.0 0.0113
5160.0 0.0113
5165.0 0.0112
5170.0 0.0112
5175.0 0.0111
5180.0 0.011
5185.0 0.011
5190.0 0.0109
5195.0 0.0109
5200.0 0.0108
5205.0 0.0108
5210.0 0.0108
5215.0 0.0107
5220.0 0.0107
5225.0 0.0106
5230.0 0.0106
5235.0 0.0105
5240.0 0.0105
5245.0 0.0104
5250.0 0.0104
5255.0 0.0103
5260.0 0.0102
5265.0 0.0102
5270.0 0.0102
5275.0 0.0101
5280.0 0.0101
5285.0 0.01
5290.0 0.00996
5295.0 0.00992
5300.0 0.00987
5305.0 0.00983
5310.0 0.00979
5315.0 0.00976
5320.0 0.00974
5325.0 0.00973
5330.0 0.00973
5335.0 0.00973
5340.0 0.00971
5345.0 0.0097
5350.0 0.00969
5355.0 0.00968
5360.0 0.00965
5365.0 0.00967
5370.0 0.00966
5375.0 0.00965
5380.0 0.00962
5385.0 0.00959
5390.0 0.00958
5395.0 0.00957
5400.0 0.00954
5405.0 0.00953
5410.0 0.00952
5415.0 0.00952
5420.0 0.00949
5425.0 0.00948
5430.0 0.00946
5435.0 0.00943
5440.0 0.00942
5445.0 0.0094
5450.0 0.00938
5455.0 0.00938
5460.0 0.00936
5465.0 0.00937
5470.0 0.00936
5475.0 0.00932
5480.0 0.00931
5485.0 0.00932
5490.0 0.00935
5495.0 0.00936
5500.0 0.00937
5505.0 0.00935
5510.0 0.0093
5515.0 0.00926
5520.0 0.00923
5525.0 0.00918
5530.0 0.00912
5535.0 0.00907
5540.0 0.00902
5545.0 0.00894
5550.0 0.00888
5555.0 0.00881
5560.0 0.00878
5565.0 0.00874
5570.0 0.00871
5575.0 0.00868
5580.0 0.00867
5585.0 0.00868
5590.0 0.00868
5595.0 0.00872
5600.0 0.00875
5605.0 0.00878
5610.0 0.0088
5615.0 0.00882
5620.0 0.00884
5625.0 0.00885
5630.0 0.00888
5635.0 0.00891
5640.0 0.0089
5645.0 0.0089
5650.0 0.00888
5655.0 0.00883
5660.0 0.00877
5665.0 0.00868
5670.0 0.0086
5675.0 0.00855
5680.0 0.00849
5685.0 0.00845
5690.0 0.00838
5695.0 0.00831
5700.0 0.00824
5705.0 0.00817
5710.0 0.00813
5715.0 0.00807
5720.0 0.00801
5725.0 0.00798
5730.0 0.00795
5735.0 0.00791
5740.0 0.00788
5745.0 0.00786
5750.0 0.00785
5755.0 0.00787
5760.0 0.00786
5765.0 0.00787
5770.0 0.0079
5775.0 0.00792
5780.0 0.00797
5785.0 0.00803
5790.0 0.00806
5795.0 0.00812
5800.0 0.00816
5805.0 0.00821
5810.0 0.00826
5815.0 0.0083
5820.0 0.00835
5825.0 0.0084
5830.0 0.00845
5835.0 0.00848
5840.0 0.00848
5845.0 0.00847
5850.0 0.00845
5855.0 0.00845
5860.0 0.00841
5865.0 0.00838
5870.0 0.00834
5875.0 0.00829
5880.0 0.00824
5885.0 0.00817
5890.0 0.00809
5895.0 0.00803
5900.0 0.00797
5905.0 0.0079
5910.0 0.00787
5915.0 0.00782
5920.0 0.00778
5925.0 0.00776
5930.0 0.00773
5935.0 0.00774
5940.0 0.00775
5945.0 0.00777
5950.0 0.00777
5955.0 0.00776
5960.0 0.00774
5965.0 0.00773
5970.0 0.00773
5975.0 0.00771
5980.0 0.00768
5985.0 0.00764
5990.0 0.00762
5995.0 0.00756
6000.0 0.00753
6005.0 0.00749
6010.0 0.00744
6015.0 0.0074
6020.0 0.0074
6025.0 0.00737
6030.0 0.00733
6035.0 0.0073
6040.0 0.00727
6045.0 0.00726
6050.0 0.00726
6055.0 0.00724
6060.0 0.00723
6065.0 0.00724
6070.0 0.00723
6075.0 0.00723
6080.0 0.0072
6085.0 0.00717
6090.0 0.00714
6095.0 0.00712
6100.0 0.00709
6105.0 0.00707
6110.0 0.00703
6115.0 0.007
6120.0 0.00699
6125.0 0.00697
6130.0 0.00696
6135.0 0.00695
6140.0 0.00696
6145.0 0.00693
6150.0 0.0069
6155.0 0.00686
6160.0 0.00686
6165.0 0.00686
6170.0 0.00684
6175.0 0.0068
6180.0 0.00677
6185.0 0.00677
6190.0 0.00674
6195.0 0.00672
6200.0 0.0067
6205.0 0.00667
6210.0 0.00665
6215.0 0.00664
6220.0 0.00659
6225.0 0.00657
6230.0 0.00653
6235.0 0.00651
6240.0 0.00648
6245.0 0.00644
6250.0 0.0064
6255.0 0.00638
6260.0 0.00637
6265.0 0.00634
6270.0 0.00631
6275.0 0.00627
6280.0 0.00624
6285.0 0.0062
6290.0 0.00618
6295.0 0.00617
6300.0 0.00615
6305.0 0.00614
6310.0 0.00614
6315.0 0.00613
6320.0 0.00613
6325.0 0.00612
6330.0 0.00615
6335.0 0.00613
6340.0 0.00611
6345.0 0.0061
6350.0 0.00609
6355.0 0.00607
6360.0 0.00606
6365.0 0.00604
6370.0 0.00601
6375.0 0.00601
6380.0 0.00601
6385.0 0.00603
6390.0 0.00604
6395.0 0.00606
6400.0 0.00609
6405.0 0.00614
6410.0 0.00617
6415.0 0.00621
6420.0 0.00626
6425.0 0.00632
6430.0 0.0064
6435.0 0.00644
6440.0 0.00652
6445.0 0.0066
6450.0 0.00666
6455.0 0.00673
6460.0 0.0068
6465.0 0.00686
6470.0 0.00692
6475.0 0.00698
6480.0 0.00705
6485.0 0.00712
6490.0 0.00717
6495.0 0.00721
6500.0 0.00727
6505.0 0.00731
6510.0 0.00735
6515.0 0.00737
6520.0 0.00739
6525.0 0.00742
6530.0 0.00742
6535.0 0.00743
6540.0 0.00744
6545.0 0.00744
6550.0 0.00742
6555.0 0.00741
6560.0 0.0074
6565.0 0.00739
6570.0 0.00738
6575.0 0.00737
6580.0 0.00735
6585.0 0.00732
6590.0 0.0073
6595.0 0.00727
6600.0 0.00724
6605.0 0.00721
6610.0 0.00717
6615.0 0.00713
6620.0 0.00709
6625.0 0.00705
6630.0 0.00699
6635.0 0.00696
6640.0 0.0069
6645.0 0.00686
6650.0 0.00681
6655.0 0.00675
6660.0 0.0067
6665.0 0.00664
6670.0 0.00659
6675.0 0.00654
6680.0 0.0065
6685.0 0.00645
6690.0 0.00642
6695.0 0.00638
6700.0 0.00632
6705.0 0.00628
6710.0 0.00624
6715.0 0.0062
6720.0 0.00616
6725.0 0.00611
6730.0 0.00605
6735.0 0.00602
6740.0 0.00598
6745.0 0.00593
6750.0 0.00589
6755.0 0.00587
6760.0 0.00585
6765.0 0.0058
6770.0 0.00571
6775.0 0.00567
6780.0 0.00569
6785.0 0.0057
6790.0 0.00569
6795.0 0.00568
6800.0 0.00565
6805.0 0.0056
6810.0 0.00556
6815.0 0.0055
6820.0 0.00542
6825.0 0.00534
6830.0 0.00524
6835.0 0.00516
6840.0 0.00505
6845.0 0.00496
6850.0 0.00487
6855.0 0.00479
6860.0 0.00471
6865.0 0.00464
6870.0 0.00458
6875.0 0.00453
6880.0 0.00447
6885.0 0.00441
6890.0 0.00437
6895.0 0.00436
6900.0 0.00438
6905.0 0.00442
6910.0 0.00445
6915.0 0.00448
6920.0 0.00453
6925.0 0.00458
6930.0 0.00465
6935.0 0.00469
6940.0 0.00474
6945.0 0.00478
6950.0 0.00478
6955.0 0.00478
6960.0 0.00473
6965.0 0.0047
6970.0 0.00474
6975.0 0.00477
6980.0 0.00477
6985.0 0.00477
6990.0 0.00478
6995.0 0.0048
7000.0 0.00481
7005.0 0.00483
7010.0 0.00484
7015.0 0.00483
7020.0 0.00484
7025.0 0.00484
7030.0 0.00483
7035.0 0.00484
7040.0 0.00485
7045.0 0.00486
7050.0 0.00488
7055.0 0.00489
7060.0 0.00492
7065.0 0.00495
7070.0 0.00495
7075.0 0.00494
7080.0 0.00495
7085.0 0.00496
7090.0 0.00499
7095.0 0.00502
7100.0 0.00504
7105.0 0.00505
7110.0 0.00508
7115.0 0.00509
7120.0 0.00508
7125.0 0.00504
7130.0 0.00496
7135.0 0.00484
7140.0 0.00476
7145.0 0.00466
7150.0 0.00458
7155.0 0.00451
7160.0 0.00443
7165.0 0.00436
7170.0 0.0043
7175.0 0.00426
7180.0 0.00421
7185.0 0.0042
7190.0 0.00416
7195.0 0.00413
7200.0 0.00412
7205.0 0.00411
7210.0 0.0041
7215.0 0.00411
7220.0 0.00413
7225.0 0.00413
7230.0 0.00414
7235.0 0.00413
7240.0 0.00413
7245.0 0.00409
7250.0 0.00409
7255.0 0.00408
7260.0 0.00407
7265.0 0.00404
7270.0 0.00402
7275.0 0.00403
7280.0 0.00402
7285.0 0.00402
7290.0 0.00405
7295.0 0.00409
7300.0 0.00415
7305.0 0.00422
7310.0 0.00428
7315.0 0.00434
7320.0 0.00438
7325.0 0.00438
7330.0 0.00436
7335.0 0.00436
7340.0 0.00435
7345.0 0.00433
7350.0 0.00431
7355.0 0.00429
7360.0 0.00427
7365.0 0.00427
7370.0 0.00425
7375.0 0.00425
7380.0 0.00426
7385.0 0.00425
7390.0 0.00426
7395.0 0.00428
7400.0 0.0043
7405.0 0.00434
7410.0 0.00439
7415.0 0.00443
7420.0 0.00429
7425.0 0.00414
7430.0 0.00414
7435.0 0.00414
7440.0 0.00415
7445.0 0.00415
7450.0 0.00415
7455.0 0.00416
7460.0 0.00416
7465.0 0.00417
7470.0 0.00417
7475.0 0.00418
7480.0 0.00418
7485.0 0.00419
7490.0 0.00419
7495.0 0.0042
7500.0 0.0042
7505.0 0.00421
7510.0 0.00422
7515.0 0.00422
7520.0 0.00423
7525.0 0.00424
7530.0 0.00424
7535.0 0.00425
7540.0 0.00426
7545.0 0.00426
7550.0 0.00427
7555.0 0.00428
7560.0 0.00428
7565.0 0.00429
7570.0 0.0043
7575.0 0.00431
7580.0 0.00432
7585.0 0.00432
7590.0 0.00433
7595.0 0.00434
7600.0 0.00435
7605.0 0.00436
7610.0 0.00436
7615.0 0.00437
7620.0 0.00438
7625.0 0.00439
7630.0 0.0044
7635.0 0.00441
7640.0 0.00442
7645.0 0.00442
7650.0 0.00443
7655.0 0.00444
7660.0 0.00445
7665.0 0.00446
7670.0 0.00447
7675.0 0.00447
7680.0 0.00448
7685.0 0.00449
7690.0 0.0045
7695.0 0.00451
7700.0 0.00452
7705.0 0.00452
7710.0 0.00453
7715.0 0.00454
7720.0 0.00455
7725.0 0.00456
7730.0 0.00456
7735.0 0.00457
7740.0 0.00458
7745.0 0.00459
7750.0 0.0046
7755.0 0.0046
7760.0 0.00461
7765.0 0.00462
7770.0 0.00463
7775.0 0.00463
7780.0 0.00464
7785.0 0.00465
7790.0 0.00465
7795.0 0.00466
7800.0 0.00467
7805.0 0.00468
7810.0 0.00468
7815.0 0.00469
7820.0 0.0047
7825.0 0.0047
7830.0 0.00471
7835.0 0.00472
7840.0 0.00472
7845.0 0.00473
7850.0 0.00473
7855.0 0.00474
7860.0 0.00475
7865.0 0.00475
7870.0 0.00476
7875.0 0.00476
7880.0 0.00477
7885.0 0.00477
7890.0 0.00478
7895.0 0.00478
7900.0 0.00479
7905.0 0.00479
7910.0 0.0048
7915.0 0.0048
7920.0 0.0048
7925.0 0.00481
7930.0 0.00481
7935.0 0.00482
7940.0 0.00482
7945.0 0.00482
7950.0 0.00483
7955.0 0.00483
7960.0 0.00483
7965.0 0.00483
7970.0 0.00484
7975.0 0.00484
7980.0 0.00484
7985.0 0.00484
7990.0 0.00485
7995.0 0.00485
8000.0 0.00485
8005.0 0.00485
8010.0 0.00485
8015.0 0.00486
8020.0 0.00486
8025.0 0.00486
8030.0 0.00486
8035.0 0.00486
8040.0 0.00486
8045.0 0.00486
8050.0 0.00486
8055.0 0.00487
8060.0 0.00487
8065.0 0.00487
8070.0 0.00487
8075.0 0.00487
8080.0 0.00487
8085.0 0.00487
8090.0 0.00487
8095.0 0.00487
8100.0 0.00487
8105.0 0.00487
8110.0 0.00487
8115.0 0.00487
8120.0 0.00487
8125.0 0.00487
8130.0 0.00487
8135.0 0.00486
8140.0 0.00486
8145.0 0.00486
8150.0 0.00486
8155.0 0.00486
8160.0 0.00486
8165.0 0.00486
8170.0 0.00486
8175.0 0.00485
8180.0 0.00485
8185.0 0.00485
8190.0 0.00485
8195.0 0.00485
8200.0 0.00485
8205.0 0.00484
8210.0 0.00484
8215.0 0.00484
8220.0 0.00484
8225.0 0.00483
8230.0 0.00483
8235.0 0.00483
8240.0 0.00483
8245.0 0.00482
8250.0 0.00482
8255.0 0.00482
8260.0 0.00481
8265.0 0.00481
8270.0 0.00481
8275.0 0.0048
8280.0 0.0048
8285.0 0.0048
8290.0 0.00479
8295.0 0.00479
8300.0 0.00479
8305.0 0.00478
8310.0 0.00478
8315.0 0.00477
8320.0 0.00477
8325.0 0.00476
8330.0 0.00476
8335.0 0.00476
8340.0 0.00475
8345.0 0.00475
8350.0 0.00474
8355.0 0.00474
8360.0 0.00473
8365.0 0.00473
8370.0 0.00472
8375.0 0.00472
8380.0 0.00471
8385.0 0.00471
8390.0 0.0047
8395.0 0.0047
8400.0 0.00469
8405.0 0.00469
8410.0 0.00468
8415.0 0.00467
8420.0 0.00467
8425.0 0.00466
8430.0 0.00466
8435.0 0.00465
8440.0 0.00464
8445.0 0.00464
8450.0 0.00463
8455.0 0.00463
8460.0 0.00462
8465.0 0.00461
8470.0 0.00461
8475.0 0.0046
8480.0 0.00459
8485.0 0.00459
8490.0 0.00458
8495.0 0.00457
8500.0 0.00457
8505.0 0.00456
8510.0 0.00455
8515.0 0.00455
8520.0 0.00454
8525.0 0.00453
8530.0 0.00452
8535.0 0.00452
8540.0 0.00451
8545.0 0.0045
8550.0 0.00449
8555.0 0.00449
8560.0 0.00448
8565.0 0.00447
8570.0 0.00446
