#lamb flux
1605.0 0.00799
1610.0 0.00806
1615.0 0.00812
1620.0 0.00818
1625.0 0.00824
1630.0 0.00831
1635.0 0.00837
1640.0 0.00843
1645.0 0.0085
1650.0 0.00857
1655.0 0.00864
1660.0 0.00871
1665.0 0.00877
1670.0 0.00884
1675.0 0.00891
1680.0 0.00898
1685.0 0.00905
1690.0 0.00913
1695.0 0.0092
1700.0 0.00927
1705.0 0.00935
1710.0 0.00942
1715.0 0.00949
1720.0 0.00957
1725.0 0.00965
1730.0 0.00973
1735.0 0.00981
1740.0 0.00989
1745.0 0.00997
1750.0 0.0101
1755.0 0.0101
1760.0 0.0102
1765.0 0.0103
1770.0 0.0104
1775.0 0.0105
1780.0 0.0106
1785.0 0.0107
1790.0 0.0107
1795.0 0.0108
1800.0 0.0109
1805.0 0.011
1810.0 0.0111
1815.0 0.0112
1820.0 0.0113
1825.0 0.0114
1830.0 0.0115
1835.0 0.0116
1840.0 0.0117
1845.0 0.0118
1850.0 0.0119
1855.0 0.012
1860.0 0.0121
1865.0 0.0122
1870.0 0.0123
1875.0 0.0124
1880.0 0.0125
1885.0 0.0127
1890.0 0.0128
1895.0 0.0129
1900.0 0.013
1905.0 0.0131
1910.0 0.0133
1915.0 0.0134
1920.0 0.0135
1925.0 0.0136
1930.0 0.0138
1935.0 0.0139
1940.0 0.014
1945.0 0.0141
1950.0 0.0143
1955.0 0.0144
1960.0 0.0145
1965.0 0.0147
1970.0 0.0148
1975.0 0.015
1980.0 0.0151
1985.0 0.0153
1990.0 0.0154
1995.0 0.0155
2000.0 0.0157
2005.0 0.0159
2010.0 0.016
2015.0 0.0162
2020.0 0.0163
2025.0 0.0165
2030.0 0.0167
2035.0 0.0168
2040.0 0.017
2045.0 0.0172
2050.0 0.0173
2055.0 0.0175
2060.0 0.0177
2065.0 0.0178
2070.0 0.018
2075.0 0.0182
2080.0 0.0183
2085.0 0.0185
2090.0 0.0187
2095.0 0.0189
2100.0 0.019
2105.0 0.0192
2110.0 0.0194
2115.0 0.0195
2120.0 0.0197
2125.0 0.0199
2130.0 0.02
2135.0 0.0202
2140.0 0.0204
2145.0 0.0206
2150.0 0.0208
2155.0 0.0209
2160.0 0.0211
2165.0 0.0213
2170.0 0.0215
2175.0 0.0217
2180.0 0.0219
2185.0 0.0221
2190.0 0.0223
2195.0 0.0224
2200.0 0.0226
2205.0 0.0228
2210.0 0.023
2215.0 0.0232
2220.0 0.0234
2225.0 0.0236
2230.0 0.0238
2235.0 0.024
2240.0 0.0241
2245.0 0.0243
2250.0 0.0245
2255.0 0.0246
2260.0 0.0248
2265.0 0.0249
2270.0 0.0251
2275.0 0.0253
2280.0 0.0254
2285.0 0.0255
2290.0 0.0256
2295.0 0.0258
2300.0 0.0259
2305.0 0.026
2310.0 0.0261
2315.0 0.0263
2320.0 0.0264
2325.0 0.0265
2330.0 0.0265
2335.0 0.0266
2340.0 0.0267
2345.0 0.0268
2350.0 0.0269
2355.0 0.027
2360.0 0.0271
2365.0 0.0272
2370.0 0.0272
2375.0 0.0273
2380.0 0.0273
2385.0 0.0274
2390.0 0.0275
2395.0 0.0275
2400.0 0.0276
2405.0 0.0276
2410.0 0.0276
2415.0 0.0276
2420.0 0.0276
2425.0 0.0276
2430.0 0.0276
2435.0 0.0276
2440.0 0.0276
2445.0 0.0275
2450.0 0.0275
2455.0 0.0274
2460.0 0.0273
2465.0 0.0273
2470.0 0.0272
2475.0 0.0272
2480.0 0.027
2485.0 0.0269
2490.0 0.0267
2495.0 0.0266
2500.0 0.0264
2505.0 0.0263
2510.0 0.0262
2515.0 0.026
2520.0 0.0258
2525.0 0.0255
2530.0 0.0253
2535.0 0.0251
2540.0 0.0248
2545.0 0.0246
2550.0 0.0243
2555.0 0.0241
2560.0 0.0238
2565.0 0.0234
2570.0 0.0231
2575.0 0.0227
2580.0 0.0224
2585.0 0.0221
2590.0 0.0217
2595.0 0.0214
2600.0 0.021
2605.0 0.0205
2610.0 0.0201
2615.0 0.0197
2620.0 0.0193
2625.0 0.0188
2630.0 0.0184
2635.0 0.018
2640.0 0.0176
2645.0 0.0171
2650.0 0.0167
2655.0 0.0163
2660.0 0.0159
2665.0 0.0154
2670.0 0.015
2675.0 0.0146
2680.0 0.0142
2685.0 0.0139
2690.0 0.0135
2695.0 0.0132
2700.0 0.0128
2705.0 0.0125
2710.0 0.0121
2715.0 0.0118
2720.0 0.0115
2725.0 0.0112
2730.0 0.011
2735.0 0.0107
2740.0 0.0104
2745.0 0.0102
2750.0 0.00992
2755.0 0.00966
2760.0 0.00947
2765.0 0.00929
2770.0 0.00911
2775.0 0.00893
2780.0 0.00875
2785.0 0.00858
2790.0 0.0084
2795.0 0.00822
2800.0 0.0081
2805.0 0.00799
2810.0 0.00787
2815.0 0.00776
2820.0 0.00765
2825.0 0.00753
2830.0 0.00742
2835.0 0.00731
2840.0 0.00724
2845.0 0.00717
2850.0 0.0071
2855.0 0.00704
2860.0 0.00697
2865.0 0.00691
2870.0 0.00684
2875.0 0.00678
2880.0 0.00674
2885.0 0.00671
2890.0 0.00668
2895.0 0.00665
2900.0 0.00661
2905.0 0.00658
2910.0 0.00655
2915.0 0.00652
2920.0 0.00651
2925.0 0.0065
2930.0 0.00649
2935.0 0.00648
2940.0 0.00647
2945.0 0.00646
2950.0 0.00645
2955.0 0.00644
2960.0 0.00644
2965.0 0.00644
2970.0 0.00644
2975.0 0.00644
2980.0 0.00644
2985.0 0.00644
2990.0 0.00644
2995.0 0.00645
3000.0 0.00645
3005.0 0.00645
3010.0 0.00646
3015.0 0.00647
3020.0 0.00647
3025.0 0.00648
3030.0 0.00648
3035.0 0.00649
3040.0 0.0065
3045.0 0.00651
3050.0 0.00651
3055.0 0.00652
3060.0 0.00653
3065.0 0.00654
3070.0 0.00655
3075.0 0.00655
3080.0 0.00656
3085.0 0.00657
3090.0 0.00659
3095.0 0.0066
3100.0 0.00661
3105.0 0.00662
3110.0 0.00664
3115.0 0.00665
3120.0 0.00667
3125.0 0.00668
3130.0 0.0067
3135.0 0.00672
3140.0 0.00674
3145.0 0.00676
3150.0 0.00678
3155.0 0.0068
3160.0 0.00683
3165.0 0.00685
3170.0 0.00688
3175.0 0.00691
3180.0 0.00694
3185.0 0.00697
3190.0 0.00701
3195.0 0.00704
3200.0 0.00708
3205.0 0.00711
3210.0 0.00715
3215.0 0.00719
3220.0 0.00723
3225.0 0.00728
3230.0 0.00732
3235.0 0.00737
3240.0 0.00741
3245.0 0.00746
3250.0 0.00751
3255.0 0.00756
3260.0 0.00762
3265.0 0.00767
3270.0 0.00773
3275.0 0.00778
3280.0 0.00785
3285.0 0.00791
3290.0 0.00797
3295.0 0.00803
3300.0 0.0081
3305.0 0.00817
3310.0 0.00824
3315.0 0.00832
3320.0 0.00839
3325.0 0.00847
3330.0 0.00855
3335.0 0.00863
3340.0 0.00872
3345.0 0.0088
3350.0 0.00889
3355.0 0.00898
3360.0 0.00907
3365.0 0.00916
3370.0 0.00925
3375.0 0.00934
3380.0 0.00942
3385.0 0.00951
3390.0 0.0096
3395.0 0.00968
3400.0 0.00976
3405.0 0.00984
3410.0 0.00991
3415.0 0.00997
3420.0 0.01
3425.0 0.0101
3430.0 0.0101
3435.0 0.0102
3440.0 0.0102
3445.0 0.0102
3450.0 0.0102
3455.0 0.0103
3460.0 0.0103
3465.0 0.0103
3470.0 0.0103
3475.0 0.0103
3480.0 0.0103
3485.0 0.0103
3490.0 0.0102
3495.0 0.0102
3500.0 0.0102
3505.0 0.0102
3510.0 0.0102
3515.0 0.0101
3520.0 0.0101
3525.0 0.0101
3530.0 0.01
3535.0 0.01
3540.0 0.00998
3545.0 0.00995
3550.0 0.00991
3555.0 0.00987
3560.0 0.00984
3565.0 0.0098
3570.0 0.00977
3575.0 0.00973
3580.0 0.0097
3585.0 0.00967
3590.0 0.00964
3595.0 0.00961
3600.0 0.00959
3605.0 0.00957
3610.0 0.00955
3615.0 0.00953
3620.0 0.0095
3625.0 0.00948
3630.0 0.00946
3635.0 0.00944
3640.0 0.00941
3645.0 0.00939
3650.0 0.00936
3655.0 0.00934
3660.0 0.00931
3665.0 0.00928
3670.0 0.00925
3675.0 0.00922
3680.0 0.00919
3685.0 0.00916
3690.0 0.00913
3695.0 0.00909
3700.0 0.00906
3705.0 0.00903
3710.0 0.00899
3715.0 0.00896
3720.0 0.00892
3725.0 0.00889
3730.0 0.00885
3735.0 0.00882
3740.0 0.00878
3745.0 0.00874
3750.0 0.0087
3755.0 0.00866
3760.0 0.00862
3765.0 0.00857
3770.0 0.00853
3775.0 0.00849
3780.0 0.00844
3785.0 0.0084
3790.0 0.00836
3795.0 0.00832
3800.0 0.00828
3805.0 0.00824
3810.0 0.00821
3815.0 0.00818
3820.0 0.00816
3825.0 0.00814
3830.0 0.00812
3835.0 0.0081
3840.0 0.00809
3845.0 0.00808
3850.0 0.00807
3855.0 0.00806
3860.0 0.00805
3865.0 0.00804
3870.0 0.00803
3875.0 0.00801
3880.0 0.00799
3885.0 0.00797
3890.0 0.00794
3895.0 0.00791
3900.0 0.00787
3905.0 0.00783
3910.0 0.00779
3915.0 0.00774
3920.0 0.0077
3925.0 0.00765
3930.0 0.0076
3935.0 0.00755
3940.0 0.0075
3945.0 0.00745
3950.0 0.0074
3955.0 0.00736
3960.0 0.00732
3965.0 0.00728
3970.0 0.00724
3975.0 0.00721
3980.0 0.00719
3985.0 0.00716
3990.0 0.00715
3995.0 0.00713
4000.0 0.00712
4005.0 0.00712
4010.0 0.00712
4015.0 0.00712
4020.0 0.00713
4025.0 0.00713
4030.0 0.00714
4035.0 0.00716
4040.0 0.00717
4045.0 0.00718
4050.0 0.00719
4055.0 0.0072
4060.0 0.0072
4065.0 0.0072
4070.0 0.0072
4075.0 0.00719
4080.0 0.00717
4085.0 0.00716
4090.0 0.00713
4095.0 0.0071
4100.0 0.00706
4105.0 0.00703
4110.0 0.00698
4115.0 0.00693
4120.0 0.00688
4125.0 0.00682
4130.0 0.00676
4135.0 0.00671
4140.0 0.00664
4145.0 0.00658
4150.0 0.00652
4155.0 0.00646
4160.0 0.0064
4165.0 0.00635
4170.0 0.00629
4175.0 0.00624
4180.0 0.00619
4185.0 0.00614
4190.0 0.0061
4195.0 0.00606
4200.0 0.00603
4205.0 0.006
4210.0 0.00598
4215.0 0.00596
4220.0 0.00595
4225.0 0.00594
4230.0 0.00594
4235.0 0.00595
4240.0 0.00595
4245.0 0.00597
4250.0 0.00598
4255.0 0.006
4260.0 0.00602
4265.0 0.00605
4270.0 0.00607
4275.0 0.00609
4280.0 0.00611
4285.0 0.00613
4290.0 0.00614
4295.0 0.00615
4300.0 0.00615
4305.0 0.00614
4310.0 0.00613
4315.0 0.00612
4320.0 0.0061
4325.0 0.00607
4330.0 0.00604
4335.0 0.00601
4340.0 0.00598
4345.0 0.00595
4350.0 0.00592
4355.0 0.00589
4360.0 0.00586
4365.0 0.00583
4370.0 0.00581
4375.0 0.00579
4380.0 0.00578
4385.0 0.00577
4390.0 0.00576
4395.0 0.00576
4400.0 0.00576
4405.0 0.00576
4410.0 0.00577
4415.0 0.00577
4420.0 0.00577
4425.0 0.00577
4430.0 0.00577
4435.0 0.00576
4440.0 0.00575
4445.0 0.00574
4450.0 0.00572
4455.0 0.0057
4460.0 0.00568
4465.0 0.00565
4470.0 0.00562
4475.0 0.00559
4480.0 0.00556
4485.0 0.00552
4490.0 0.00548
4495.0 0.00544
4500.0 0.0054
4505.0 0.00536
4510.0 0.00532
4515.0 0.00528
4520.0 0.00524
4525.0 0.0052
4530.0 0.00516
4535.0 0.00513
4540.0 0.0051
4545.0 0.00507
4550.0 0.00505
4555.0 0.00502
4560.0 0.00501
4565.0 0.00499
4570.0 0.00498
4575.0 0.00497
4580.0 0.00496
4585.0 0.00495
4590.0 0.00495
4595.0 0.00494
4600.0 0.00493
4605.0 0.00493
4610.0 0.00491
4615.0 0.0049
4620.0 0.00488
4625.0 0.00486
4630.0 0.00484
4635.0 0.00481
4640.0 0.00478
4645.0 0.00474
4650.0 0.00471
4655.0 0.00467
4660.0 0.00463
4665.0 0.00459
4670.0 0.00455
4675.0 0.00451
4680.0 0.00447
4685.0 0.00443
4690.0 0.0044
4695.0 0.00437
4700.0 0.00435
4705.0 0.00433
4710.0 0.00431
4715.0 0.0043
4720.0 0.0043
4725.0 0.0043
4730.0 0.00431
4735.0 0.00432
4740.0 0.00434
4745.0 0.00437
4750.0 0.00441
4755.0 0.00444
4760.0 0.00449
4765.0 0.00453
4770.0 0.00458
4775.0 0.00463
4780.0 0.00468
4785.0 0.00472
4790.0 0.00477
4795.0 0.00481
4800.0 0.00485
4805.0 0.00488
4810.0 0.0049
4815.0 0.00492
4820.0 0.00493
4825.0 0.00494
4830.0 0.00493
4835.0 0.00492
4840.0 0.00491
4845.0 0.00489
4850.0 0.00486
4855.0 0.00482
4860.0 0.00479
4865.0 0.00474
4870.0 0.0047
4875.0 0.00466
4880.0 0.00461
4885.0 0.00457
4890.0 0.00452
4895.0 0.00448
4900.0 0.00444
4905.0 0.0044
4910.0 0.00436
4915.0 0.00433
4920.0 0.0043
4925.0 0.00427
4930.0 0.00424
4935.0 0.00422
4940.0 0.00419
4945.0 0.00417
4950.0 0.00414
4955.0 0.00412
4960.0 0.0041
4965.0 0.00408
4970.0 0.00406
4975.0 0.00403
4980.0 0.00401
4985.0 0.00399
4990.0 0.00397
4995.0 0.00395
5000.0 0.00393
5005.0 0.00391
5010.0 0.00389
5015.0 0.00387
5020.0 0.00386
5025.0 0.00384
5030.0 0.00383
5035.0 0.00382
5040.0 0.00381
5045.0 0.0038
5050.0 0.0038
5055.0 0.00379
5060.0 0.00378
5065.0 0.00378
5070.0 0.00377
5075.0 0.00377
5080.0 0.00376
5085.0 0.00375
5090.0 0.00375
5095.0 0.00374
5100.0 0.00373
5105.0 0.00372
5110.0 0.00371
5115.0 0.00369
5120.0 0.00368
5125.0 0.00366
5130.0 0.00365
5135.0 0.00363
5140.0 0.00361
5145.0 0.00359
5150.0 0.00357
5155.0 0.00356
5160.0 0.00354
5165.0 0.00352
5170.0 0.00349
5175.0 0.00347
5180.0 0.00345
5185.0 0.00343
5190.0 0.00341
5195.0 0.00339
5200.0 0.00337
5205.0 0.00335
5210.0 0.00333
5215.0 0.00331
5220.0 0.00329
5225.0 0.00327
5230.0 0.00325
5235.0 0.00323
5240.0 0.00321
5245.0 0.00319
5250.0 0.00317
5255.0 0.00315
5260.0 0.00313
5265.0 0.00311
5270.0 0.00309
5275.0 0.00307
5280.0 0.00305
5285.0 0.00304
5290.0 0.00302
5295.0 0.003
5300.0 0.00299
5305.0 0.00297
5310.0 0.00296
5315.0 0.00294
5320.0 0.00293
5325.0 0.00292
5330.0 0.0029
5335.0 0.00289
5340.0 0.00288
5345.0 0.00287
5350.0 0.00286
5355.0 0.00286
5360.0 0.00285
5365.0 0.00284
5370.0 0.00283
5375.0 0.00283
5380.0 0.00282
5385.0 0.00281
5390.0 0.0028
5395.0 0.0028
5400.0 0.00279
5405.0 0.00278
5410.0 0.00277
5415.0 0.00277
5420.0 0.00276
5425.0 0.00275
5430.0 0.00274
5435.0 0.00274
5440.0 0.00273
5445.0 0.00272
5450.0 0.00271
5455.0 0.00271
5460.0 0.0027
5465.0 0.0027
5470.0 0.00269
5475.0 0.00268
5480.0 0.00267
5485.0 0.00265
5490.0 0.00263
5495.0 0.00261
5500.0 0.00259
5505.0 0.00257
5510.0 0.00255
5515.0 0.00253
5520.0 0.00251
5525.0 0.00249
5530.0 0.00248
5535.0 0.00246
5540.0 0.00245
5545.0 0.00243
5550.0 0.00242
5555.0 0.00241
5560.0 0.00241
5565.0 0.0024
5570.0 0.00239
5575.0 0.00239
5580.0 0.00239
5585.0 0.00239
5590.0 0.00239
5595.0 0.00239
5600.0 0.00239
5605.0 0.00239
5610.0 0.00239
5615.0 0.00239
5620.0 0.00239
5625.0 0.0024
5630.0 0.0024
5635.0 0.0024
5640.0 0.00239
5645.0 0.00239
5650.0 0.00239
5655.0 0.00238
5660.0 0.00238
5665.0 0.00237
5670.0 0.00236
5675.0 0.00235
5680.0 0.00234
5685.0 0.00232
5690.0 0.00231
5695.0 0.00229
5700.0 0.00228
5705.0 0.00226
5710.0 0.00225
5715.0 0.00224
5720.0 0.00222
5725.0 0.00222
5730.0 0.00221
5735.0 0.0022
5740.0 0.0022
5745.0 0.0022
5750.0 0.0022
5755.0 0.00221
5760.0 0.00222
5765.0 0.00223
5770.0 0.00224
5775.0 0.00226
5780.0 0.00228
5785.0 0.0023
5790.0 0.00232
5795.0 0.00234
5800.0 0.00236
5805.0 0.00238
5810.0 0.0024
5815.0 0.00241
5820.0 0.00243
5825.0 0.00244
5830.0 0.00245
5835.0 0.00246
5840.0 0.00247
5845.0 0.00247
5850.0 0.00247
5855.0 0.00247
5860.0 0.00246
5865.0 0.00246
5870.0 0.00245
5875.0 0.00244
5880.0 0.00242
5885.0 0.00241
5890.0 0.0024
5895.0 0.00239
5900.0 0.00237
5905.0 0.00236
5910.0 0.00234
5915.0 0.00233
5920.0 0.00231
5925.0 0.0023
5930.0 0.00228
5935.0 0.00227
5940.0 0.00225
5945.0 0.00224
5950.0 0.00222
5955.0 0.00221
5960.0 0.00219
5965.0 0.00218
5970.0 0.00217
5975.0 0.00215
5980.0 0.00214
5985.0 0.00213
5990.0 0.00211
5995.0 0.0021
6000.0 0.00209
6005.0 0.00208
6010.0 0.00207
6015.0 0.00206
6020.0 0.00205
6025.0 0.00204
6030.0 0.00203
6035.0 0.00202
6040.0 0.00201
6045.0 0.00201
6050.0 0.002
6055.0 0.00199
6060.0 0.00198
6065.0 0.00198
6070.0 0.00197
6075.0 0.00197
6080.0 0.00196
6085.0 0.00195
6090.0 0.00195
6095.0 0.00194
6100.0 0.00193
6105.0 0.00193
6110.0 0.00192
6115.0 0.00191
6120.0 0.0019
6125.0 0.0019
6130.0 0.00189
6135.0 0.00188
6140.0 0.00187
6145.0 0.00186
6150.0 0.00185
6155.0 0.00184
6160.0 0.00183
6165.0 0.00182
6170.0 0.00182
6175.0 0.00181
6180.0 0.0018
6185.0 0.00179
6190.0 0.00179
6195.0 0.00178
6200.0 0.00178
6205.0 0.00177
6210.0 0.00177
6215.0 0.00177
6220.0 0.00177
6225.0 0.00177
6230.0 0.00177
6235.0 0.00177
6240.0 0.00177
6245.0 0.00177
6250.0 0.00177
6255.0 0.00177
6260.0 0.00177
6265.0 0.00176
6270.0 0.00176
6275.0 0.00176
6280.0 0.00176
6285.0 0.00175
6290.0 0.00175
6295.0 0.00174
6300.0 0.00173
6305.0 0.00172
6310.0 0.00172
6315.0 0.00171
6320.0 0.0017
6325.0 0.00168
6330.0 0.00167
6335.0 0.00166
6340.0 0.00165
6345.0 0.00163
6350.0 0.00162
6355.0 0.00161
6360.0 0.0016
6365.0 0.00159
6370.0 0.00158
6375.0 0.00157
6380.0 0.00157
6385.0 0.00157
6390.0 0.00157
6395.0 0.00157
6400.0 0.00158
6405.0 0.00159
6410.0 0.00161
6415.0 0.00163
6420.0 0.00166
6425.0 0.00169
6430.0 0.00172
6435.0 0.00176
6440.0 0.0018
6445.0 0.00184
6450.0 0.00188
6455.0 0.00192
6460.0 0.00195
6465.0 0.00197
6470.0 0.002
6475.0 0.00201
6480.0 0.00201
6485.0 0.00201
6490.0 0.002
6495.0 0.00198
6500.0 0.00196
6505.0 0.00194
6510.0 0.00192
6515.0 0.00191
6520.0 0.00191
6525.0 0.00192
6530.0 0.00192
6535.0 0.00194
6540.0 0.00196
6545.0 0.00197
6550.0 0.00199
6555.0 0.00201
6560.0 0.00202
6565.0 0.00203
6570.0 0.00204
6575.0 0.00204
6580.0 0.00204
6585.0 0.00203
6590.0 0.00203
6595.0 0.00202
6600.0 0.00201
6605.0 0.002
6610.0 0.00198
6615.0 0.00197
6620.0 0.00195
6625.0 0.00194
6630.0 0.00192
6635.0 0.00191
6640.0 0.00189
6645.0 0.00188
6650.0 0.00186
6655.0 0.00185
6660.0 0.00184
6665.0 0.00182
6670.0 0.00181
6675.0 0.0018
6680.0 0.00178
6685.0 0.00177
6690.0 0.00176
6695.0 0.00175
6700.0 0.00173
6705.0 0.00172
6710.0 0.00171
6715.0 0.0017
6720.0 0.00169
6725.0 0.00168
6730.0 0.00166
6735.0 0.00165
6740.0 0.00164
6745.0 0.00163
6750.0 0.00162
6755.0 0.00161
6760.0 0.0016
6765.0 0.00159
6770.0 0.00158
6775.0 0.00157
6780.0 0.00156
6785.0 0.00155
6790.0 0.00154
6795.0 0.00153
6800.0 0.00153
6805.0 0.00152
6810.0 0.00151
6815.0 0.0015
6820.0 0.00149
6825.0 0.00148
6830.0 0.00147
6835.0 0.00146
6840.0 0.00145
6845.0 0.00144
6850.0 0.00143
6855.0 0.00142
6860.0 0.00141
6865.0 0.0014
6870.0 0.00139
6875.0 0.00139
6880.0 0.00138
6885.0 0.00137
6890.0 0.00137
6895.0 0.00136
6900.0 0.00136
6905.0 0.00135
6910.0 0.00135
6915.0 0.00135
6920.0 0.00134
6925.0 0.00134
6930.0 0.00134
6935.0 0.00134
6940.0 0.00134
6945.0 0.00134
6950.0 0.00134
6955.0 0.00134
6960.0 0.00134
6965.0 0.00134
6970.0 0.00135
6975.0 0.00135
6980.0 0.00135
6985.0 0.00135
6990.0 0.00135
6995.0 0.00135
7000.0 0.00135
7005.0 0.00135
7010.0 0.00135
7015.0 0.00135
7020.0 0.00135
7025.0 0.00135
7030.0 0.00135
7035.0 0.00135
7040.0 0.00134
7045.0 0.00134
7050.0 0.00134
7055.0 0.00133
7060.0 0.00133
7065.0 0.00133
7070.0 0.00132
7075.0 0.00132
7080.0 0.00131
7085.0 0.00131
7090.0 0.00131
7095.0 0.0013
7100.0 0.0013
7105.0 0.0013
7110.0 0.00129
7115.0 0.00129
7120.0 0.00129
7125.0 0.00129
7130.0 0.00128
7135.0 0.00128
7140.0 0.00128
7145.0 0.00127
7150.0 0.00127
7155.0 0.00127
7160.0 0.00126
7165.0 0.00126
7170.0 0.00126
7175.0 0.00125
7180.0 0.00125
7185.0 0.00124
7190.0 0.00124
7195.0 0.00124
7200.0 0.00123
7205.0 0.00123
7210.0 0.00123
7215.0 0.00122
7220.0 0.00122
7225.0 0.00121
7230.0 0.00121
7235.0 0.00121
7240.0 0.0012
7245.0 0.0012
7250.0 0.00119
7255.0 0.00119
7260.0 0.00119
7265.0 0.00118
7270.0 0.00118
7275.0 0.00118
7280.0 0.00117
7285.0 0.00117
7290.0 0.00117
7295.0 0.00117
7300.0 0.00116
7305.0 0.00116
7310.0 0.00116
7315.0 0.00116
7320.0 0.00116
7325.0 0.00116
7330.0 0.00116
7335.0 0.00115
7340.0 0.00115
7345.0 0.00115
7350.0 0.00115
7355.0 0.00115
7360.0 0.00115
7365.0 0.00115
7370.0 0.00115
7375.0 0.00115
7380.0 0.00115
7385.0 0.00115
7390.0 0.00115
7395.0 0.00114
7400.0 0.00114
7405.0 0.00114
7410.0 0.00114
7415.0 0.00114
7420.0 0.00114
7425.0 0.00114
7430.0 0.00113
7435.0 0.00113
7440.0 0.00113
7445.0 0.00113
7450.0 0.00113
7455.0 0.00112
7460.0 0.00112
7465.0 0.00112
7470.0 0.00111
7475.0 0.00111
7480.0 0.0011
7485.0 0.0011
7490.0 0.00109
7495.0 0.00109
7500.0 0.00108
7505.0 0.00107
7510.0 0.00107
7515.0 0.00106
7520.0 0.00105
7525.0 0.00104
7530.0 0.00104
7535.0 0.00103
7540.0 0.00102
7545.0 0.00101
7550.0 0.00101
7555.0 0.001
7560.0 0.000994
7565.0 0.000988
7570.0 0.000983
7575.0 0.000979
7580.0 0.000975
7585.0 0.000972
7590.0 0.00097
7595.0 0.000969
7600.0 0.000968
7605.0 0.000968
7610.0 0.000969
7615.0 0.00097
7620.0 0.000972
7625.0 0.000975
7630.0 0.000978
7635.0 0.000982
7640.0 0.000985
7645.0 0.00099
7650.0 0.000994
7655.0 0.000999
7660.0 0.001
7665.0 0.00101
7670.0 0.00101
7675.0 0.00102
7680.0 0.00102
7685.0 0.00102
7690.0 0.00103
7695.0 0.00103
7700.0 0.00103
7705.0 0.00103
7710.0 0.00104
7715.0 0.00104
7720.0 0.00104
7725.0 0.00104
7730.0 0.00104
7735.0 0.00104
7740.0 0.00104
7745.0 0.00104
7750.0 0.00104
7755.0 0.00103
7760.0 0.00103
7765.0 0.00103
7770.0 0.00103
7775.0 0.00103
7780.0 0.00103
7785.0 0.00103
7790.0 0.00102
7795.0 0.00102
7800.0 0.00102
7805.0 0.00102
7810.0 0.00102
7815.0 0.00101
7820.0 0.00101
7825.0 0.00101
7830.0 0.001
7835.0 0.001
7840.0 0.000997
7845.0 0.000994
7850.0 0.000991
7855.0 0.000988
7860.0 0.000985
7865.0 0.000983
7870.0 0.000981
7875.0 0.000979
7880.0 0.000977
7885.0 0.000976
7890.0 0.000975
7895.0 0.000974
7900.0 0.000973
7905.0 0.000972
7910.0 0.000971
7915.0 0.00097
7920.0 0.000969
7925.0 0.000967
7930.0 0.000965
7935.0 0.000963
7940.0 0.000961
7945.0 0.00096
7950.0 0.000958
7955.0 0.000956
7960.0 0.000955
7965.0 0.000954
7970.0 0.000953
7975.0 0.000953
7980.0 0.000953
7985.0 0.000953
7990.0 0.000954
7995.0 0.000955
8000.0 0.000956
8005.0 0.000957
8010.0 0.000957
8015.0 0.000958
8020.0 0.000958
8025.0 0.000958
8030.0 0.000957
8035.0 0.000956
8040.0 0.000955
8045.0 0.000953
8050.0 0.000951
8055.0 0.000949
8060.0 0.000947
8065.0 0.000945
8070.0 0.000943
8075.0 0.000941
8080.0 0.000939
8085.0 0.000937
8090.0 0.000935
8095.0 0.000934
8100.0 0.000932
8105.0 0.00093
8110.0 0.000928
8115.0 0.000926
8120.0 0.000925
8125.0 0.000923
8130.0 0.000921
8135.0 0.000919
8140.0 0.000917
8145.0 0.000916
8150.0 0.000914
8155.0 0.000912
8160.0 0.00091
8165.0 0.000909
8170.0 0.000907
8175.0 0.000905
8180.0 0.000904
8185.0 0.000903
8190.0 0.000901
8195.0 0.0009
8200.0 0.000899
8205.0 0.000898
8210.0 0.000898
8215.0 0.000897
8220.0 0.000897
8225.0 0.000896
8230.0 0.000896
8235.0 0.000896
8240.0 0.000896
8245.0 0.000896
8250.0 0.000896
8255.0 0.000896
8260.0 0.000896
8265.0 0.000896
8270.0 0.000897
8275.0 0.000897
8280.0 0.000897
8285.0 0.000897
8290.0 0.000898
8295.0 0.000898
8300.0 0.000898
8305.0 0.000898
8310.0 0.000898
8315.0 0.000898
8320.0 0.000898
8325.0 0.000898
8330.0 0.000898
8335.0 0.000897
8340.0 0.000897
