#lamb flux
1605.0 0.0078
1610.0 0.0078
1615.0 0.00779
1620.0 0.00779
1625.0 0.00779
1630.0 0.00778
1635.0 0.00778
1640.0 0.00777
1645.0 0.00776
1650.0 0.00775
1655.0 0.00774
1660.0 0.00773
1665.0 0.00772
1670.0 0.00771
1675.0 0.0077
1680.0 0.00768
1685.0 0.00767
1690.0 0.00765
1695.0 0.00764
1700.0 0.00762
1705.0 0.00761
1710.0 0.00759
1715.0 0.00757
1720.0 0.00755
1725.0 0.00753
1730.0 0.0075
1735.0 0.00748
1740.0 0.00746
1745.0 0.00744
1750.0 0.00741
1755.0 0.00739
1760.0 0.00736
1765.0 0.00733
1770.0 0.0073
1775.0 0.00727
1780.0 0.00724
1785.0 0.00721
1790.0 0.00719
1795.0 0.00715
1800.0 0.00712
1805.0 0.00708
1810.0 0.00704
1815.0 0.00701
1820.0 0.00697
1825.0 0.00694
1830.0 0.0069
1835.0 0.00686
1840.0 0.00682
1845.0 0.00677
1850.0 0.00673
1855.0 0.00669
1860.0 0.00665
1865.0 0.0066
1870.0 0.00656
1875.0 0.00652
1880.0 0.00647
1885.0 0.00642
1890.0 0.00637
1895.0 0.00632
1900.0 0.00627
1905.0 0.00622
1910.0 0.00618
1915.0 0.00612
1920.0 0.00607
1925.0 0.00602
1930.0 0.00597
1935.0 0.00591
1940.0 0.00586
1945.0 0.00581
1950.0 0.00575
1955.0 0.0057
1960.0 0.00564
1965.0 0.00559
1970.0 0.00553
1975.0 0.00548
1980.0 0.00542
1985.0 0.00537
1990.0 0.00531
1995.0 0.00526
2000.0 0.00521
2005.0 0.00515
2010.0 0.0051
2015.0 0.00505
2020.0 0.00499
2025.0 0.00494
2030.0 0.00489
2035.0 0.00484
2040.0 0.00479
2045.0 0.00475
2050.0 0.0047
2055.0 0.00465
2060.0 0.00461
2065.0 0.00456
2070.0 0.00451
2075.0 0.00448
2080.0 0.00444
2085.0 0.00441
2090.0 0.00437
2095.0 0.00434
2100.0 0.0043
2105.0 0.00427
2110.0 0.00423
2115.0 0.0042
2120.0 0.00418
2125.0 0.00415
2130.0 0.00412
2135.0 0.0041
2140.0 0.00407
2145.0 0.00404
2150.0 0.00402
2155.0 0.004
2160.0 0.00398
2165.0 0.00396
2170.0 0.00394
2175.0 0.00392
2180.0 0.0039
2185.0 0.00388
2190.0 0.00386
2195.0 0.00385
2200.0 0.00384
2205.0 0.00382
2210.0 0.00381
2215.0 0.0038
2220.0 0.00379
2225.0 0.00378
2230.0 0.00377
2235.0 0.00377
2240.0 0.00377
2245.0 0.00377
2250.0 0.00377
2255.0 0.00377
2260.0 0.00378
2265.0 0.00378
2270.0 0.00378
2275.0 0.00379
2280.0 0.0038
2285.0 0.00382
2290.0 0.00383
2295.0 0.00384
2300.0 0.00386
2305.0 0.00387
2310.0 0.00388
2315.0 0.00391
2320.0 0.00393
2325.0 0.00395
2330.0 0.00397
2335.0 0.00399
2340.0 0.00402
2345.0 0.00404
2350.0 0.00406
2355.0 0.00409
2360.0 0.00412
2365.0 0.00415
2370.0 0.00417
2375.0 0.0042
2380.0 0.00423
2385.0 0.00426
2390.0 0.00429
2395.0 0.00432
2400.0 0.00435
2405.0 0.00439
2410.0 0.00442
2415.0 0.00445
2420.0 0.00449
2425.0 0.00452
2430.0 0.00455
2435.0 0.00459
2440.0 0.00462
2445.0 0.00466
2450.0 0.0047
2455.0 0.00473
2460.0 0.00477
2465.0 0.0048
2470.0 0.00484
2475.0 0.00488
2480.0 0.00492
2485.0 0.00495
2490.0 0.00499
2495.0 0.00503
2500.0 0.00507
2505.0 0.00511
2510.0 0.00515
2515.0 0.00519
2520.0 0.00523
2525.0 0.00527
2530.0 0.00531
2535.0 0.00535
2540.0 0.00539
2545.0 0.00543
2550.0 0.00547
2555.0 0.00552
2560.0 0.00557
2565.0 0.00562
2570.0 0.00566
2575.0 0.00571
2580.0 0.00576
2585.0 0.00581
2590.0 0.00586
2595.0 0.00593
2600.0 0.006
2605.0 0.00607
2610.0 0.00613
2615.0 0.0062
2620.0 0.00627
2625.0 0.00634
2630.0 0.00641
2635.0 0.0065
2640.0 0.00659
2645.0 0.00667
2650.0 0.00676
2655.0 0.00685
2660.0 0.00694
2665.0 0.00702
2670.0 0.00712
2675.0 0.00721
2680.0 0.00731
2685.0 0.0074
2690.0 0.0075
2695.0 0.0076
2700.0 0.00769
2705.0 0.00779
2710.0 0.00789
2715.0 0.00798
2720.0 0.00808
2725.0 0.00818
2730.0 0.00828
2735.0 0.00837
2740.0 0.00847
2745.0 0.00857
2750.0 0.00867
2755.0 0.00876
2760.0 0.00886
2765.0 0.00895
2770.0 0.00905
2775.0 0.00914
2780.0 0.00924
2785.0 0.00933
2790.0 0.00942
2795.0 0.00951
2800.0 0.0096
2805.0 0.00969
2810.0 0.00978
2815.0 0.00987
2820.0 0.00996
2825.0 0.01
2830.0 0.0101
2835.0 0.0102
2840.0 0.0103
2845.0 0.0104
2850.0 0.0105
2855.0 0.0105
2860.0 0.0106
2865.0 0.0107
2870.0 0.0108
2875.0 0.0108
2880.0 0.0109
2885.0 0.011
2890.0 0.011
2895.0 0.0111
2900.0 0.0112
2905.0 0.0112
2910.0 0.0113
2915.0 0.0114
2920.0 0.0114
2925.0 0.0115
2930.0 0.0115
2935.0 0.0116
2940.0 0.0116
2945.0 0.0117
2950.0 0.0117
2955.0 0.0118
2960.0 0.0118
2965.0 0.0118
2970.0 0.0119
2975.0 0.0119
2980.0 0.012
2985.0 0.012
2990.0 0.012
2995.0 0.0121
3000.0 0.0121
3005.0 0.0121
3010.0 0.0121
3015.0 0.0121
3020.0 0.0122
3025.0 0.0122
3030.0 0.0122
3035.0 0.0122
3040.0 0.0122
3045.0 0.0122
3050.0 0.0122
3055.0 0.0122
3060.0 0.0122
3065.0 0.0122
3070.0 0.0122
3075.0 0.0122
3080.0 0.0122
3085.0 0.0122
3090.0 0.0122
3095.0 0.0121
3100.0 0.0121
3105.0 0.0121
3110.0 0.0121
3115.0 0.0121
3120.0 0.012
3125.0 0.012
3130.0 0.012
3135.0 0.012
3140.0 0.0119
3145.0 0.0119
3150.0 0.0119
3155.0 0.0118
3160.0 0.0118
3165.0 0.0118
3170.0 0.0117
3175.0 0.0117
3180.0 0.0116
3185.0 0.0116
3190.0 0.0116
3195.0 0.0115
3200.0 0.0115
3205.0 0.0115
3210.0 0.0114
3215.0 0.0114
3220.0 0.0114
3225.0 0.0113
3230.0 0.0113
3235.0 0.0113
3240.0 0.0112
3245.0 0.0112
3250.0 0.0112
3255.0 0.0111
3260.0 0.0111
3265.0 0.0111
3270.0 0.0111
3275.0 0.0111
3280.0 0.011
3285.0 0.011
3290.0 0.011
3295.0 0.011
3300.0 0.011
3305.0 0.011
3310.0 0.011
3315.0 0.011
3320.0 0.0111
3325.0 0.0111
3330.0 0.0111
3335.0 0.0112
3340.0 0.0112
3345.0 0.0112
3350.0 0.0113
3355.0 0.0114
3360.0 0.0114
3365.0 0.0115
3370.0 0.0116
3375.0 0.0117
3380.0 0.0118
3385.0 0.0119
3390.0 0.012
3395.0 0.0122
3400.0 0.0123
3405.0 0.0124
3410.0 0.0125
3415.0 0.0127
3420.0 0.0128
3425.0 0.0129
3430.0 0.0131
3435.0 0.0132
3440.0 0.0134
3445.0 0.0135
3450.0 0.0136
3455.0 0.0138
3460.0 0.0139
3465.0 0.0141
3470.0 0.0142
3475.0 0.0143
3480.0 0.0144
3485.0 0.0145
3490.0 0.0147
3495.0 0.0148
3500.0 0.0148
3505.0 0.0149
3510.0 0.015
3515.0 0.0151
3520.0 0.0151
3525.0 0.0152
3530.0 0.0152
3535.0 0.0152
3540.0 0.0152
3545.0 0.0152
3550.0 0.0151
3555.0 0.0151
3560.0 0.015
3565.0 0.0149
3570.0 0.0148
3575.0 0.0147
3580.0 0.0146
3585.0 0.0144
3590.0 0.0142
3595.0 0.0141
3600.0 0.0139
3605.0 0.0137
3610.0 0.0134
3615.0 0.0132
3620.0 0.013
3625.0 0.0127
3630.0 0.0125
3635.0 0.0122
3640.0 0.012
3645.0 0.0117
3650.0 0.0115
3655.0 0.0112
3660.0 0.011
3665.0 0.0108
3670.0 0.0106
3675.0 0.0104
3680.0 0.0102
3685.0 0.00998
3690.0 0.00982
3695.0 0.00968
3700.0 0.00956
3705.0 0.00945
3710.0 0.00937
3715.0 0.00931
3720.0 0.00927
3725.0 0.00925
3730.0 0.00926
3735.0 0.00929
3740.0 0.00935
3745.0 0.00943
3750.0 0.00955
3755.0 0.00968
3760.0 0.00985
3765.0 0.01
3770.0 0.0103
3775.0 0.0105
3780.0 0.0108
3785.0 0.0111
3790.0 0.0115
3795.0 0.0118
3800.0 0.0122
3805.0 0.0127
3810.0 0.0131
3815.0 0.0136
3820.0 0.0141
3825.0 0.0147
3830.0 0.0153
3835.0 0.0159
3840.0 0.0165
3845.0 0.0171
3850.0 0.0178
3855.0 0.0185
3860.0 0.0191
3865.0 0.0198
3870.0 0.0205
3875.0 0.0212
3880.0 0.0219
3885.0 0.0225
3890.0 0.0232
3895.0 0.0238
3900.0 0.0244
3905.0 0.025
3910.0 0.0256
3915.0 0.0261
3920.0 0.0266
3925.0 0.027
3930.0 0.0275
3935.0 0.0278
3940.0 0.0282
3945.0 0.0285
3950.0 0.0287
3955.0 0.0289
3960.0 0.0291
3965.0 0.0293
3970.0 0.0294
3975.0 0.0294
3980.0 0.0295
3985.0 0.0295
3990.0 0.0294
3995.0 0.0294
4000.0 0.0293
4005.0 0.0292
4010.0 0.0291
4015.0 0.0289
4020.0 0.0288
4025.0 0.0286
4030.0 0.0284
4035.0 0.0282
4040.0 0.028
4045.0 0.0278
4050.0 0.0276
4055.0 0.0274
4060.0 0.0272
4065.0 0.027
4070.0 0.0268
4075.0 0.0266
4080.0 0.0264
4085.0 0.0262
4090.0 0.0261
4095.0 0.0259
4100.0 0.0258
4105.0 0.0256
4110.0 0.0255
4115.0 0.0254
4120.0 0.0253
4125.0 0.0251
4130.0 0.025
4135.0 0.0249
4140.0 0.0248
4145.0 0.0247
4150.0 0.0246
4155.0 0.0245
4160.0 0.0244
4165.0 0.0243
4170.0 0.0242
4175.0 0.024
4180.0 0.0239
4185.0 0.0238
4190.0 0.0236
4195.0 0.0234
4200.0 0.0233
4205.0 0.0231
4210.0 0.0229
4215.0 0.0228
4220.0 0.0226
4225.0 0.0224
4230.0 0.0222
4235.0 0.022
4240.0 0.0218
4245.0 0.0216
4250.0 0.0214
4255.0 0.0213
4260.0 0.0211
4265.0 0.0209
4270.0 0.0208
4275.0 0.0206
4280.0 0.0205
4285.0 0.0204
4290.0 0.0203
4295.0 0.0202
4300.0 0.0202
4305.0 0.0201
4310.0 0.0201
4315.0 0.0201
4320.0 0.0202
4325.0 0.0202
4330.0 0.0203
4335.0 0.0204
4340.0 0.0205
4345.0 0.0206
4350.0 0.0207
4355.0 0.0209
4360.0 0.021
4365.0 0.0212
4370.0 0.0214
4375.0 0.0216
4380.0 0.0218
4385.0 0.022
4390.0 0.0222
4395.0 0.0224
4400.0 0.0226
4405.0 0.0229
4410.0 0.0231
4415.0 0.0234
4420.0 0.0237
4425.0 0.024
4430.0 0.0244
4435.0 0.0248
4440.0 0.0251
4445.0 0.0256
4450.0 0.026
4455.0 0.0265
4460.0 0.0269
4465.0 0.0275
4470.0 0.028
4475.0 0.0285
4480.0 0.0291
4485.0 0.0296
4490.0 0.0302
4495.0 0.0307
4500.0 0.0313
4505.0 0.0318
4510.0 0.0323
4515.0 0.0328
4520.0 0.0332
4525.0 0.0336
4530.0 0.034
4535.0 0.0343
4540.0 0.0346
4545.0 0.0348
4550.0 0.035
4555.0 0.0352
4560.0 0.0353
4565.0 0.0354
4570.0 0.0354
4575.0 0.0354
4580.0 0.0354
4585.0 0.0353
4590.0 0.0352
4595.0 0.035
4600.0 0.0349
4605.0 0.0347
4610.0 0.0344
4615.0 0.0342
4620.0 0.0339
4625.0 0.0336
4630.0 0.0333
4635.0 0.0329
4640.0 0.0325
4645.0 0.0321
4650.0 0.0317
4655.0 0.0312
4660.0 0.0308
4665.0 0.0303
4670.0 0.0298
4675.0 0.0294
4680.0 0.0289
4685.0 0.0284
4690.0 0.0279
4695.0 0.0274
4700.0 0.0269
4705.0 0.0265
4710.0 0.026
4715.0 0.0256
4720.0 0.0252
4725.0 0.0249
4730.0 0.0245
4735.0 0.0242
4740.0 0.024
4745.0 0.0238
4750.0 0.0236
4755.0 0.0234
4760.0 0.0233
4765.0 0.0233
4770.0 0.0233
4775.0 0.0233
4780.0 0.0234
4785.0 0.0235
4790.0 0.0237
4795.0 0.0239
4800.0 0.0242
4805.0 0.0245
4810.0 0.0248
4815.0 0.0252
4820.0 0.0256
4825.0 0.026
4830.0 0.0264
4835.0 0.0269
4840.0 0.0274
4845.0 0.0278
4850.0 0.0283
4855.0 0.0287
4860.0 0.0292
4865.0 0.0296
4870.0 0.03
4875.0 0.0304
4880.0 0.0307
4885.0 0.031
4890.0 0.0312
4895.0 0.0315
4900.0 0.0316
4905.0 0.0318
4910.0 0.0319
4915.0 0.0319
4920.0 0.032
4925.0 0.032
4930.0 0.032
4935.0 0.0319
4940.0 0.0319
4945.0 0.0318
4950.0 0.0318
4955.0 0.0317
4960.0 0.0316
4965.0 0.0316
4970.0 0.0315
4975.0 0.0314
4980.0 0.0314
4985.0 0.0314
4990.0 0.0314
4995.0 0.0314
5000.0 0.0314
5005.0 0.0315
5010.0 0.0315
5015.0 0.0316
5020.0 0.0317
5025.0 0.0318
5030.0 0.0319
5035.0 0.0321
5040.0 0.0322
5045.0 0.0324
5050.0 0.0326
5055.0 0.0328
5060.0 0.033
5065.0 0.0332
5070.0 0.0335
5075.0 0.0337
5080.0 0.034
5085.0 0.0343
5090.0 0.0347
5095.0 0.035
5100.0 0.0354
5105.0 0.0358
5110.0 0.0362
5115.0 0.0367
5120.0 0.0371
5125.0 0.0376
5130.0 0.0381
5135.0 0.0386
5140.0 0.0392
5145.0 0.0397
5150.0 0.0403
5155.0 0.0408
5160.0 0.0414
5165.0 0.042
5170.0 0.0425
5175.0 0.0431
5180.0 0.0437
5185.0 0.0442
5190.0 0.0448
5195.0 0.0453
5200.0 0.0458
5205.0 0.0463
5210.0 0.0467
5215.0 0.0472
5220.0 0.0476
5225.0 0.048
5230.0 0.0484
5235.0 0.0488
5240.0 0.0491
5245.0 0.0494
5250.0 0.0497
5255.0 0.05
5260.0 0.0503
5265.0 0.0505
5270.0 0.0508
5275.0 0.051
5280.0 0.0513
5285.0 0.0516
5290.0 0.0518
5295.0 0.0521
5300.0 0.0524
5305.0 0.0528
5310.0 0.0531
5315.0 0.0535
5320.0 0.0539
5325.0 0.0544
5330.0 0.0548
5335.0 0.0553
5340.0 0.0558
5345.0 0.0563
5350.0 0.0568
5355.0 0.0573
5360.0 0.0577
5365.0 0.0582
5370.0 0.0586
5375.0 0.0589
5380.0 0.0592
5385.0 0.0595
5390.0 0.0596
5395.0 0.0598
5400.0 0.0598
5405.0 0.0599
5410.0 0.0598
5415.0 0.0597
5420.0 0.0596
5425.0 0.0594
5430.0 0.0592
5435.0 0.0589
5440.0 0.0586
5445.0 0.0582
5450.0 0.0578
5455.0 0.0574
5460.0 0.057
5465.0 0.0565
5470.0 0.056
5475.0 0.0555
5480.0 0.0549
5485.0 0.0544
5490.0 0.0537
5495.0 0.053
5500.0 0.0522
5505.0 0.0514
5510.0 0.0505
5515.0 0.0496
5520.0 0.0486
5525.0 0.0476
5530.0 0.0465
5535.0 0.0455
5540.0 0.0444
5545.0 0.0433
5550.0 0.0423
5555.0 0.0413
5560.0 0.0404
5565.0 0.0396
5570.0 0.0388
5575.0 0.0381
5580.0 0.0376
5585.0 0.037
5590.0 0.0367
5595.0 0.0364
5600.0 0.0363
5605.0 0.0362
5610.0 0.0363
5615.0 0.0363
5620.0 0.0366
5625.0 0.0369
5630.0 0.0373
5635.0 0.0378
5640.0 0.0384
5645.0 0.039
5650.0 0.0397
5655.0 0.0405
5660.0 0.0413
5665.0 0.0422
5670.0 0.0431
5675.0 0.0441
5680.0 0.0451
5685.0 0.0462
5690.0 0.0472
5695.0 0.0483
5700.0 0.0494
5705.0 0.0505
5710.0 0.0516
5715.0 0.0526
5720.0 0.0537
5725.0 0.0547
5730.0 0.0556
5735.0 0.0565
5740.0 0.0574
5745.0 0.0582
5750.0 0.059
5755.0 0.0597
5760.0 0.0603
5765.0 0.0609
5770.0 0.0614
5775.0 0.0619
5780.0 0.0623
5785.0 0.0627
5790.0 0.063
5795.0 0.0632
5800.0 0.0634
5805.0 0.0635
5810.0 0.0636
5815.0 0.0636
5820.0 0.0635
5825.0 0.0635
5830.0 0.0633
5835.0 0.0631
5840.0 0.0628
5845.0 0.0625
5850.0 0.0622
5855.0 0.0618
5860.0 0.0614
5865.0 0.0609
5870.0 0.0605
5875.0 0.06
5880.0 0.0595
5885.0 0.059
5890.0 0.0585
5895.0 0.058
5900.0 0.0575
5905.0 0.057
5910.0 0.0565
5915.0 0.056
5920.0 0.0555
5925.0 0.0551
5930.0 0.0546
5935.0 0.0542
5940.0 0.0537
5945.0 0.0533
5950.0 0.0529
5955.0 0.0525
5960.0 0.0521
5965.0 0.0517
5970.0 0.0513
5975.0 0.051
5980.0 0.0506
5985.0 0.0503
5990.0 0.0499
5995.0 0.0496
6000.0 0.0493
6005.0 0.049
6010.0 0.0487
6015.0 0.0484
6020.0 0.0481
6025.0 0.0478
6030.0 0.0475
6035.0 0.0472
6040.0 0.0468
6045.0 0.0465
6050.0 0.0461
6055.0 0.0457
6060.0 0.0453
6065.0 0.0448
6070.0 0.0444
6075.0 0.0439
6080.0 0.0434
6085.0 0.0428
6090.0 0.0423
6095.0 0.0417
6100.0 0.0412
6105.0 0.0406
6110.0 0.0401
6115.0 0.0395
6120.0 0.039
6125.0 0.0385
6130.0 0.038
6135.0 0.0375
6140.0 0.0371
6145.0 0.0367
6150.0 0.0363
6155.0 0.036
6160.0 0.0357
6165.0 0.0354
6170.0 0.0352
6175.0 0.035
6180.0 0.0349
6185.0 0.0347
6190.0 0.0346
6195.0 0.0346
6200.0 0.0346
6205.0 0.0346
6210.0 0.0346
6215.0 0.0346
6220.0 0.0347
6225.0 0.0348
6230.0 0.0348
6235.0 0.0349
6240.0 0.035
6245.0 0.0351
6250.0 0.0351
6255.0 0.0352
6260.0 0.0352
6265.0 0.0352
6270.0 0.0352
6275.0 0.0352
6280.0 0.0351
6285.0 0.035
6290.0 0.0348
6295.0 0.0347
6300.0 0.0345
6305.0 0.0343
6310.0 0.034
6315.0 0.0338
6320.0 0.0335
6325.0 0.0333
6330.0 0.0331
6335.0 0.0329
6340.0 0.0327
6345.0 0.0325
6350.0 0.0324
6355.0 0.0323
6360.0 0.0322
6365.0 0.0322
6370.0 0.0322
6375.0 0.0323
6380.0 0.0324
6385.0 0.0325
6390.0 0.0326
6395.0 0.0328
6400.0 0.033
6405.0 0.0333
6410.0 0.0335
6415.0 0.0338
6420.0 0.0341
6425.0 0.0344
6430.0 0.0347
6435.0 0.035
6440.0 0.0353
6445.0 0.0356
6450.0 0.036
6455.0 0.0363
6460.0 0.0366
6465.0 0.0369
6470.0 0.0372
6475.0 0.0375
6480.0 0.0378
6485.0 0.0381
6490.0 0.0384
6495.0 0.0386
6500.0 0.0389
6505.0 0.0391
6510.0 0.0394
6515.0 0.0396
6520.0 0.0398
6525.0 0.04
6530.0 0.0402
6535.0 0.0403
6540.0 0.0405
6545.0 0.0406
6550.0 0.0408
6555.0 0.0409
6560.0 0.0411
6565.0 0.0412
6570.0 0.0413
6575.0 0.0414
6580.0 0.0415
6585.0 0.0415
6590.0 0.0416
6595.0 0.0416
6600.0 0.0416
6605.0 0.0416
6610.0 0.0415
6615.0 0.0414
6620.0 0.0413
6625.0 0.0412
6630.0 0.041
6635.0 0.0408
6640.0 0.0406
6645.0 0.0403
6650.0 0.0401
6655.0 0.0397
6660.0 0.0394
6665.0 0.0391
6670.0 0.0387
6675.0 0.0383
6680.0 0.038
6685.0 0.0376
6690.0 0.0372
6695.0 0.0369
6700.0 0.0365
6705.0 0.0362
6710.0 0.0358
6715.0 0.0355
6720.0 0.0352
6725.0 0.035
6730.0 0.0347
6735.0 0.0345
6740.0 0.0343
6745.0 0.0341
6750.0 0.034
6755.0 0.0339
6760.0 0.0338
6765.0 0.0337
6770.0 0.0337
6775.0 0.0337
6780.0 0.0337
6785.0 0.0337
6790.0 0.0337
6795.0 0.0338
6800.0 0.0339
6805.0 0.034
6810.0 0.0341
6815.0 0.0342
6820.0 0.0343
6825.0 0.0344
6830.0 0.0346
6835.0 0.0347
6840.0 0.0348
6845.0 0.035
6850.0 0.0351
6855.0 0.0352
6860.0 0.0354
6865.0 0.0355
6870.0 0.0356
6875.0 0.0357
6880.0 0.0358
6885.0 0.0359
6890.0 0.036
6895.0 0.036
6900.0 0.0361
6905.0 0.0361
6910.0 0.0362
6915.0 0.0362
6920.0 0.0362
6925.0 0.0362
6930.0 0.0362
6935.0 0.0362
6940.0 0.0362
6945.0 0.0362
6950.0 0.0362
6955.0 0.0361
6960.0 0.0361
6965.0 0.036
6970.0 0.036
6975.0 0.0359
6980.0 0.0359
6985.0 0.0358
6990.0 0.0357
6995.0 0.0357
7000.0 0.0356
7005.0 0.0356
7010.0 0.0355
7015.0 0.0354
7020.0 0.0354
7025.0 0.0354
7030.0 0.0353
7035.0 0.0353
7040.0 0.0353
7045.0 0.0352
7050.0 0.0352
7055.0 0.0352
7060.0 0.0352
7065.0 0.0352
7070.0 0.0352
7075.0 0.0352
7080.0 0.0352
7085.0 0.0352
7090.0 0.0352
7095.0 0.0352
7100.0 0.0352
7105.0 0.0351
7110.0 0.0351
7115.0 0.0351
7120.0 0.035
7125.0 0.035
7130.0 0.0349
7135.0 0.0349
7140.0 0.0348
7145.0 0.0347
7150.0 0.0346
7155.0 0.0346
7160.0 0.0345
7165.0 0.0344
7170.0 0.0343
7175.0 0.0342
7180.0 0.0342
7185.0 0.0341
7190.0 0.034
7195.0 0.0339
7200.0 0.0339
7205.0 0.0338
7210.0 0.0337
7215.0 0.0337
7220.0 0.0336
7225.0 0.0336
7230.0 0.0336
7235.0 0.0335
7240.0 0.0335
7245.0 0.0335
7250.0 0.0335
7255.0 0.0334
7260.0 0.0334
7265.0 0.0334
7270.0 0.0334
7275.0 0.0333
7280.0 0.0333
7285.0 0.0332
7290.0 0.0332
7295.0 0.0331
7300.0 0.033
7305.0 0.0329
7310.0 0.0328
7315.0 0.0327
7320.0 0.0326
7325.0 0.0324
7330.0 0.0322
7335.0 0.032
7340.0 0.0318
7345.0 0.0316
7350.0 0.0314
7355.0 0.0312
7360.0 0.0309
7365.0 0.0307
7370.0 0.0304
7375.0 0.0302
7380.0 0.0299
7385.0 0.0297
7390.0 0.0294
7395.0 0.0292
7400.0 0.029
7405.0 0.0288
7410.0 0.0285
7415.0 0.0283
7420.0 0.0282
7425.0 0.028
7430.0 0.0278
7435.0 0.0277
7440.0 0.0276
7445.0 0.0275
7450.0 0.0274
7455.0 0.0273
7460.0 0.0272
7465.0 0.0272
7470.0 0.0271
7475.0 0.0271
7480.0 0.0271
7485.0 0.0271
7490.0 0.0271
7495.0 0.0271
7500.0 0.0272
7505.0 0.0272
7510.0 0.0273
7515.0 0.0273
7520.0 0.0274
7525.0 0.0275
7530.0 0.0275
7535.0 0.0276
7540.0 0.0277
7545.0 0.0278
7550.0 0.0279
7555.0 0.0279
7560.0 0.028
7565.0 0.0281
7570.0 0.0282
7575.0 0.0283
7580.0 0.0284
7585.0 0.0284
7590.0 0.0285
7595.0 0.0286
7600.0 0.0287
7605.0 0.0287
7610.0 0.0288
7615.0 0.0289
7620.0 0.029
7625.0 0.029
7630.0 0.0291
7635.0 0.0292
7640.0 0.0293
7645.0 0.0294
7650.0 0.0295
7655.0 0.0296
7660.0 0.0297
7665.0 0.0298
7670.0 0.0299
7675.0 0.03
7680.0 0.0301
7685.0 0.0302
7690.0 0.0302
7695.0 0.0303
7700.0 0.0304
7705.0 0.0305
7710.0 0.0305
7715.0 0.0306
7720.0 0.0306
7725.0 0.0307
7730.0 0.0307
7735.0 0.0307
7740.0 0.0307
7745.0 0.0307
7750.0 0.0307
7755.0 0.0307
7760.0 0.0307
7765.0 0.0307
7770.0 0.0306
7775.0 0.0306
7780.0 0.0305
7785.0 0.0305
7790.0 0.0304
7795.0 0.0304
7800.0 0.0303
7805.0 0.0303
7810.0 0.0302
7815.0 0.0301
7820.0 0.0301
7825.0 0.03
7830.0 0.0299
7835.0 0.0298
7840.0 0.0297
7845.0 0.0297
7850.0 0.0296
7855.0 0.0295
7860.0 0.0294
7865.0 0.0293
7870.0 0.0292
7875.0 0.0291
7880.0 0.0291
7885.0 0.029
7890.0 0.0289
7895.0 0.0288
7900.0 0.0287
7905.0 0.0286
7910.0 0.0284
7915.0 0.0283
7920.0 0.0282
7925.0 0.0281
7930.0 0.0279
7935.0 0.0278
7940.0 0.0276
7945.0 0.0275
7950.0 0.0273
7955.0 0.0271
7960.0 0.0269
7965.0 0.0267
7970.0 0.0265
7975.0 0.0262
7980.0 0.026
7985.0 0.0257
7990.0 0.0254
7995.0 0.025
8000.0 0.0247
8005.0 0.0243
8010.0 0.024
8015.0 0.0236
8020.0 0.0232
8025.0 0.0228
8030.0 0.0223
8035.0 0.0219
8040.0 0.0215
8045.0 0.021
8050.0 0.0206
8055.0 0.0202
8060.0 0.0198
8065.0 0.0193
8070.0 0.0189
8075.0 0.0185
8080.0 0.0182
8085.0 0.0178
8090.0 0.0174
8095.0 0.0171
8100.0 0.0168
8105.0 0.0164
8110.0 0.0162
8115.0 0.0159
8120.0 0.0156
8125.0 0.0154
8130.0 0.0151
8135.0 0.0149
8140.0 0.0147
8145.0 0.0146
8150.0 0.0144
8155.0 0.0143
8160.0 0.0141
8165.0 0.014
8170.0 0.0139
8175.0 0.0138
8180.0 0.0138
8185.0 0.0137
8190.0 0.0137
8195.0 0.0137
8200.0 0.0137
8205.0 0.0137
8210.0 0.0137
8215.0 0.0138
8220.0 0.0138
8225.0 0.0139
8230.0 0.014
8235.0 0.0141
8240.0 0.0142
8245.0 0.0143
8250.0 0.0144
8255.0 0.0146
8260.0 0.0148
8265.0 0.0149
8270.0 0.0151
8275.0 0.0153
8280.0 0.0155
8285.0 0.0157
8290.0 0.016
8295.0 0.0162
8300.0 0.0165
8305.0 0.0168
8310.0 0.017
8315.0 0.0173
8320.0 0.0176
8325.0 0.018
8330.0 0.0183
8335.0 0.0186
8340.0 0.0189
8345.0 0.0193
8350.0 0.0196
8355.0 0.02
8360.0 0.0203
8365.0 0.0207
8370.0 0.0211
8375.0 0.0214
8380.0 0.0218
8385.0 0.0221
8390.0 0.0225
8395.0 0.0228
8400.0 0.0231
8405.0 0.0235
8410.0 0.0238
8415.0 0.0241
8420.0 0.0244
8425.0 0.0247
8430.0 0.025
8435.0 0.0252
8440.0 0.0255
8445.0 0.0257
8450.0 0.026
8455.0 0.0262
8460.0 0.0264
8465.0 0.0266
8470.0 0.0268
8475.0 0.0269
8480.0 0.0271
8485.0 0.0272
8490.0 0.0274
8495.0 0.0275
8500.0 0.0276
8505.0 0.0277
8510.0 0.0278
8515.0 0.0279
8520.0 0.028
8525.0 0.0281
8530.0 0.0281
8535.0 0.0282
8540.0 0.0282
8545.0 0.0283
8550.0 0.0283
8555.0 0.0283
8560.0 0.0283
8565.0 0.0283
8570.0 0.0283
8575.0 0.0283
8580.0 0.0283
8585.0 0.0283
8590.0 0.0283
8595.0 0.0282
8600.0 0.0282
8605.0 0.0282
8610.0 0.0281
8615.0 0.0281
8620.0 0.028
8625.0 0.028
8630.0 0.0279
8635.0 0.0279
8640.0 0.0278
8645.0 0.0277
8650.0 0.0276
8655.0 0.0276
8660.0 0.0275
8665.0 0.0274
8670.0 0.0273
8675.0 0.0272
8680.0 0.0272
8685.0 0.0271
8690.0 0.027
8695.0 0.0269
8700.0 0.0268
