#lamb flux
1605.0 0.00225
1610.0 0.00226
1615.0 0.00228
1620.0 0.00229
1625.0 0.0023
1630.0 0.00231
1635.0 0.00232
1640.0 0.00233
1645.0 0.00234
1650.0 0.00235
1655.0 0.00236
1660.0 0.00238
1665.0 0.00239
1670.0 0.0024
1675.0 0.00241
1680.0 0.00242
1685.0 0.00244
1690.0 0.00245
1695.0 0.00246
1700.0 0.00247
1705.0 0.00248
1710.0 0.0025
1715.0 0.00251
1720.0 0.00252
1725.0 0.00254
1730.0 0.00255
1735.0 0.00256
1740.0 0.00258
1745.0 0.00259
1750.0 0.0026
1755.0 0.00262
1760.0 0.00263
1765.0 0.00264
1770.0 0.00266
1775.0 0.00267
1780.0 0.00269
1785.0 0.0027
1790.0 0.00271
1795.0 0.00273
1800.0 0.00274
1805.0 0.00276
1810.0 0.00277
1815.0 0.00279
1820.0 0.0028
1825.0 0.00282
1830.0 0.00283
1835.0 0.00285
1840.0 0.00287
1845.0 0.00288
1850.0 0.0029
1855.0 0.00292
1860.0 0.00293
1865.0 0.00295
1870.0 0.00296
1875.0 0.00298
1880.0 0.003
1885.0 0.00301
1890.0 0.00303
1895.0 0.00305
1900.0 0.00307
1905.0 0.00308
1910.0 0.0031
1915.0 0.00312
1920.0 0.00314
1925.0 0.00316
1930.0 0.00318
1935.0 0.00319
1940.0 0.00321
1945.0 0.00323
1950.0 0.00325
1955.0 0.00327
1960.0 0.00329
1965.0 0.00331
1970.0 0.00333
1975.0 0.00335
1980.0 0.00337
1985.0 0.00339
1990.0 0.00341
1995.0 0.00343
2000.0 0.00345
2005.0 0.00347
2010.0 0.00349
2015.0 0.00351
2020.0 0.00354
2025.0 0.00356
2030.0 0.00358
2035.0 0.0036
2040.0 0.00362
2045.0 0.00365
2050.0 0.00367
2055.0 0.00369
2060.0 0.00371
2065.0 0.00374
2070.0 0.00376
2075.0 0.00378
2080.0 0.00381
2085.0 0.00383
2090.0 0.00386
2095.0 0.00388
2100.0 0.00391
2105.0 0.00393
2110.0 0.00396
2115.0 0.00398
2120.0 0.00401
2125.0 0.00403
2130.0 0.00406
2135.0 0.00409
2140.0 0.00411
2145.0 0.00414
2150.0 0.00417
2155.0 0.00419
2160.0 0.00422
2165.0 0.00425
2170.0 0.00428
2175.0 0.00431
2180.0 0.00434
2185.0 0.00436
2190.0 0.00439
2195.0 0.00442
2200.0 0.00445
2205.0 0.00448
2210.0 0.00451
2215.0 0.00455
2220.0 0.00458
2225.0 0.00461
2230.0 0.00464
2235.0 0.00467
2240.0 0.0047
2245.0 0.00474
2250.0 0.00477
2255.0 0.0048
2260.0 0.00484
2265.0 0.00487
2270.0 0.00491
2275.0 0.00494
2280.0 0.00497
2285.0 0.00501
2290.0 0.00505
2295.0 0.00508
2300.0 0.00512
2305.0 0.00516
2310.0 0.00519
2315.0 0.00523
2320.0 0.00527
2325.0 0.00531
2330.0 0.00535
2335.0 0.00539
2340.0 0.00543
2345.0 0.00547
2350.0 0.00551
2355.0 0.00555
2360.0 0.00559
2365.0 0.00563
2370.0 0.00567
2375.0 0.00571
2380.0 0.00575
2385.0 0.0058
2390.0 0.00584
2395.0 0.00588
2400.0 0.00593
2405.0 0.00597
2410.0 0.00601
2415.0 0.00606
2420.0 0.0061
2425.0 0.00615
2430.0 0.00619
2435.0 0.00624
2440.0 0.00628
2445.0 0.00633
2450.0 0.00638
2455.0 0.00642
2460.0 0.00647
2465.0 0.00652
2470.0 0.00656
2475.0 0.00661
2480.0 0.00666
2485.0 0.00671
2490.0 0.00676
2495.0 0.0068
2500.0 0.00685
2505.0 0.0069
2510.0 0.00695
2515.0 0.007
2520.0 0.00705
2525.0 0.0071
2530.0 0.00715
2535.0 0.0072
2540.0 0.00725
2545.0 0.0073
2550.0 0.00735
2555.0 0.0074
2560.0 0.00745
2565.0 0.0075
2570.0 0.00755
2575.0 0.0076
2580.0 0.00765
2585.0 0.0077
2590.0 0.00775
2595.0 0.0078
2600.0 0.00785
2605.0 0.0079
2610.0 0.00795
2615.0 0.008
2620.0 0.00805
2625.0 0.0081
2630.0 0.00815
2635.0 0.0082
2640.0 0.00825
2645.0 0.0083
2650.0 0.00835
2655.0 0.0084
2660.0 0.00845
2665.0 0.0085
2670.0 0.00854
2675.0 0.00859
2680.0 0.00864
2685.0 0.00869
2690.0 0.00873
2695.0 0.00878
2700.0 0.00883
2705.0 0.00887
2710.0 0.00892
2715.0 0.00897
2720.0 0.00901
2725.0 0.00905
2730.0 0.00909
2735.0 0.00914
2740.0 0.00918
2745.0 0.00922
2750.0 0.00926
2755.0 0.00931
2760.0 0.00934
2765.0 0.00938
2770.0 0.00942
2775.0 0.00945
2780.0 0.00949
2785.0 0.00953
2790.0 0.00956
2795.0 0.0096
2800.0 0.00963
2805.0 0.00966
2810.0 0.00969
2815.0 0.00972
2820.0 0.00975
2825.0 0.00978
2830.0 0.00981
2835.0 0.00984
2840.0 0.00986
2845.0 0.00988
2850.0 0.0099
2855.0 0.00992
2860.0 0.00994
2865.0 0.00996
2870.0 0.00998
2875.0 0.01
2880.0 0.01
2885.0 0.01
2890.0 0.01
2895.0 0.01
2900.0 0.0101
2905.0 0.0101
2910.0 0.0101
2915.0 0.0101
2920.0 0.0101
2925.0 0.0101
2930.0 0.0101
2935.0 0.0101
2940.0 0.0101
2945.0 0.0101
2950.0 0.0101
2955.0 0.0101
2960.0 0.0101
2965.0 0.01
2970.0 0.01
2975.0 0.01
2980.0 0.01
2985.0 0.00998
2990.0 0.00997
2995.0 0.00996
3000.0 0.00993
3005.0 0.00991
3010.0 0.00988
3015.0 0.00986
3020.0 0.00983
3025.0 0.00979
3030.0 0.00976
3035.0 0.00973
3040.0 0.00969
3045.0 0.00965
3050.0 0.00961
3055.0 0.00957
3060.0 0.00952
3065.0 0.00948
3070.0 0.00943
3075.0 0.00938
3080.0 0.00933
3085.0 0.00928
3090.0 0.00922
3095.0 0.00916
3100.0 0.0091
3105.0 0.00904
3110.0 0.00898
3115.0 0.00891
3120.0 0.00885
3125.0 0.00878
3130.0 0.00871
3135.0 0.00864
3140.0 0.00857
3145.0 0.0085
3150.0 0.00843
3155.0 0.00836
3160.0 0.00829
3165.0 0.00822
3170.0 0.00816
3175.0 0.00809
3180.0 0.00802
3185.0 0.00796
3190.0 0.0079
3195.0 0.00445
3200.0 0.00448
3205.0 0.00449
3210.0 0.00454
3215.0 0.0045
3220.0 0.0045
3225.0 0.00458
3230.0 0.00467
3235.0 0.00478
3240.0 0.00494
3245.0 0.00516
3250.0 0.00541
3255.0 0.00568
3260.0 0.00593
3265.0 0.00617
3270.0 0.00639
3275.0 0.00659
3280.0 0.00686
3285.0 0.00718
3290.0 0.00759
3295.0 0.00785
3300.0 0.00809
3305.0 0.00832
3310.0 0.00866
3315.0 0.00895
3320.0 0.00915
3325.0 0.00938
3330.0 0.00964
3335.0 0.00991
3340.0 0.0103
3345.0 0.0107
3350.0 0.0111
3355.0 0.0116
3360.0 0.012
3365.0 0.0124
3370.0 0.0127
3375.0 0.0131
3380.0 0.0134
3385.0 0.0137
3390.0 0.014
3395.0 0.0144
3400.0 0.0147
3405.0 0.015
3410.0 0.0153
3415.0 0.0154
3420.0 0.0156
3425.0 0.0157
3430.0 0.0158
3435.0 0.0158
3440.0 0.0157
3445.0 0.0156
3450.0 0.0155
3455.0 0.0154
3460.0 0.0153
3465.0 0.0152
3470.0 0.0151
3475.0 0.015
3480.0 0.0149
3485.0 0.0148
3490.0 0.0147
3495.0 0.0148
3500.0 0.0149
3505.0 0.015
3510.0 0.015
3515.0 0.015
3520.0 0.015
3525.0 0.015
3530.0 0.0149
3535.0 0.0148
3540.0 0.0146
3545.0 0.0145
3550.0 0.0143
3555.0 0.0142
3560.0 0.0141
3565.0 0.014
3570.0 0.0139
3575.0 0.0138
3580.0 0.0137
3585.0 0.0136
3590.0 0.0134
3595.0 0.0133
3600.0 0.0132
3605.0 0.0132
3610.0 0.0132
3615.0 0.0133
3620.0 0.0135
3625.0 0.0137
3630.0 0.0139
3635.0 0.0141
3640.0 0.0143
3645.0 0.0145
3650.0 0.0145
3655.0 0.0145
3660.0 0.0144
3665.0 0.0141
3670.0 0.0138
3675.0 0.0134
3680.0 0.0128
3685.0 0.0123
3690.0 0.0116
3695.0 0.011
3700.0 0.0104
3705.0 0.00989
3710.0 0.00943
3715.0 0.00905
3720.0 0.00874
3725.0 0.0085
3730.0 0.0084
3735.0 0.00832
3740.0 0.00824
3745.0 0.00819
3750.0 0.00817
3755.0 0.00817
3760.0 0.00819
3765.0 0.00822
3770.0 0.00826
3775.0 0.00832
3780.0 0.00837
3785.0 0.00844
3790.0 0.00852
3795.0 0.00865
3800.0 0.00881
3805.0 0.00901
3810.0 0.00927
3815.0 0.00959
3820.0 0.00995
3825.0 0.0104
3830.0 0.011
3835.0 0.0117
3840.0 0.0125
3845.0 0.0135
3850.0 0.0145
3855.0 0.0156
3860.0 0.0168
3865.0 0.0181
3870.0 0.0193
3875.0 0.0205
3880.0 0.0215
3885.0 0.0225
3890.0 0.0233
3895.0 0.024
3900.0 0.0247
3905.0 0.0252
3910.0 0.0257
3915.0 0.026
3920.0 0.0262
3925.0 0.0264
3930.0 0.0265
3935.0 0.0266
3940.0 0.0267
3945.0 0.0268
3950.0 0.0269
3955.0 0.027
3960.0 0.0272
3965.0 0.0273
3970.0 0.0273
3975.0 0.0273
3980.0 0.0272
3985.0 0.0271
3990.0 0.0268
3995.0 0.0264
4000.0 0.0259
4005.0 0.0254
4010.0 0.025
4015.0 0.0245
4020.0 0.024
4025.0 0.0235
4030.0 0.023
4035.0 0.0225
4040.0 0.0221
4045.0 0.0217
4050.0 0.0213
4055.0 0.021
4060.0 0.0207
4065.0 0.0204
4070.0 0.0201
4075.0 0.0199
4080.0 0.0196
4085.0 0.0194
4090.0 0.0192
4095.0 0.0191
4100.0 0.019
4105.0 0.0189
4110.0 0.0188
4115.0 0.0187
4120.0 0.0187
4125.0 0.0186
4130.0 0.0185
4135.0 0.0185
4140.0 0.0184
4145.0 0.0183
4150.0 0.0182
4155.0 0.0181
4160.0 0.018
4165.0 0.0179
4170.0 0.0179
4175.0 0.018
4180.0 0.0181
4185.0 0.0182
4190.0 0.0184
4195.0 0.0185
4200.0 0.0187
4205.0 0.0189
4210.0 0.0191
4215.0 0.0192
4220.0 0.0192
4225.0 0.0192
4230.0 0.0192
4235.0 0.0191
4240.0 0.0191
4245.0 0.0191
4250.0 0.0191
4255.0 0.0192
4260.0 0.0193
4265.0 0.0193
4270.0 0.0194
4275.0 0.0195
4280.0 0.0195
4285.0 0.0196
4290.0 0.0195
4295.0 0.0194
4300.0 0.0193
4305.0 0.0191
4310.0 0.0188
4315.0 0.0185
4320.0 0.0182
4325.0 0.0178
4330.0 0.0174
4335.0 0.017
4340.0 0.0167
4345.0 0.0163
4350.0 0.0159
4355.0 0.0156
4360.0 0.0153
4365.0 0.0151
4370.0 0.0148
4375.0 0.0146
4380.0 0.0145
4385.0 0.0144
4390.0 0.0143
4395.0 0.0142
4400.0 0.0142
4405.0 0.0143
4410.0 0.0144
4415.0 0.0145
4420.0 0.0147
4425.0 0.015
4430.0 0.0153
4435.0 0.0156
4440.0 0.0159
4445.0 0.0163
4450.0 0.0167
4455.0 0.0171
4460.0 0.0176
4465.0 0.018
4470.0 0.0185
4475.0 0.0189
4480.0 0.0194
4485.0 0.0199
4490.0 0.0204
4495.0 0.0209
4500.0 0.0214
4505.0 0.0218
4510.0 0.0222
4515.0 0.0226
4520.0 0.023
4525.0 0.0234
4530.0 0.0237
4535.0 0.024
4540.0 0.0243
4545.0 0.0246
4550.0 0.0248
4555.0 0.0251
4560.0 0.0253
4565.0 0.0255
4570.0 0.0256
4575.0 0.0256
4580.0 0.0256
4585.0 0.0256
4590.0 0.0255
4595.0 0.0254
4600.0 0.0253
4605.0 0.0252
4610.0 0.025
4615.0 0.0248
4620.0 0.0246
4625.0 0.0244
4630.0 0.0242
4635.0 0.024
4640.0 0.0238
4645.0 0.0235
4650.0 0.0233
4655.0 0.0229
4660.0 0.0226
4665.0 0.0222
4670.0 0.0218
4675.0 0.0213
4680.0 0.0208
4685.0 0.0203
4690.0 0.0197
4695.0 0.0192
4700.0 0.0186
4705.0 0.0181
4710.0 0.0175
4715.0 0.017
4720.0 0.0165
4725.0 0.016
4730.0 0.0155
4735.0 0.0151
4740.0 0.0147
4745.0 0.0143
4750.0 0.014
4755.0 0.0138
4760.0 0.0137
4765.0 0.0136
4770.0 0.0135
4775.0 0.0135
4780.0 0.0135
4785.0 0.0136
4790.0 0.0136
4795.0 0.0137
4800.0 0.0137
4805.0 0.0138
4810.0 0.0138
4815.0 0.0138
4820.0 0.0137
4825.0 0.0137
4830.0 0.0137
4835.0 0.0136
4840.0 0.0136
4845.0 0.0137
4850.0 0.0138
4855.0 0.0139
4860.0 0.0141
4865.0 0.0143
4870.0 0.0146
4875.0 0.0149
4880.0 0.0152
4885.0 0.0155
4890.0 0.0158
4895.0 0.0161
4900.0 0.0163
4905.0 0.0165
4910.0 0.0166
4915.0 0.0167
4920.0 0.0167
4925.0 0.0166
4930.0 0.0165
4935.0 0.0163
4940.0 0.016
4945.0 0.0157
4950.0 0.0154
4955.0 0.015
4960.0 0.0147
4965.0 0.0143
4970.0 0.014
4975.0 0.0138
4980.0 0.0135
4985.0 0.0133
4990.0 0.0132
4995.0 0.0131
5000.0 0.0131
5005.0 0.0131
5010.0 0.0132
5015.0 0.0133
5020.0 0.0135
5025.0 0.0136
5030.0 0.0138
5035.0 0.0141
5040.0 0.0143
5045.0 0.0145
5050.0 0.0148
5055.0 0.015
5060.0 0.0152
5065.0 0.0153
5070.0 0.0155
5075.0 0.0156
5080.0 0.0157
5085.0 0.0158
5090.0 0.0159
5095.0 0.0159
5100.0 0.0159
5105.0 0.0159
5110.0 0.0159
5115.0 0.0159
5120.0 0.0159
5125.0 0.0159
5130.0 0.016
5135.0 0.016
5140.0 0.0162
5145.0 0.0163
5150.0 0.0165
5155.0 0.0167
5160.0 0.0169
5165.0 0.0172
5170.0 0.0174
5175.0 0.0176
5180.0 0.0179
5185.0 0.0181
5190.0 0.0184
5195.0 0.0187
5200.0 0.0189
5205.0 0.0191
5210.0 0.0194
5215.0 0.0196
5220.0 0.0198
5225.0 0.02
5230.0 0.0201
5235.0 0.0203
5240.0 0.0204
5245.0 0.0205
5250.0 0.0206
5255.0 0.0207
5260.0 0.0207
5265.0 0.0208
5270.0 0.0208
5275.0 0.0208
5280.0 0.0208
5285.0 0.0207
5290.0 0.0206
5295.0 0.0206
5300.0 0.0205
5305.0 0.0204
5310.0 0.0203
5315.0 0.0201
5320.0 0.02
5325.0 0.0199
5330.0 0.0197
5335.0 0.0196
5340.0 0.0195
5345.0 0.0193
5350.0 0.0192
5355.0 0.0191
5360.0 0.019
5365.0 0.0189
5370.0 0.0189
5375.0 0.0189
5380.0 0.0188
5385.0 0.0188
5390.0 0.0188
5395.0 0.0187
5400.0 0.0187
5405.0 0.0186
5410.0 0.0186
5415.0 0.0186
5420.0 0.0185
5425.0 0.0184
5430.0 0.0184
5435.0 0.0183
5440.0 0.0182
5445.0 0.0182
5450.0 0.0181
5455.0 0.018
5460.0 0.0179
5465.0 0.0178
5470.0 0.0177
5475.0 0.0176
5480.0 0.0174
5485.0 0.0173
5490.0 0.0171
5495.0 0.017
5500.0 0.0168
5505.0 0.0167
5510.0 0.0165
5515.0 0.0164
5520.0 0.0162
5525.0 0.0161
5530.0 0.016
5535.0 0.0159
5540.0 0.0158
5545.0 0.0157
5550.0 0.0156
5555.0 0.0156
5560.0 0.0155
5565.0 0.0155
5570.0 0.0154
5575.0 0.0154
5580.0 0.0153
5585.0 0.0152
5590.0 0.0152
5595.0 0.0151
5600.0 0.015
5605.0 0.0149
5610.0 0.0149
5615.0 0.0148
5620.0 0.0147
5625.0 0.0146
5630.0 0.0144
5635.0 0.0143
5640.0 0.0142
5645.0 0.014
5650.0 0.0139
5655.0 0.0138
5660.0 0.0136
5665.0 0.0135
5670.0 0.0133
5675.0 0.0132
5680.0 0.013
5685.0 0.0129
5690.0 0.0127
5695.0 0.0126
5700.0 0.0125
5705.0 0.0124
5710.0 0.0123
5715.0 0.0122
5720.0 0.0122
5725.0 0.0122
5730.0 0.0122
5735.0 0.0122
5740.0 0.0123
5745.0 0.0124
5750.0 0.0125
5755.0 0.0126
5760.0 0.0127
5765.0 0.0129
5770.0 0.013
5775.0 0.0131
5780.0 0.0132
5785.0 0.0133
5790.0 0.0133
5795.0 0.0134
5800.0 0.0134
5805.0 0.0134
5810.0 0.0134
5815.0 0.0134
5820.0 0.0134
5825.0 0.0135
5830.0 0.0134
5835.0 0.0134
5840.0 0.0134
5845.0 0.0133
5850.0 0.0132
5855.0 0.0131
5860.0 0.0131
5865.0 0.013
5870.0 0.0129
5875.0 0.0129
5880.0 0.0129
5885.0 0.0128
5890.0 0.0128
5895.0 0.0128
5900.0 0.0128
5905.0 0.0128
5910.0 0.0128
5915.0 0.0128
5920.0 0.0128
5925.0 0.0127
5930.0 0.0127
5935.0 0.0126
5940.0 0.0125
5945.0 0.0124
5950.0 0.0123
5955.0 0.0122
5960.0 0.0121
5965.0 0.012
5970.0 0.0119
5975.0 0.0119
5980.0 0.0118
5985.0 0.0118
5990.0 0.0118
5995.0 0.0118
6000.0 0.0118
6005.0 0.0118
6010.0 0.0119
6015.0 0.0119
6020.0 0.0119
6025.0 0.012
6030.0 0.0121
6035.0 0.0121
6040.0 0.0121
6045.0 0.0122
6050.0 0.0122
6055.0 0.0122
6060.0 0.0123
6065.0 0.0123
6070.0 0.0123
6075.0 0.0124
6080.0 0.0124
6085.0 0.0124
6090.0 0.0124
6095.0 0.0124
6100.0 0.0124
6105.0 0.0123
6110.0 0.0122
6115.0 0.0121
6120.0 0.0119
6125.0 0.0117
6130.0 0.0115
6135.0 0.0112
6140.0 0.0109
6145.0 0.0107
6150.0 0.0104
6155.0 0.0101
6160.0 0.00982
6165.0 0.00958
6170.0 0.00939
6175.0 0.00925
6180.0 0.00915
6185.0 0.00907
6190.0 0.00903
6195.0 0.00904
6200.0 0.00909
6205.0 0.00917
6210.0 0.00927
6215.0 0.00938
6220.0 0.0095
6225.0 0.00964
6230.0 0.00976
6235.0 0.00989
6240.0 0.01
6245.0 0.0101
6250.0 0.0102
6255.0 0.0104
6260.0 0.0105
6265.0 0.0106
6270.0 0.0108
6275.0 0.0109
6280.0 0.0111
6285.0 0.0112
6290.0 0.0114
6295.0 0.0116
6300.0 0.0117
6305.0 0.0119
6310.0 0.012
6315.0 0.0121
6320.0 0.0122
6325.0 0.0123
6330.0 0.0124
6335.0 0.0125
6340.0 0.0125
6345.0 0.0125
6350.0 0.0124
6355.0 0.0124
6360.0 0.0123
6365.0 0.0121
6370.0 0.012
6375.0 0.0118
6380.0 0.0116
6385.0 0.0115
6390.0 0.0113
6395.0 0.0112
6400.0 0.0111
6405.0 0.0111
6410.0 0.0111
6415.0 0.0111
6420.0 0.0112
6425.0 0.0113
6430.0 0.0114
6435.0 0.0115
6440.0 0.0117
6445.0 0.0118
6450.0 0.0119
6455.0 0.012
6460.0 0.012
6465.0 0.012
6470.0 0.012
6475.0 0.012
6480.0 0.0119
6485.0 0.0119
6490.0 0.0119
6495.0 0.0118
6500.0 0.0118
6505.0 0.0117
6510.0 0.0117
6515.0 0.0116
6520.0 0.0116
6525.0 0.0115
6530.0 0.0115
6535.0 0.0114
6540.0 0.0114
6545.0 0.0113
6550.0 0.0112
6555.0 0.0112
6560.0 0.0111
6565.0 0.0111
6570.0 0.011
6575.0 0.011
6580.0 0.0109
6585.0 0.0109
6590.0 0.0108
6595.0 0.0108
6600.0 0.0107
6605.0 0.0106
6610.0 0.0105
6615.0 0.0105
6620.0 0.0104
6625.0 0.0103
6630.0 0.0102
6635.0 0.0101
6640.0 0.0101
6645.0 0.00999
6650.0 0.00993
6655.0 0.00988
6660.0 0.00983
6665.0 0.0098
6670.0 0.00978
6675.0 0.00976
6680.0 0.00973
6685.0 0.0097
6690.0 0.00968
6695.0 0.00964
6700.0 0.00959
6705.0 0.00955
6710.0 0.00951
6715.0 0.00945
6720.0 0.0094
6725.0 0.00936
6730.0 0.00931
6735.0 0.00925
6740.0 0.00919
6745.0 0.00914
6750.0 0.00909
6755.0 0.00906
6760.0 0.00902
6765.0 0.00899
6770.0 0.00895
6775.0 0.0089
6780.0 0.00886
6785.0 0.00887
6790.0 0.00888
6795.0 0.00883
6800.0 0.00875
6805.0 0.00869
6810.0 0.00863
6815.0 0.00859
6820.0 0.00855
6825.0 0.00849
6830.0 0.00841
6835.0 0.00834
6840.0 0.00827
6845.0 0.0082
6850.0 0.00815
6855.0 0.00811
6860.0 0.00808
6865.0 0.00806
6870.0 0.00804
6875.0 0.00801
6880.0 0.00798
6885.0 0.00796
6890.0 0.00795
6895.0 0.00795
6900.0 0.00794
6905.0 0.00794
6910.0 0.00794
6915.0 0.00793
6920.0 0.00792
6925.0 0.00792
6930.0 0.00798
6935.0 0.00805
6940.0 0.00809
6945.0 0.00808
6950.0 0.0081
6955.0 0.00811
6960.0 0.00813
6965.0 0.00815
6970.0 0.00817
6975.0 0.00818
6980.0 0.00818
6985.0 0.00817
6990.0 0.00814
6995.0 0.0081
7000.0 0.00806
7005.0 0.008
7010.0 0.00793
7015.0 0.00787
7020.0 0.0078
7025.0 0.00773
7030.0 0.00766
7035.0 0.00761
7040.0 0.00757
7045.0 0.00755
7050.0 0.00754
7055.0 0.00755
7060.0 0.00757
7065.0 0.00761
7070.0 0.00765
7075.0 0.0077
7080.0 0.00778
7085.0 0.00789
7090.0 0.00799
7095.0 0.00805
7100.0 0.0081
7105.0 0.0081
7110.0 0.00809
7115.0 0.0081
7120.0 0.00813
7125.0 0.00817
7130.0 0.00823
7135.0 0.0083
7140.0 0.00836
7145.0 0.00841
7150.0 0.00844
7155.0 0.00849
7160.0 0.00855
7165.0 0.00861
7170.0 0.00865
7175.0 0.00867
7180.0 0.00867
7185.0 0.00866
7190.0 0.00866
7195.0 0.00868
7200.0 0.00868
7205.0 0.00866
7210.0 0.00862
7215.0 0.00856
7220.0 0.0085
7225.0 0.00845
7230.0 0.00844
7235.0 0.00842
7240.0 0.0084
7245.0 0.00839
7250.0 0.00836
7255.0 0.0083
7260.0 0.00824
7265.0 0.0082
7270.0 0.00815
7275.0 0.00813
7280.0 0.00811
7285.0 0.00808
7290.0 0.00804
7295.0 0.00798
7300.0 0.00793
7305.0 0.00791
7310.0 0.00789
7315.0 0.00788
7320.0 0.00785
7325.0 0.00782
7330.0 0.00778
7335.0 0.00776
7340.0 0.00775
7345.0 0.00774
7350.0 0.00773
7355.0 0.00772
7360.0 0.0077
7365.0 0.00768
7370.0 0.00765
7375.0 0.00761
7380.0 0.00758
7385.0 0.00752
7390.0 0.00747
7395.0 0.00741
7400.0 0.00734
7405.0 0.00725
7410.0 0.00715
7415.0 0.00703
7420.0 0.00691
7425.0 0.00679
7430.0 0.00665
7435.0 0.00651
7440.0 0.00634
7445.0 0.00615
7450.0 0.00595
7455.0 0.00574
7460.0 0.00552
7465.0 0.0053
7470.0 0.0051
7475.0 0.00491
7480.0 0.00473
7485.0 0.00455
7490.0 0.00439
7495.0 0.00426
7500.0 0.00412
7505.0 0.00398
7510.0 0.0039
7515.0 0.00391
7520.0 0.00394
7525.0 0.00394
7530.0 0.00392
7535.0 0.00392
7540.0 0.00398
7545.0 0.00405
7550.0 0.0041
7555.0 0.00412
7560.0 0.00417
7565.0 0.00427
7570.0 0.00441
7575.0 0.00459
7580.0 0.0048
7585.0 0.00501
7590.0 0.0052
7595.0 0.00539
7600.0 0.00555
7605.0 0.00571
7610.0 0.00591
7615.0 0.00612
7620.0 0.00632
7625.0 0.0065
7630.0 0.00665
7635.0 0.00677
7640.0 0.00685
7645.0 0.00689
7650.0 0.00687
7655.0 0.00685
7660.0 0.00688
7665.0 0.00693
7670.0 0.00694
7675.0 0.00693
7680.0 0.00694
7685.0 0.007
7690.0 0.00707
7695.0 0.00711
7700.0 0.00711
7705.0 0.00711
7710.0 0.00713
7715.0 0.00717
7720.0 0.00724
7725.0 0.00732
7730.0 0.00739
7735.0 0.00745
7740.0 0.00749
7745.0 0.00749
7750.0 0.00746
7755.0 0.00747
7760.0 0.00748
7765.0 0.00747
7770.0 0.00747
7775.0 0.00747
7780.0 0.00747
7785.0 0.00746
7790.0 0.00747
7795.0 0.00748
7800.0 0.00747
7805.0 0.00745
7810.0 0.00743
7815.0 0.00741
7820.0 0.00739
7825.0 0.00738
7830.0 0.00737
7835.0 0.00735
7840.0 0.00734
7845.0 0.00732
7850.0 0.0073
7855.0 0.00726
7860.0 0.00722
7865.0 0.00717
7870.0 0.00711
7875.0 0.00707
7880.0 0.00703
7885.0 0.00698
7890.0 0.00692
7895.0 0.00686
7900.0 0.00681
7905.0 0.00676
7910.0 0.00668
7915.0 0.00661
7920.0 0.00656
7925.0 0.00652
7930.0 0.00649
7935.0 0.00645
7940.0 0.00642
7945.0 0.00637
7950.0 0.0063
7955.0 0.00622
7960.0 0.00615
7965.0 0.00607
7970.0 0.00598
7975.0 0.00589
7980.0 0.00579
7985.0 0.00567
7990.0 0.00554
7995.0 0.00539
8000.0 0.00521
8005.0 0.00503
8010.0 0.00484
8015.0 0.00466
8020.0 0.00449
8025.0 0.00435
8030.0 0.00421
8035.0 0.00409
8040.0 0.00399
8045.0 0.00389
8050.0 0.0038
8055.0 0.00369
8060.0 0.00358
8065.0 0.00349
8070.0 0.00341
8075.0 0.00336
8080.0 0.00332
8085.0 0.00327
8090.0 0.00323
8095.0 0.00318
8100.0 0.00313
8105.0 0.00307
8110.0 0.003
8115.0 0.00293
8120.0 0.00284
8125.0 0.00275
8130.0 0.00267
8135.0 0.00259
8140.0 0.00253
8145.0 0.00249
8150.0 0.00246
8155.0 0.00244
8160.0 0.00243
8165.0 0.00243
8170.0 0.00242
8175.0 0.00242
8180.0 0.00241
8185.0 0.0024
8190.0 0.0024
8195.0 0.0024
8200.0 0.00241
8205.0 0.00242
8210.0 0.00242
8215.0 0.00243
8220.0 0.00244
8225.0 0.00245
8230.0 0.00244
8235.0 0.00243
8240.0 0.00245
8245.0 0.00247
8250.0 0.00251
8255.0 0.00257
8260.0 0.00264
8265.0 0.0027
8270.0 0.00276
8275.0 0.0028
8280.0 0.00281
8285.0 0.00283
8290.0 0.00285
8295.0 0.00288
8300.0 0.00293
8305.0 0.00301
8310.0 0.0031
8315.0 0.00319
8320.0 0.00327
8325.0 0.00335
8330.0 0.00339
8335.0 0.00342
8340.0 0.00346
8345.0 0.00352
8350.0 0.00358
8355.0 0.00365
8360.0 0.00374
8365.0 0.00385
8370.0 0.00396
8375.0 0.00406
8380.0 0.00414
8385.0 0.00422
8390.0 0.0043
8395.0 0.00437
8400.0 0.00445
8405.0 0.00453
8410.0 0.00461
8415.0 0.00471
8420.0 0.0048
8425.0 0.00487
8430.0 0.00493
8435.0 0.00498
8440.0 0.00505
8445.0 0.00513
8450.0 0.00522
8455.0 0.00532
8460.0 0.00543
8465.0 0.00555
8470.0 0.00566
8475.0 0.00576
8480.0 0.00585
8485.0 0.00593
8490.0 0.00602
8495.0 0.00611
8500.0 0.00618
8505.0 0.00625
8510.0 0.00632
8515.0 0.00639
8520.0 0.00645
8525.0 0.00649
8530.0 0.00651
