#lamb flux
1605.0 0.024
1610.0 0.0243
1615.0 0.0246
1620.0 0.025
1625.0 0.0253
1630.0 0.0256
1635.0 0.0259
1640.0 0.0262
1645.0 0.0266
1650.0 0.0269
1655.0 0.0273
1660.0 0.0276
1665.0 0.0279
1670.0 0.0283
1675.0 0.0286
1680.0 0.029
1685.0 0.0293
1690.0 0.0297
1695.0 0.0301
1700.0 0.0304
1705.0 0.0308
1710.0 0.0311
1715.0 0.0315
1720.0 0.0319
1725.0 0.0322
1730.0 0.0326
1735.0 0.033
1740.0 0.0333
1745.0 0.0337
1750.0 0.0341
1755.0 0.0344
1760.0 0.0348
1765.0 0.0351
1770.0 0.0355
1775.0 0.0358
1780.0 0.0362
1785.0 0.0365
1790.0 0.0369
1795.0 0.0372
1800.0 0.0375
1805.0 0.0378
1810.0 0.0381
1815.0 0.0384
1820.0 0.0387
1825.0 0.039
1830.0 0.0393
1835.0 0.0395
1840.0 0.0397
1845.0 0.0399
1850.0 0.0401
1855.0 0.0403
1860.0 0.0405
1865.0 0.0407
1870.0 0.0409
1875.0 0.0409
1880.0 0.041
1885.0 0.0411
1890.0 0.0411
1895.0 0.0412
1900.0 0.0413
1905.0 0.0413
1910.0 0.0414
1915.0 0.0413
1920.0 0.0412
1925.0 0.0411
1930.0 0.0411
1935.0 0.041
1940.0 0.0409
1945.0 0.0408
1950.0 0.0407
1955.0 0.0405
1960.0 0.0404
1965.0 0.0402
1970.0 0.04
1975.0 0.0398
1980.0 0.0397
1985.0 0.0395
1990.0 0.0393
1995.0 0.0392
2000.0 0.039
2005.0 0.0388
2010.0 0.0386
2015.0 0.0385
2020.0 0.0383
2025.0 0.0381
2030.0 0.038
2035.0 0.038
2040.0 0.038
2045.0 0.038
2050.0 0.038
2055.0 0.0379
2060.0 0.0379
2065.0 0.0379
2070.0 0.038
2075.0 0.0382
2080.0 0.0384
2085.0 0.0387
2090.0 0.0389
2095.0 0.0391
2100.0 0.0393
2105.0 0.0396
2110.0 0.0398
2115.0 0.0402
2120.0 0.0406
2125.0 0.0409
2130.0 0.0413
2135.0 0.0417
2140.0 0.042
2145.0 0.0424
2150.0 0.0427
2155.0 0.0431
2160.0 0.0434
2165.0 0.0438
2170.0 0.0441
2175.0 0.0444
2180.0 0.0448
2185.0 0.0451
2190.0 0.0453
2195.0 0.0455
2200.0 0.0456
2205.0 0.0458
2210.0 0.046
2215.0 0.0461
2220.0 0.0463
2225.0 0.0464
2230.0 0.0464
2235.0 0.0463
2240.0 0.0462
2245.0 0.0461
2250.0 0.046
2255.0 0.0459
2260.0 0.0458
2265.0 0.0457
2270.0 0.0455
2275.0 0.0453
2280.0 0.0451
2285.0 0.0449
2290.0 0.0447
2295.0 0.0446
2300.0 0.0444
2305.0 0.0442
2310.0 0.0441
2315.0 0.0441
2320.0 0.0441
2325.0 0.044
2330.0 0.044
2335.0 0.044
2340.0 0.044
2345.0 0.0439
2350.0 0.0441
2355.0 0.0444
2360.0 0.0447
2365.0 0.045
2370.0 0.0453
2375.0 0.0456
2380.0 0.0459
2385.0 0.0461
2390.0 0.0467
2395.0 0.0473
2400.0 0.0479
2405.0 0.0485
2410.0 0.0491
2415.0 0.0497
2420.0 0.0503
2425.0 0.0509
2430.0 0.0515
2435.0 0.0522
2440.0 0.0529
2445.0 0.0536
2450.0 0.0542
2455.0 0.0549
2460.0 0.0556
2465.0 0.0562
2470.0 0.0567
2475.0 0.0572
2480.0 0.0576
2485.0 0.0581
2490.0 0.0585
2495.0 0.059
2500.0 0.0594
2505.0 0.0599
2510.0 0.0601
2515.0 0.0604
2520.0 0.0606
2525.0 0.0608
2530.0 0.061
2535.0 0.0613
2540.0 0.0615
2545.0 0.0617
2550.0 0.0618
2555.0 0.0618
2560.0 0.0619
2565.0 0.0619
2570.0 0.062
2575.0 0.0621
2580.0 0.0621
2585.0 0.0622
2590.0 0.062
2595.0 0.0619
2600.0 0.0618
2605.0 0.0617
2610.0 0.0615
2615.0 0.0614
2620.0 0.0613
2625.0 0.0612
2630.0 0.061
2635.0 0.0609
2640.0 0.0607
2645.0 0.0606
2650.0 0.0604
2655.0 0.0602
2660.0 0.0601
2665.0 0.06
2670.0 0.0599
2675.0 0.0599
2680.0 0.0598
2685.0 0.0598
2690.0 0.0597
2695.0 0.0597
2700.0 0.0597
2705.0 0.0597
2710.0 0.06
2715.0 0.0603
2720.0 0.0607
2725.0 0.061
2730.0 0.0613
2735.0 0.0616
2740.0 0.062
2745.0 0.0624
2750.0 0.0632
2755.0 0.064
2760.0 0.0648
2765.0 0.0655
2770.0 0.0663
2775.0 0.0671
2780.0 0.0679
2785.0 0.0687
2790.0 0.0696
2795.0 0.0706
2800.0 0.0715
2805.0 0.0724
2810.0 0.0734
2815.0 0.0743
2820.0 0.0752
2825.0 0.076
2830.0 0.0766
2835.0 0.0772
2840.0 0.0777
2845.0 0.0783
2850.0 0.0789
2855.0 0.0795
2860.0 0.08
2865.0 0.0804
2870.0 0.0804
2875.0 0.0804
2880.0 0.0804
2885.0 0.0804
2890.0 0.0804
2895.0 0.0805
2900.0 0.0805
2905.0 0.0803
2910.0 0.08
2915.0 0.0797
2920.0 0.0794
2925.0 0.0791
2930.0 0.0787
2935.0 0.0784
2940.0 0.0781
2945.0 0.0777
2950.0 0.0772
2955.0 0.0767
2960.0 0.0763
2965.0 0.0758
2970.0 0.0753
2975.0 0.0748
2980.0 0.0743
2985.0 0.0738
2990.0 0.0732
2995.0 0.0726
3000.0 0.072
3005.0 0.0713
3010.0 0.0707
3015.0 0.07
3020.0 0.0694
3025.0 0.0687
3030.0 0.0681
3035.0 0.0675
3040.0 0.0669
3045.0 0.0664
3050.0 0.0659
3055.0 0.0655
3060.0 0.0651
3065.0 0.0648
3070.0 0.0646
3075.0 0.0645
3080.0 0.0644
3085.0 0.0644
3090.0 0.0644
3095.0 0.0645
3100.0 0.0646
3105.0 0.0648
3110.0 0.065
3115.0 0.0653
3120.0 0.0656
3125.0 0.0659
3130.0 0.0662
3135.0 0.0666
3140.0 0.067
3145.0 0.0673
3150.0 0.0677
3155.0 0.0681
3160.0 0.0685
3165.0 0.0688
3170.0 0.0692
3175.0 0.0695
3180.0 0.0698
3185.0 0.0702
3190.0 0.0704
3195.0 0.0707
3200.0 0.0709
3205.0 0.0711
3210.0 0.0713
3215.0 0.0714
3220.0 0.0716
3225.0 0.0716
3230.0 0.0717
3235.0 0.0717
3240.0 0.0717
3245.0 0.0716
3250.0 0.0716
3255.0 0.0715
3260.0 0.0714
3265.0 0.0713
3270.0 0.0711
3275.0 0.071
3280.0 0.0709
3285.0 0.0707
3290.0 0.0706
3295.0 0.0704
3300.0 0.0702
3305.0 0.0701
3310.0 0.0699
3315.0 0.0698
3320.0 0.0697
3325.0 0.0696
3330.0 0.0695
3335.0 0.0695
3340.0 0.0694
3345.0 0.0694
3350.0 0.0695
3355.0 0.0696
3360.0 0.0697
3365.0 0.0699
3370.0 0.0702
3375.0 0.0705
3380.0 0.074
3385.0 0.0898
3390.0 0.0887
3395.0 0.0872
3400.0 0.0857
3405.0 0.0845
3410.0 0.0831
3415.0 0.0821
3420.0 0.0814
3425.0 0.0807
3430.0 0.08
3435.0 0.0797
3440.0 0.0796
3445.0 0.0795
3450.0 0.0794
3455.0 0.0792
3460.0 0.0793
3465.0 0.0795
3470.0 0.0799
3475.0 0.0804
3480.0 0.0806
3485.0 0.0807
3490.0 0.0812
3495.0 0.0814
3500.0 0.0816
3505.0 0.0819
3510.0 0.082
3515.0 0.0821
3520.0 0.082
3525.0 0.082
3530.0 0.082
3535.0 0.0819
3540.0 0.0816
3545.0 0.0812
3550.0 0.0811
3555.0 0.0804
3560.0 0.0801
3565.0 0.0795
3570.0 0.0789
3575.0 0.0782
3580.0 0.0778
3585.0 0.0775
3590.0 0.0774
3595.0 0.0773
3600.0 0.0773
3605.0 0.0776
3610.0 0.078
3615.0 0.0785
3620.0 0.0793
3625.0 0.0801
3630.0 0.0809
3635.0 0.0817
3640.0 0.0825
3645.0 0.0831
3650.0 0.0835
3655.0 0.0832
3660.0 0.0827
3665.0 0.0823
3670.0 0.0817
3675.0 0.0809
3680.0 0.0799
3685.0 0.0789
3690.0 0.0778
3695.0 0.0769
3700.0 0.0758
3705.0 0.0746
3710.0 0.0736
3715.0 0.073
3720.0 0.0723
3725.0 0.0718
3730.0 0.0712
3735.0 0.0709
3740.0 0.0708
3745.0 0.0709
3750.0 0.0711
3755.0 0.0715
3760.0 0.0718
3765.0 0.0723
3770.0 0.0729
3775.0 0.0734
3780.0 0.074
3785.0 0.0745
3790.0 0.0749
3795.0 0.075
3800.0 0.0751
3805.0 0.0753
3810.0 0.0756
3815.0 0.0757
3820.0 0.076
3825.0 0.0761
3830.0 0.0761
3835.0 0.0762
3840.0 0.0762
3845.0 0.076
3850.0 0.0759
3855.0 0.0761
3860.0 0.0765
3865.0 0.0767
3870.0 0.0767
3875.0 0.0765
3880.0 0.0767
3885.0 0.0771
3890.0 0.0776
3895.0 0.0781
3900.0 0.0787
3905.0 0.0792
3910.0 0.0798
3915.0 0.0802
3920.0 0.0804
3925.0 0.0806
3930.0 0.0805
3935.0 0.0804
3940.0 0.08
3945.0 0.0797
3950.0 0.0793
3955.0 0.079
3960.0 0.0785
3965.0 0.078
3970.0 0.0775
3975.0 0.0771
3980.0 0.0767
3985.0 0.0766
3990.0 0.0765
3995.0 0.0767
4000.0 0.0769
4005.0 0.0772
4010.0 0.0774
4015.0 0.0775
4020.0 0.0777
4025.0 0.0781
4030.0 0.0784
4035.0 0.0788
4040.0 0.0791
4045.0 0.0793
4050.0 0.0794
4055.0 0.0794
4060.0 0.0794
4065.0 0.0794
4070.0 0.0795
4075.0 0.0796
4080.0 0.0795
4085.0 0.0795
4090.0 0.0796
4095.0 0.0796
4100.0 0.0798
4105.0 0.0797
4110.0 0.0793
4115.0 0.0788
4120.0 0.0783
4125.0 0.0779
4130.0 0.0773
4135.0 0.0767
4140.0 0.0761
4145.0 0.0753
4150.0 0.0744
4155.0 0.0737
4160.0 0.0729
4165.0 0.072
4170.0 0.0711
4175.0 0.0702
4180.0 0.0693
4185.0 0.0686
4190.0 0.068
4195.0 0.0674
4200.0 0.0668
4205.0 0.0663
4210.0 0.0658
4215.0 0.0654
4220.0 0.0652
4225.0 0.065
4230.0 0.065
4235.0 0.065
4240.0 0.0651
4245.0 0.0653
4250.0 0.0654
4255.0 0.0652
4260.0 0.065
4265.0 0.0648
4270.0 0.0644
4275.0 0.0639
4280.0 0.0632
4285.0 0.0624
4290.0 0.0618
4295.0 0.0615
4300.0 0.0615
4305.0 0.0617
4310.0 0.062
4315.0 0.0623
4320.0 0.0626
4325.0 0.0629
4330.0 0.0634
4335.0 0.0638
4340.0 0.0643
4345.0 0.0646
4350.0 0.0648
4355.0 0.0649
4360.0 0.0649
4365.0 0.0649
4370.0 0.0647
4375.0 0.0644
4380.0 0.0641
4385.0 0.0639
4390.0 0.0637
4395.0 0.0636
4400.0 0.0637
4405.0 0.0639
4410.0 0.0641
4415.0 0.0645
4420.0 0.0648
4425.0 0.0649
4430.0 0.0648
4435.0 0.0649
4440.0 0.065
4445.0 0.0652
4450.0 0.0654
4455.0 0.0657
4460.0 0.0661
4465.0 0.0664
4470.0 0.0669
4475.0 0.0674
4480.0 0.0678
4485.0 0.0683
4490.0 0.0685
4495.0 0.0686
4500.0 0.0688
4505.0 0.069
4510.0 0.0691
4515.0 0.069
4520.0 0.0687
4525.0 0.0685
4530.0 0.0682
4535.0 0.0681
4540.0 0.068
4545.0 0.0679
4550.0 0.0677
4555.0 0.0676
4560.0 0.0675
4565.0 0.0672
4570.0 0.067
4575.0 0.0669
4580.0 0.0668
4585.0 0.0667
4590.0 0.0665
4595.0 0.0663
4600.0 0.0658
4605.0 0.0653
4610.0 0.0648
4615.0 0.0642
4620.0 0.0636
4625.0 0.063
4630.0 0.0623
4635.0 0.0614
4640.0 0.0606
4645.0 0.06
4650.0 0.0593
4655.0 0.0589
4660.0 0.0582
4665.0 0.0575
4670.0 0.0568
4675.0 0.0562
4680.0 0.0557
4685.0 0.0553
4690.0 0.0549
4695.0 0.0546
4700.0 0.0543
4705.0 0.054
4710.0 0.0537
4715.0 0.0535
4720.0 0.0534
4725.0 0.0534
4730.0 0.0534
4735.0 0.0535
4740.0 0.0537
4745.0 0.0539
4750.0 0.0541
4755.0 0.0543
4760.0 0.0545
4765.0 0.0548
4770.0 0.055
4775.0 0.0552
4780.0 0.0553
4785.0 0.0552
4790.0 0.055
4795.0 0.0548
4800.0 0.0546
4805.0 0.0543
4810.0 0.0542
4815.0 0.0544
4820.0 0.055
4825.0 0.0559
4830.0 0.057
4835.0 0.0583
4840.0 0.0595
4845.0 0.0607
4850.0 0.0619
4855.0 0.0626
4860.0 0.063
4865.0 0.0632
4870.0 0.0632
4875.0 0.0628
4880.0 0.0622
4885.0 0.0613
4890.0 0.0604
4895.0 0.0593
4900.0 0.058
4905.0 0.0568
4910.0 0.0557
4915.0 0.0548
4920.0 0.0543
4925.0 0.0539
4930.0 0.0536
4935.0 0.0535
4940.0 0.0533
4945.0 0.0529
4950.0 0.0523
4955.0 0.0518
4960.0 0.0512
4965.0 0.0508
4970.0 0.0505
4975.0 0.0502
4980.0 0.0501
4985.0 0.05
4990.0 0.0501
4995.0 0.0502
5000.0 0.0501
5005.0 0.05
5010.0 0.05
5015.0 0.05
5020.0 0.05
5025.0 0.0499
5030.0 0.0499
5035.0 0.0499
5040.0 0.0498
5045.0 0.0498
5050.0 0.0497
5055.0 0.0497
5060.0 0.0496
5065.0 0.0496
5070.0 0.0496
5075.0 0.0496
5080.0 0.0497
5085.0 0.0498
5090.0 0.0499
5095.0 0.05
5100.0 0.0501
5105.0 0.0501
5110.0 0.0502
5115.0 0.0502
5120.0 0.0503
5125.0 0.0503
5130.0 0.0503
5135.0 0.0503
5140.0 0.0503
5145.0 0.0504
5150.0 0.0504
5155.0 0.0505
5160.0 0.0506
5165.0 0.0507
5170.0 0.0508
5175.0 0.0508
5180.0 0.0509
5185.0 0.0509
5190.0 0.0509
5195.0 0.0509
5200.0 0.0509
5205.0 0.0509
5210.0 0.0508
5215.0 0.0506
5220.0 0.0506
5225.0 0.0506
5230.0 0.0506
5235.0 0.0506
5240.0 0.0507
5245.0 0.0507
5250.0 0.0507
5255.0 0.0507
5260.0 0.0507
5265.0 0.0506
5270.0 0.0505
5275.0 0.0504
5280.0 0.0503
5285.0 0.0503
5290.0 0.0502
5295.0 0.0501
5300.0 0.05
5305.0 0.0498
5310.0 0.0498
5315.0 0.0497
5320.0 0.0496
5325.0 0.0495
5330.0 0.0494
5335.0 0.0493
5340.0 0.0492
5345.0 0.0491
5350.0 0.049
5355.0 0.0487
5360.0 0.0485
5365.0 0.0484
5370.0 0.0482
5375.0 0.0481
5380.0 0.048
5385.0 0.0479
5390.0 0.0479
5395.0 0.0479
5400.0 0.048
5405.0 0.048
5410.0 0.048
5415.0 0.048
5420.0 0.048
5425.0 0.0479
5430.0 0.0478
5435.0 0.0476
5440.0 0.0474
5445.0 0.047
5450.0 0.0468
5455.0 0.0465
5460.0 0.0462
5465.0 0.046
5470.0 0.0456
5475.0 0.0454
5480.0 0.0452
5485.0 0.0451
5490.0 0.045
5495.0 0.0449
5500.0 0.0448
5505.0 0.0448
5510.0 0.0447
5515.0 0.0445
5520.0 0.0443
5525.0 0.044
5530.0 0.0438
5535.0 0.0435
5540.0 0.0433
5545.0 0.0431
5550.0 0.0428
5555.0 0.0425
5560.0 0.0422
5565.0 0.0419
5570.0 0.0416
5575.0 0.0412
5580.0 0.0409
5585.0 0.0405
5590.0 0.0401
5595.0 0.0397
5600.0 0.0392
5605.0 0.0387
5610.0 0.0382
5615.0 0.0376
5620.0 0.0371
5625.0 0.0366
5630.0 0.0362
5635.0 0.0359
5640.0 0.0356
5645.0 0.0354
5650.0 0.0353
5655.0 0.0353
5660.0 0.0353
5665.0 0.0353
5670.0 0.0354
5675.0 0.0356
5680.0 0.0358
5685.0 0.036
5690.0 0.0362
5695.0 0.0364
5700.0 0.0366
5705.0 0.0368
5710.0 0.037
5715.0 0.0372
5720.0 0.0374
5725.0 0.0377
5730.0 0.0379
5735.0 0.0381
5740.0 0.0383
5745.0 0.0386
5750.0 0.0388
5755.0 0.039
5760.0 0.0392
5765.0 0.0394
5770.0 0.0396
5775.0 0.0398
5780.0 0.0399
5785.0 0.0399
5790.0 0.0399
5795.0 0.0399
5800.0 0.0399
5805.0 0.0399
5810.0 0.0399
5815.0 0.0398
5820.0 0.0398
5825.0 0.0397
5830.0 0.0396
5835.0 0.0395
5840.0 0.0395
5845.0 0.0396
5850.0 0.0397
5855.0 0.0398
5860.0 0.04
5865.0 0.0401
5870.0 0.0402
5875.0 0.0403
5880.0 0.0403
5885.0 0.0403
5890.0 0.0402
5895.0 0.0401
5900.0 0.04
5905.0 0.0398
5910.0 0.0396
5915.0 0.0394
5920.0 0.0391
5925.0 0.0388
5930.0 0.0385
5935.0 0.0383
5940.0 0.0381
5945.0 0.038
5950.0 0.0379
5955.0 0.0378
5960.0 0.0378
5965.0 0.0377
5970.0 0.0376
5975.0 0.0375
5980.0 0.0374
5985.0 0.0373
5990.0 0.0372
5995.0 0.0371
6000.0 0.037
6005.0 0.0369
6010.0 0.0368
6015.0 0.0367
6020.0 0.0366
6025.0 0.0364
6030.0 0.0363
6035.0 0.0362
6040.0 0.0361
6045.0 0.036
6050.0 0.0359
6055.0 0.0358
6060.0 0.0357
6065.0 0.0355
6070.0 0.0354
6075.0 0.0353
6080.0 0.0352
6085.0 0.035
6090.0 0.0349
6095.0 0.0348
6100.0 0.0347
6105.0 0.0346
6110.0 0.0345
6115.0 0.0344
6120.0 0.0344
6125.0 0.0343
6130.0 0.0343
6135.0 0.0342
6140.0 0.0341
6145.0 0.034
6150.0 0.0339
6155.0 0.0338
6160.0 0.0337
6165.0 0.0335
6170.0 0.0333
6175.0 0.0332
6180.0 0.033
6185.0 0.0328
6190.0 0.0326
6195.0 0.0325
6200.0 0.0323
6205.0 0.0322
6210.0 0.032
6215.0 0.0318
6220.0 0.0317
6225.0 0.0314
6230.0 0.0312
6235.0 0.031
6240.0 0.0307
6245.0 0.0305
6250.0 0.0302
6255.0 0.0299
6260.0 0.0296
6265.0 0.0293
6270.0 0.0291
6275.0 0.029
6280.0 0.0288
6285.0 0.0287
6290.0 0.0285
6295.0 0.0285
6300.0 0.0285
6305.0 0.0285
6310.0 0.0286
6315.0 0.0286
6320.0 0.0287
6325.0 0.0287
6330.0 0.0287
6335.0 0.0288
6340.0 0.0288
6345.0 0.0289
6350.0 0.029
6355.0 0.029
6360.0 0.029
6365.0 0.0291
6370.0 0.0291
6375.0 0.0292
6380.0 0.0293
6385.0 0.0295
6390.0 0.0296
6395.0 0.0297
6400.0 0.0299
6405.0 0.0302
6410.0 0.0305
6415.0 0.0308
6420.0 0.0312
6425.0 0.0316
6430.0 0.032
6435.0 0.0324
6440.0 0.0328
6445.0 0.0332
6450.0 0.0337
6455.0 0.0341
6460.0 0.0345
6465.0 0.0348
6470.0 0.0352
6475.0 0.0355
6480.0 0.0359
6485.0 0.0358
6490.0 0.0355
6495.0 0.0351
6500.0 0.0348
6505.0 0.0343
6510.0 0.0341
6515.0 0.0346
6520.0 0.036
6525.0 0.038
6530.0 0.0405
6535.0 0.0433
6540.0 0.0462
6545.0 0.0489
6550.0 0.0513
6555.0 0.0532
6560.0 0.0545
6565.0 0.0551
6570.0 0.055
6575.0 0.0541
6580.0 0.0525
6585.0 0.0503
6590.0 0.0477
6595.0 0.0447
6600.0 0.0417
6605.0 0.0389
6610.0 0.0365
6615.0 0.0347
6620.0 0.0337
6625.0 0.0332
6630.0 0.033
6635.0 0.0332
6640.0 0.0335
6645.0 0.0336
6650.0 0.0333
6655.0 0.0329
6660.0 0.0326
6665.0 0.0323
6670.0 0.032
6675.0 0.0318
6680.0 0.0316
6685.0 0.0313
6690.0 0.0311
6695.0 0.0308
6700.0 0.0305
6705.0 0.0303
6710.0 0.03
6715.0 0.0297
6720.0 0.0295
6725.0 0.0293
6730.0 0.029
6735.0 0.0288
6740.0 0.0286
6745.0 0.0284
6750.0 0.0282
6755.0 0.0278
6760.0 0.0276
6765.0 0.0277
6770.0 0.0278
6775.0 0.0278
6780.0 0.0277
6785.0 0.0275
6790.0 0.0273
6795.0 0.0269
6800.0 0.0265
6805.0 0.026
6810.0 0.0255
6815.0 0.025
6820.0 0.0245
6825.0 0.0241
6830.0 0.0237
6835.0 0.0234
6840.0 0.0233
6845.0 0.0233
6850.0 0.0234
6855.0 0.0237
6860.0 0.024
6865.0 0.0245
6870.0 0.0249
6875.0 0.0254
6880.0 0.0259
6885.0 0.0264
6890.0 0.0267
6895.0 0.0267
6900.0 0.0266
6905.0 0.0267
6910.0 0.0269
6915.0 0.027
6920.0 0.0269
6925.0 0.0269
6930.0 0.0268
6935.0 0.0267
6940.0 0.0266
6945.0 0.0265
6950.0 0.0264
6955.0 0.0263
6960.0 0.0262
6965.0 0.0261
6970.0 0.0259
6975.0 0.0258
6980.0 0.0257
6985.0 0.0256
6990.0 0.0255
6995.0 0.0255
7000.0 0.0255
7005.0 0.0255
7010.0 0.0255
7015.0 0.0254
7020.0 0.0254
7025.0 0.0255
7030.0 0.0255
7035.0 0.0255
7040.0 0.0256
7045.0 0.0256
7050.0 0.0256
7055.0 0.0256
7060.0 0.0257
7065.0 0.0257
7070.0 0.0257
7075.0 0.0258
7080.0 0.0258
7085.0 0.0258
7090.0 0.0258
7095.0 0.0257
7100.0 0.0256
7105.0 0.0254
7110.0 0.0251
7115.0 0.0247
7120.0 0.0244
7125.0 0.0241
7130.0 0.0239
7135.0 0.0237
7140.0 0.0236
7145.0 0.0235
7150.0 0.0235
7155.0 0.0234
7160.0 0.0234
7165.0 0.0235
7170.0 0.0236
7175.0 0.0236
7180.0 0.0237
7185.0 0.0237
7190.0 0.0237
7195.0 0.0237
7200.0 0.0236
7205.0 0.0235
7210.0 0.0234
7215.0 0.0232
7220.0 0.0231
7225.0 0.023
7230.0 0.0229
7235.0 0.023
7240.0 0.0231
7245.0 0.0232
7250.0 0.0232
7255.0 0.0232
7260.0 0.0232
7265.0 0.0232
7270.0 0.0233
7275.0 0.0233
7280.0 0.0234
7285.0 0.0235
7290.0 0.0235
7295.0 0.0236
7300.0 0.0236
7305.0 0.0236
7310.0 0.0236
7315.0 0.0236
7320.0 0.0235
7325.0 0.0235
7330.0 0.0234
7335.0 0.0234
7340.0 0.0234
7345.0 0.0233
7350.0 0.0233
7355.0 0.0233
7360.0 0.0232
7365.0 0.0232
7370.0 0.0232
7375.0 0.0231
7380.0 0.0231
7385.0 0.023
7390.0 0.023
7395.0 0.0229
7400.0 0.0228
7405.0 0.0228
7410.0 0.0227
7415.0 0.0227
7420.0 0.0226
7425.0 0.0225
7430.0 0.0225
7435.0 0.0224
7440.0 0.0224
7445.0 0.0224
7450.0 0.0223
7455.0 0.0222
7460.0 0.0222
7465.0 0.0221
7470.0 0.0221
7475.0 0.0219
7480.0 0.0215
7485.0 0.0215
7490.0 0.0218
7495.0 0.0224
7500.0 0.023
7505.0 0.0231
7510.0 0.0227
7515.0 0.0222
7520.0 0.0214
7525.0 0.0205
7530.0 0.0195
7535.0 0.0182
7540.0 0.0168
7545.0 0.0153
7550.0 0.0138
7555.0 0.0125
7560.0 0.0113
7565.0 0.0104
7570.0 0.00977
7575.0 0.0095
7580.0 0.00965
7585.0 0.0102
7590.0 0.0111
7595.0 0.0122
7600.0 0.0135
7605.0 0.0149
7610.0 0.0162
7615.0 0.0172
7620.0 0.0177
7625.0 0.018
7630.0 0.0184
7635.0 0.019
7640.0 0.0197
7645.0 0.0202
7650.0 0.0202
7655.0 0.0202
7660.0 0.0201
7665.0 0.0201
7670.0 0.0201
7675.0 0.0201
7680.0 0.0201
7685.0 0.0201
7690.0 0.0202
7695.0 0.0202
7700.0 0.0202
7705.0 0.0201
7710.0 0.02
7715.0 0.02
7720.0 0.0199
7725.0 0.0199
7730.0 0.0199
7735.0 0.0198
7740.0 0.0198
7745.0 0.0197
7750.0 0.0197
7755.0 0.0196
7760.0 0.0196
7765.0 0.0195
7770.0 0.0195
7775.0 0.0195
7780.0 0.0195
7785.0 0.0194
7790.0 0.0193
7795.0 0.0193
7800.0 0.0193
7805.0 0.0192
7810.0 0.0191
7815.0 0.019
7820.0 0.019
7825.0 0.0189
7830.0 0.0188
7835.0 0.0187
7840.0 0.0187
7845.0 0.0187
7850.0 0.0186
7855.0 0.0186
7860.0 0.0185
7865.0 0.0185
7870.0 0.0185
7875.0 0.0184
7880.0 0.0184
7885.0 0.0184
7890.0 0.0184
7895.0 0.0184
7900.0 0.0183
7905.0 0.0183
7910.0 0.0182
7915.0 0.0181
7920.0 0.0181
7925.0 0.018
7930.0 0.0179
7935.0 0.0179
7940.0 0.0178
7945.0 0.0178
7950.0 0.0177
7955.0 0.0177
7960.0 0.0177
7965.0 0.0177
7970.0 0.0176
7975.0 0.0176
7980.0 0.0175
7985.0 0.0175
7990.0 0.0174
7995.0 0.0174
8000.0 0.0173
8005.0 0.0173
8010.0 0.0172
8015.0 0.0171
8020.0 0.017
8025.0 0.017
8030.0 0.017
8035.0 0.0169
8040.0 0.0169
8045.0 0.0168
8050.0 0.0168
8055.0 0.0167
8060.0 0.0166
8065.0 0.0165
8070.0 0.0164
8075.0 0.0163
8080.0 0.0161
8085.0 0.0159
8090.0 0.0157
8095.0 0.0155
8100.0 0.0153
8105.0 0.0151
8110.0 0.015
8115.0 0.0149
8120.0 0.0149
8125.0 0.0149
8130.0 0.0149
8135.0 0.015
8140.0 0.0151
8145.0 0.0152
8150.0 0.0153
8155.0 0.0153
8160.0 0.0154
8165.0 0.0155
8170.0 0.0156
8175.0 0.0156
8180.0 0.0156
8185.0 0.0156
8190.0 0.0156
8195.0 0.0156
8200.0 0.0155
8205.0 0.0155
8210.0 0.0154
8215.0 0.0154
8220.0 0.0153
8225.0 0.0153
8230.0 0.0153
8235.0 0.0152
8240.0 0.0152
8245.0 0.0152
8250.0 0.0151
8255.0 0.0151
8260.0 0.0151
8265.0 0.0151
8270.0 0.0151
8275.0 0.0152
8280.0 0.0153
8285.0 0.0153
8290.0 0.0153
8295.0 0.0154
8300.0 0.0154
8305.0 0.0155
8310.0 0.0156
8315.0 0.0156
8320.0 0.0156
8325.0 0.0156
8330.0 0.0157
8335.0 0.0157
8340.0 0.0158
8345.0 0.0158
8350.0 0.0158
8355.0 0.0158
8360.0 0.0158
8365.0 0.0158
8370.0 0.0158
8375.0 0.0157
8380.0 0.0157
8385.0 0.0157
8390.0 0.0157
8395.0 0.0157
8400.0 0.0157
8405.0 0.0157
8410.0 0.0158
8415.0 0.0158
8420.0 0.0159
8425.0 0.016
8430.0 0.0161
8435.0 0.0161
8440.0 0.0161
8445.0 0.0161
8450.0 0.0161
8455.0 0.0162
8460.0 0.0162
8465.0 0.0161
8470.0 0.0161
8475.0 0.016
8480.0 0.0159
8485.0 0.0158
8490.0 0.0158
8495.0 0.0157
8500.0 0.0157
8505.0 0.0158
8510.0 0.0158
8515.0 0.0159
8520.0 0.0159
8525.0 0.0158
8530.0 0.0159
8535.0 0.0159
8540.0 0.0159
8545.0 0.0159
8550.0 0.0158
8555.0 0.0158
8560.0 0.0157
8565.0 0.0157
8570.0 0.0157
8575.0 0.0156
8580.0 0.0155
8585.0 0.0153
8590.0 0.0152
8595.0 0.0152
8600.0 0.0152
8605.0 0.0152
8610.0 0.0153
8615.0 0.0153
8620.0 0.0153
8625.0 0.0153
8630.0 0.0154
8635.0 0.0154
8640.0 0.0154
8645.0 0.0154
8650.0 0.0155
8655.0 0.0156
8660.0 0.0156
8665.0 0.0155
8670.0 0.0154
8675.0 0.0154
8680.0 0.0154
8685.0 0.0153
8690.0 0.0152
8695.0 0.0151
8700.0 0.015
8705.0 0.015
8710.0 0.015
8715.0 0.015
8720.0 0.015
8725.0 0.0151
8730.0 0.0152
8735.0 0.0153
8740.0 0.0153
8745.0 0.0154
8750.0 0.0155
8755.0 0.0155
8760.0 0.0155
8765.0 0.0155
8770.0 0.0154
8775.0 0.0153
8780.0 0.0152
8785.0 0.015
8790.0 0.015
8795.0 0.0149
