#lamb flux
1605.0 0.829
1610.0 0.838
1615.0 0.846
1620.0 0.855
1625.0 0.864
1630.0 0.872
1635.0 0.881
1640.0 0.89
1645.0 0.899
1650.0 0.908
1655.0 0.917
1660.0 0.926
1665.0 0.935
1670.0 0.944
1675.0 0.954
1680.0 0.963
1685.0 0.972
1690.0 0.981
1695.0 0.991
1700.0 1.0
1705.0 1.01
1710.0 1.02
1715.0 1.03
1720.0 1.04
1725.0 1.05
1730.0 1.06
1735.0 1.07
1740.0 1.08
1745.0 1.09
1750.0 1.1
1755.0 1.11
1760.0 1.12
1765.0 1.13
1770.0 1.14
1775.0 1.15
1780.0 1.16
1785.0 1.17
1790.0 1.18
1795.0 1.19
1800.0 1.2
1805.0 1.21
1810.0 1.22
1815.0 1.23
1820.0 1.24
1825.0 1.25
1830.0 1.26
1835.0 1.27
1840.0 1.29
1845.0 1.3
1850.0 1.31
1855.0 1.32
1860.0 1.33
1865.0 1.34
1870.0 1.35
1875.0 1.36
1880.0 1.37
1885.0 1.38
1890.0 1.39
1895.0 1.4
1900.0 1.41
1905.0 1.42
1910.0 1.43
1915.0 1.44
1920.0 1.45
1925.0 1.46
1930.0 1.47
1935.0 1.48
1940.0 1.49
1945.0 1.5
1950.0 1.51
1955.0 1.52
1960.0 1.53
1965.0 1.54
1970.0 1.55
1975.0 1.56
1980.0 1.57
1985.0 1.58
1990.0 1.59
1995.0 1.6
2000.0 1.61
2005.0 1.61
2010.0 1.62
2015.0 1.63
2020.0 1.64
2025.0 1.64
2030.0 1.65
2035.0 1.66
2040.0 1.67
2045.0 1.67
2050.0 1.68
2055.0 1.68
2060.0 1.69
2065.0 1.69
2070.0 1.7
2075.0 1.7
2080.0 1.71
2085.0 1.71
2090.0 1.71
2095.0 1.72
2100.0 1.72
2105.0 1.72
2110.0 1.72
2115.0 1.73
2120.0 1.73
2125.0 1.73
2130.0 1.73
2135.0 1.73
2140.0 1.73
2145.0 1.73
2150.0 1.73
2155.0 1.73
2160.0 1.73
2165.0 1.73
2170.0 1.73
2175.0 1.72
2180.0 1.72
2185.0 1.72
2190.0 1.72
2195.0 1.71
2200.0 1.71
2205.0 1.71
2210.0 1.7
2215.0 1.7
2220.0 1.69
2225.0 1.69
2230.0 1.68
2235.0 1.68
2240.0 1.67
2245.0 1.67
2250.0 1.66
2255.0 1.66
2260.0 1.65
2265.0 1.64
2270.0 1.63
2275.0 1.63
2280.0 1.62
2285.0 1.61
2290.0 1.6
2295.0 1.6
2300.0 1.59
2305.0 1.58
2310.0 1.57
2315.0 1.56
2320.0 1.55
2325.0 1.54
2330.0 1.53
2335.0 1.53
2340.0 1.52
2345.0 1.51
2350.0 1.5
2355.0 1.49
2360.0 1.48
2365.0 1.47
2370.0 1.46
2375.0 1.45
2380.0 1.44
2385.0 1.42
2390.0 1.41
2395.0 1.4
2400.0 1.39
2405.0 1.38
2410.0 1.37
2415.0 1.36
2420.0 1.35
2425.0 1.34
2430.0 1.33
2435.0 1.32
2440.0 1.31
2445.0 1.3
2450.0 1.29
2455.0 1.28
2460.0 1.27
2465.0 1.26
2470.0 1.25
2475.0 1.24
2480.0 1.23
2485.0 1.22
2490.0 1.21
2495.0 1.2
2500.0 1.19
2505.0 1.18
2510.0 1.17
2515.0 1.16
2520.0 1.15
2525.0 1.14
2530.0 1.13
2535.0 1.13
2540.0 1.12
2545.0 1.11
2550.0 1.1
2555.0 1.09
2560.0 1.08
2565.0 1.08
2570.0 1.07
2575.0 1.06
2580.0 1.06
2585.0 1.05
2590.0 1.04
2595.0 1.03
2600.0 1.03
2605.0 1.02
2610.0 1.02
2615.0 1.01
2620.0 1.0
2625.0 0.997
2630.0 0.991
2635.0 0.985
2640.0 0.98
2645.0 0.975
2650.0 0.969
2655.0 0.964
2660.0 0.959
2665.0 0.954
2670.0 0.948
2675.0 0.943
2680.0 0.939
2685.0 0.934
2690.0 0.929
2695.0 0.924
2700.0 0.92
2705.0 0.915
2710.0 0.91
2715.0 0.906
2720.0 0.901
2725.0 0.897
2730.0 0.893
2735.0 0.889
2740.0 0.884
2745.0 0.88
2750.0 0.876
2755.0 0.871
2760.0 0.867
2765.0 0.863
2770.0 0.859
2775.0 0.855
2780.0 0.851
2785.0 0.847
2790.0 0.843
2795.0 0.839
2800.0 0.836
2805.0 0.832
2810.0 0.828
2815.0 0.824
2820.0 0.821
2825.0 0.817
2830.0 0.813
2835.0 0.809
2840.0 0.806
2845.0 0.802
2850.0 0.799
2855.0 0.795
2860.0 0.792
2865.0 0.788
2870.0 0.785
2875.0 0.781
2880.0 0.778
2885.0 0.774
2890.0 0.771
2895.0 0.768
2900.0 0.764
2905.0 0.761
2910.0 0.758
2915.0 0.754
2920.0 0.751
2925.0 0.748
2930.0 0.745
2935.0 0.742
2940.0 0.738
2945.0 0.735
2950.0 0.732
2955.0 0.729
2960.0 0.726
2965.0 0.723
2970.0 0.719
2975.0 0.716
2980.0 0.713
2985.0 0.71
2990.0 0.707
2995.0 0.704
3000.0 0.701
3005.0 0.698
3010.0 0.695
3015.0 0.692
3020.0 0.689
3025.0 0.686
3030.0 0.683
3035.0 0.68
3040.0 0.677
3045.0 0.674
3050.0 0.671
3055.0 0.668
3060.0 0.665
3065.0 0.662
3070.0 0.659
3075.0 0.656
3080.0 0.653
3085.0 0.65
3090.0 0.647
3095.0 0.644
3100.0 0.641
3105.0 0.638
3110.0 0.635
3115.0 0.632
3120.0 0.629
3125.0 0.626
3130.0 0.622
3135.0 0.619
3140.0 0.616
3145.0 0.613
3150.0 0.61
3155.0 0.607
3160.0 0.604
3165.0 0.6
3170.0 0.597
3175.0 0.594
3180.0 0.591
3185.0 0.587
3190.0 0.584
3195.0 0.581
3200.0 0.577
3205.0 0.574
3210.0 0.571
3215.0 0.567
3220.0 0.564
3225.0 0.56
3230.0 0.557
3235.0 0.554
3240.0 0.55
3245.0 0.547
3250.0 0.543
3255.0 0.54
3260.0 0.536
3265.0 0.533
3270.0 0.529
3275.0 0.526
3280.0 0.522
3285.0 0.519
3290.0 0.515
3295.0 0.511
3300.0 0.508
3305.0 0.504
3310.0 0.501
3315.0 0.497
3320.0 0.494
3325.0 0.49
3330.0 0.487
3335.0 0.483
3340.0 0.48
3345.0 0.477
3350.0 0.473
3355.0 0.47
3360.0 0.467
3365.0 0.463
3370.0 0.46
3375.0 0.457
3380.0 0.454
3385.0 0.45
3390.0 0.447
3395.0 0.444
3400.0 0.441
3405.0 0.439
3410.0 0.436
3415.0 0.433
3420.0 0.431
3425.0 0.428
3430.0 0.426
3435.0 0.423
3440.0 0.421
3445.0 0.419
3450.0 0.417
3455.0 0.415
3460.0 0.412
3465.0 0.411
3470.0 0.409
3475.0 0.407
3480.0 0.405
3485.0 0.403
3490.0 0.401
3495.0 0.399
3500.0 0.398
3505.0 0.396
3510.0 0.394
3515.0 0.393
3520.0 0.391
3525.0 0.39
3530.0 0.388
3535.0 0.387
3540.0 0.385
3545.0 0.384
3550.0 0.383
3555.0 0.381
3560.0 0.38
3565.0 0.379
3570.0 0.378
3575.0 0.377
3580.0 0.375
3585.0 0.374
3590.0 0.373
3595.0 0.372
3600.0 0.371
3605.0 0.37
3610.0 0.369
3615.0 0.367
3620.0 0.366
3625.0 0.365
3630.0 0.363
3635.0 0.362
3640.0 0.361
3645.0 0.359
3650.0 0.357
3655.0 0.356
3660.0 0.354
3665.0 0.352
3670.0 0.35
3675.0 0.348
3680.0 0.346
3685.0 0.344
3690.0 0.342
3695.0 0.339
3700.0 0.337
3705.0 0.335
3710.0 0.332
3715.0 0.33
3720.0 0.327
3725.0 0.324
3730.0 0.322
3735.0 0.319
3740.0 0.317
3745.0 0.314
3750.0 0.312
3755.0 0.309
3760.0 0.307
3765.0 0.305
3770.0 0.303
3775.0 0.3
3780.0 0.298
3785.0 0.296
3790.0 0.295
3795.0 0.293
3800.0 0.291
3805.0 0.289
3810.0 0.288
3815.0 0.286
3820.0 0.285
3825.0 0.283
3830.0 0.282
3835.0 0.281
3840.0 0.279
3845.0 0.278
3850.0 0.277
3855.0 0.276
3860.0 0.275
3865.0 0.273
3870.0 0.272
3875.0 0.271
3880.0 0.27
3885.0 0.269
3890.0 0.268
3895.0 0.268
3900.0 0.267
3905.0 0.266
3910.0 0.265
3915.0 0.264
3920.0 0.263
3925.0 0.262
3930.0 0.261
3935.0 0.26
3940.0 0.259
3945.0 0.258
3950.0 0.257
3955.0 0.256
3960.0 0.255
3965.0 0.253
3970.0 0.252
3975.0 0.25
3980.0 0.248
3985.0 0.247
3990.0 0.245
3995.0 0.243
4000.0 0.241
4005.0 0.239
4010.0 0.237
4015.0 0.235
4020.0 0.233
4025.0 0.231
4030.0 0.229
4035.0 0.228
4040.0 0.226
4045.0 0.224
4050.0 0.223
4055.0 0.221
4060.0 0.22
4065.0 0.219
4070.0 0.217
4075.0 0.216
4080.0 0.215
4085.0 0.213
4090.0 0.212
4095.0 0.211
4100.0 0.21
4105.0 0.208
4110.0 0.207
4115.0 0.206
4120.0 0.204
4125.0 0.203
4130.0 0.202
4135.0 0.2
4140.0 0.199
4145.0 0.198
4150.0 0.196
4155.0 0.195
4160.0 0.194
4165.0 0.193
4170.0 0.192
4175.0 0.191
4180.0 0.19
4185.0 0.189
4190.0 0.188
4195.0 0.188
4200.0 0.187
4205.0 0.187
4210.0 0.186
4215.0 0.186
4220.0 0.185
4225.0 0.185
4230.0 0.185
4235.0 0.184
4240.0 0.184
4245.0 0.184
4250.0 0.184
4255.0 0.185
4260.0 0.185
4265.0 0.186
4270.0 0.186
4275.0 0.187
4280.0 0.188
4285.0 0.189
4290.0 0.189
4295.0 0.19
4300.0 0.191
4305.0 0.191
4310.0 0.191
4315.0 0.191
4320.0 0.19
4325.0 0.188
4330.0 0.187
4335.0 0.185
4340.0 0.183
4345.0 0.182
4350.0 0.18
4355.0 0.178
4360.0 0.177
4365.0 0.175
4370.0 0.174
4375.0 0.172
4380.0 0.171
4385.0 0.17
4390.0 0.169
4395.0 0.168
4400.0 0.167
4405.0 0.166
4410.0 0.165
4415.0 0.164
4420.0 0.163
4425.0 0.163
4430.0 0.162
4435.0 0.161
4440.0 0.161
4445.0 0.16
4450.0 0.159
4455.0 0.159
4460.0 0.158
4465.0 0.158
4470.0 0.157
4475.0 0.157
4480.0 0.156
4485.0 0.156
4490.0 0.155
4495.0 0.155
4500.0 0.154
4505.0 0.154
4510.0 0.153
4515.0 0.153
4520.0 0.153
4525.0 0.152
4530.0 0.152
4535.0 0.151
4540.0 0.151
4545.0 0.151
4550.0 0.15
4555.0 0.15
4560.0 0.15
4565.0 0.15
4570.0 0.15
4575.0 0.15
4580.0 0.15
4585.0 0.149
4590.0 0.149
4595.0 0.149
4600.0 0.149
4605.0 0.149
4610.0 0.149
4615.0 0.149
4620.0 0.149
4625.0 0.148
4630.0 0.148
4635.0 0.148
4640.0 0.147
4645.0 0.146
4650.0 0.146
4655.0 0.145
4660.0 0.144
4665.0 0.143
4670.0 0.142
4675.0 0.141
4680.0 0.14
4685.0 0.139
4690.0 0.138
4695.0 0.136
4700.0 0.135
4705.0 0.134
4710.0 0.132
4715.0 0.131
4720.0 0.13
4725.0 0.128
4730.0 0.127
4735.0 0.126
4740.0 0.125
4745.0 0.124
4750.0 0.123
4755.0 0.122
4760.0 0.121
4765.0 0.12
4770.0 0.12
4775.0 0.119
4780.0 0.118
4785.0 0.118
4790.0 0.117
4795.0 0.117
4800.0 0.117
4805.0 0.117
4810.0 0.116
4815.0 0.116
4820.0 0.116
4825.0 0.116
4830.0 0.116
4835.0 0.115
4840.0 0.115
4845.0 0.115
4850.0 0.115
4855.0 0.114
4860.0 0.114
4865.0 0.113
4870.0 0.113
4875.0 0.112
4880.0 0.112
4885.0 0.111
4890.0 0.111
4895.0 0.11
4900.0 0.109
4905.0 0.109
4910.0 0.108
4915.0 0.107
4920.0 0.107
4925.0 0.106
4930.0 0.106
4935.0 0.105
4940.0 0.104
4945.0 0.104
4950.0 0.103
4955.0 0.103
4960.0 0.103
4965.0 0.102
4970.0 0.102
4975.0 0.101
4980.0 0.101
4985.0 0.101
4990.0 0.1
4995.0 0.0999
5000.0 0.0996
5005.0 0.0992
5010.0 0.0989
5015.0 0.0986
5020.0 0.0983
5025.0 0.098
5030.0 0.0977
5035.0 0.0973
5040.0 0.097
5045.0 0.0966
5050.0 0.0963
5055.0 0.0959
5060.0 0.0955
5065.0 0.0951
5070.0 0.0948
5075.0 0.0944
5080.0 0.094
5085.0 0.0936
5090.0 0.0932
5095.0 0.0928
5100.0 0.0924
5105.0 0.092
5110.0 0.0917
5115.0 0.0913
5120.0 0.091
5125.0 0.0906
5130.0 0.0903
5135.0 0.09
5140.0 0.0896
5145.0 0.0893
5150.0 0.089
5155.0 0.0888
5160.0 0.0885
5165.0 0.0882
5170.0 0.0879
5175.0 0.0877
5180.0 0.0874
5185.0 0.0872
5190.0 0.0869
5195.0 0.0867
5200.0 0.0865
5205.0 0.0862
5210.0 0.0861
5215.0 0.0859
5220.0 0.0857
5225.0 0.0856
5230.0 0.0854
5235.0 0.0853
5240.0 0.0853
5245.0 0.0852
5250.0 0.0852
5255.0 0.0851
5260.0 0.0851
5265.0 0.0851
5270.0 0.085
5275.0 0.085
5280.0 0.085
5285.0 0.0849
5290.0 0.0849
5295.0 0.0848
5300.0 0.0847
5305.0 0.0846
5310.0 0.0845
5315.0 0.0844
5320.0 0.0843
5325.0 0.0843
5330.0 0.0842
5335.0 0.0842
5340.0 0.0841
5345.0 0.0841
5350.0 0.0841
5355.0 0.0841
5360.0 0.0841
5365.0 0.0841
5370.0 0.0841
5375.0 0.0841
5380.0 0.084
5385.0 0.0838
5390.0 0.0836
5395.0 0.0833
5400.0 0.083
5405.0 0.0826
5410.0 0.0821
5415.0 0.0816
5420.0 0.0811
5425.0 0.0806
5430.0 0.0801
5435.0 0.0796
5440.0 0.0791
5445.0 0.0787
5450.0 0.0783
5455.0 0.078
5460.0 0.0778
5465.0 0.0776
5470.0 0.0774
5475.0 0.0773
5480.0 0.0772
5485.0 0.0771
5490.0 0.0771
5495.0 0.077
5500.0 0.0769
5505.0 0.0767
5510.0 0.0766
5515.0 0.0765
5520.0 0.0763
5525.0 0.0761
5530.0 0.0759
5535.0 0.0757
5540.0 0.0754
5545.0 0.0752
5550.0 0.075
5555.0 0.0747
5560.0 0.0744
5565.0 0.0742
5570.0 0.0739
5575.0 0.0736
5580.0 0.0733
5585.0 0.073
5590.0 0.0727
5595.0 0.0724
5600.0 0.0722
5605.0 0.0719
5610.0 0.0716
5615.0 0.0713
5620.0 0.071
5625.0 0.0707
5630.0 0.0704
5635.0 0.0701
5640.0 0.0699
5645.0 0.0696
5650.0 0.0693
5655.0 0.069
5660.0 0.0687
5665.0 0.0685
5670.0 0.0682
5675.0 0.0679
5680.0 0.0676
5685.0 0.0674
5690.0 0.0671
5695.0 0.0669
5700.0 0.0667
5705.0 0.0665
5710.0 0.0663
5715.0 0.0661
5720.0 0.0659
5725.0 0.0658
5730.0 0.0656
5735.0 0.0655
5740.0 0.0654
5745.0 0.0653
5750.0 0.0652
5755.0 0.0651
5760.0 0.065
5765.0 0.0648
5770.0 0.0647
5775.0 0.0646
5780.0 0.0645
5785.0 0.0643
5790.0 0.0641
5795.0 0.0639
5800.0 0.0637
5805.0 0.0635
5810.0 0.0632
5815.0 0.0629
5820.0 0.0626
5825.0 0.0623
5830.0 0.0619
5835.0 0.0616
5840.0 0.0612
5845.0 0.0608
5850.0 0.0605
5855.0 0.0601
5860.0 0.0597
5865.0 0.0593
5870.0 0.0589
5875.0 0.0586
5880.0 0.0582
5885.0 0.0578
5890.0 0.0574
5895.0 0.0571
5900.0 0.0567
5905.0 0.0564
5910.0 0.0561
5915.0 0.0557
5920.0 0.0554
5925.0 0.0551
5930.0 0.0549
5935.0 0.0546
5940.0 0.0543
5945.0 0.0541
5950.0 0.0539
5955.0 0.0536
5960.0 0.0534
5965.0 0.0532
5970.0 0.053
5975.0 0.0527
5980.0 0.0525
5985.0 0.0523
5990.0 0.052
5995.0 0.0518
6000.0 0.0516
6005.0 0.0513
6010.0 0.0511
6015.0 0.0509
6020.0 0.0506
6025.0 0.0504
6030.0 0.0502
6035.0 0.05
6040.0 0.0498
6045.0 0.0496
6050.0 0.0494
6055.0 0.0493
6060.0 0.0492
6065.0 0.0492
6070.0 0.0491
6075.0 0.0491
6080.0 0.0492
6085.0 0.0493
6090.0 0.0494
6095.0 0.0495
6100.0 0.0497
6105.0 0.0498
6110.0 0.05
6115.0 0.0501
6120.0 0.0502
6125.0 0.0503
6130.0 0.0502
6135.0 0.05
6140.0 0.0497
6145.0 0.0492
6150.0 0.0487
6155.0 0.0482
6160.0 0.0476
6165.0 0.047
6170.0 0.0465
6175.0 0.046
6180.0 0.0455
6185.0 0.0451
6190.0 0.0448
6195.0 0.0444
6200.0 0.0442
6205.0 0.044
6210.0 0.0438
6215.0 0.0437
6220.0 0.0436
6225.0 0.0435
6230.0 0.0435
6235.0 0.0434
6240.0 0.0434
6245.0 0.0434
6250.0 0.0434
6255.0 0.0434
6260.0 0.0434
6265.0 0.0433
6270.0 0.0433
6275.0 0.0433
6280.0 0.0432
6285.0 0.0432
6290.0 0.0431
6295.0 0.0431
6300.0 0.043
6305.0 0.0429
6310.0 0.0428
6315.0 0.0427
6320.0 0.0426
6325.0 0.0424
6330.0 0.0423
6335.0 0.0422
6340.0 0.0421
6345.0 0.0419
6350.0 0.0418
6355.0 0.0417
6360.0 0.0415
6365.0 0.0414
6370.0 0.0413
6375.0 0.0412
6380.0 0.041
6385.0 0.0409
6390.0 0.0408
6395.0 0.0407
6400.0 0.0406
6405.0 0.0405
6410.0 0.0404
6415.0 0.0403
6420.0 0.0402
6425.0 0.0402
6430.0 0.0401
6435.0 0.04
6440.0 0.04
6445.0 0.0399
6450.0 0.0399
6455.0 0.0399
6460.0 0.0399
6465.0 0.0398
6470.0 0.0399
6475.0 0.0399
6480.0 0.0399
6485.0 0.0399
6490.0 0.04
6495.0 0.0401
6500.0 0.0402
6505.0 0.0402
6510.0 0.0403
6515.0 0.0404
6520.0 0.0405
6525.0 0.0406
6530.0 0.0407
6535.0 0.0408
6540.0 0.0409
6545.0 0.0409
6550.0 0.0409
6555.0 0.0409
6560.0 0.0409
6565.0 0.0408
6570.0 0.0407
6575.0 0.0405
6580.0 0.0404
6585.0 0.0401
6590.0 0.0399
6595.0 0.0396
6600.0 0.0394
6605.0 0.0391
6610.0 0.0388
6615.0 0.0385
6620.0 0.0382
6625.0 0.0379
6630.0 0.0376
6635.0 0.0373
6640.0 0.0371
6645.0 0.0368
6650.0 0.0366
6655.0 0.0364
6660.0 0.0362
6665.0 0.0361
6670.0 0.0359
6675.0 0.0358
6680.0 0.0357
6685.0 0.0356
6690.0 0.0355
6695.0 0.0354
6700.0 0.0353
6705.0 0.0352
6710.0 0.0352
6715.0 0.0351
6720.0 0.035
6725.0 0.0349
6730.0 0.0348
6735.0 0.0347
6740.0 0.0346
6745.0 0.0345
6750.0 0.0344
6755.0 0.0343
6760.0 0.0342
6765.0 0.0341
6770.0 0.034
6775.0 0.0339
6780.0 0.0338
6785.0 0.0337
6790.0 0.0336
6795.0 0.0335
6800.0 0.0333
6805.0 0.0332
6810.0 0.0331
6815.0 0.033
6820.0 0.0328
6825.0 0.0327
6830.0 0.0326
6835.0 0.0325
6840.0 0.0323
6845.0 0.0322
6850.0 0.0321
6855.0 0.032
6860.0 0.0319
6865.0 0.0317
6870.0 0.0316
6875.0 0.0315
6880.0 0.0314
6885.0 0.0313
6890.0 0.0313
6895.0 0.0312
6900.0 0.0311
6905.0 0.031
6910.0 0.0309
6915.0 0.0308
6920.0 0.0307
6925.0 0.0306
6930.0 0.0305
6935.0 0.0304
6940.0 0.0303
6945.0 0.0303
6950.0 0.0302
6955.0 0.0301
6960.0 0.03
6965.0 0.03
6970.0 0.0299
6975.0 0.0298
6980.0 0.0297
6985.0 0.0297
6990.0 0.0296
6995.0 0.0295
7000.0 0.0295
7005.0 0.0294
7010.0 0.0293
7015.0 0.0293
7020.0 0.0292
7025.0 0.0292
7030.0 0.0291
7035.0 0.029
7040.0 0.029
7045.0 0.0289
7050.0 0.0289
7055.0 0.0288
7060.0 0.0288
7065.0 0.0287
7070.0 0.0286
7075.0 0.0286
7080.0 0.0285
7085.0 0.0284
7090.0 0.0283
7095.0 0.0282
7100.0 0.0282
7105.0 0.0281
7110.0 0.028
7115.0 0.0279
7120.0 0.0278
7125.0 0.0277
7130.0 0.0276
7135.0 0.0275
7140.0 0.0274
7145.0 0.0273
7150.0 0.0272
7155.0 0.027
7160.0 0.0269
7165.0 0.0268
7170.0 0.0267
7175.0 0.0265
7180.0 0.0264
7185.0 0.0263
7190.0 0.0262
7195.0 0.0261
7200.0 0.0259
7205.0 0.0258
7210.0 0.0257
7215.0 0.0257
7220.0 0.0256
7225.0 0.0255
7230.0 0.0254
7235.0 0.0254
7240.0 0.0253
7245.0 0.0253
7250.0 0.0252
7255.0 0.0252
7260.0 0.0251
7265.0 0.0251
7270.0 0.0251
7275.0 0.025
7280.0 0.025
7285.0 0.025
7290.0 0.0249
7295.0 0.0249
7300.0 0.0249
7305.0 0.0249
7310.0 0.0249
7315.0 0.0249
7320.0 0.0249
7325.0 0.0249
7330.0 0.0249
7335.0 0.025
7340.0 0.025
7345.0 0.025
7350.0 0.0251
7355.0 0.0251
7360.0 0.0251
7365.0 0.0251
7370.0 0.0251
7375.0 0.0252
7380.0 0.0252
7385.0 0.0252
7390.0 0.0252
7395.0 0.0252
7400.0 0.0252
7405.0 0.0253
7410.0 0.0253
7415.0 0.0253
7420.0 0.0254
7425.0 0.0255
7430.0 0.0256
7435.0 0.0256
7440.0 0.0258
7445.0 0.0259
7450.0 0.026
7455.0 0.0261
7460.0 0.0262
7465.0 0.0263
7470.0 0.0264
7475.0 0.0265
7480.0 0.0265
7485.0 0.0265
7490.0 0.0264
7495.0 0.0263
7500.0 0.0262
7505.0 0.026
7510.0 0.0258
7515.0 0.0256
7520.0 0.0254
7525.0 0.0251
7530.0 0.0249
7535.0 0.0247
7540.0 0.0245
7545.0 0.0243
7550.0 0.0241
7555.0 0.0239
7560.0 0.0238
7565.0 0.0236
7570.0 0.0235
7575.0 0.0233
7580.0 0.0232
7585.0 0.0231
7590.0 0.023
7595.0 0.0229
7600.0 0.0228
7605.0 0.0228
7610.0 0.0227
7615.0 0.0227
7620.0 0.0227
7625.0 0.0227
7630.0 0.0227
7635.0 0.0227
7640.0 0.0227
7645.0 0.0228
7650.0 0.0228
7655.0 0.0228
7660.0 0.0229
7665.0 0.023
7670.0 0.023
7675.0 0.0231
7680.0 0.0231
7685.0 0.0232
7690.0 0.0233
7695.0 0.0233
7700.0 0.0234
7705.0 0.0234
7710.0 0.0235
7715.0 0.0235
7720.0 0.0236
7725.0 0.0236
7730.0 0.0236
7735.0 0.0237
7740.0 0.0237
7745.0 0.0238
7750.0 0.0238
7755.0 0.0238
7760.0 0.0238
7765.0 0.0239
7770.0 0.0239
7775.0 0.0239
7780.0 0.0239
7785.0 0.024
7790.0 0.024
7795.0 0.024
7800.0 0.024
7805.0 0.024
7810.0 0.024
7815.0 0.024
7820.0 0.024
7825.0 0.024
7830.0 0.0241
7835.0 0.0241
7840.0 0.0241
7845.0 0.0241
7850.0 0.0241
7855.0 0.024
7860.0 0.024
7865.0 0.024
7870.0 0.024
7875.0 0.024
7880.0 0.024
7885.0 0.024
7890.0 0.024
7895.0 0.024
7900.0 0.024
7905.0 0.024
7910.0 0.024
7915.0 0.024
7920.0 0.024
7925.0 0.024
7930.0 0.024
7935.0 0.024
7940.0 0.024
7945.0 0.0241
7950.0 0.0241
7955.0 0.0241
7960.0 0.0241
7965.0 0.0241
7970.0 0.0241
7975.0 0.0241
7980.0 0.0241
7985.0 0.0242
7990.0 0.0242
7995.0 0.0242
8000.0 0.0242
8005.0 0.0242
8010.0 0.0242
8015.0 0.0242
8020.0 0.0242
8025.0 0.0242
8030.0 0.0242
8035.0 0.0242
8040.0 0.0242
8045.0 0.0242
8050.0 0.0242
8055.0 0.0242
8060.0 0.0242
8065.0 0.0242
8070.0 0.0242
8075.0 0.0242
8080.0 0.0241
8085.0 0.0241
8090.0 0.0241
8095.0 0.0241
8100.0 0.0241
8105.0 0.024
8110.0 0.024
8115.0 0.024
8120.0 0.0239
8125.0 0.0239
8130.0 0.0239
8135.0 0.0238
8140.0 0.0238
8145.0 0.0238
8150.0 0.0237
8155.0 0.0237
8160.0 0.0236
8165.0 0.0236
8170.0 0.0235
8175.0 0.0235
8180.0 0.0234
8185.0 0.0234
8190.0 0.0233
8195.0 0.0233
8200.0 0.0232
8205.0 0.0232
8210.0 0.0231
8215.0 0.023
8220.0 0.023
8225.0 0.0229
8230.0 0.0229
8235.0 0.0228
8240.0 0.0228
8245.0 0.0227
8250.0 0.0226
8255.0 0.0226
8260.0 0.0225
8265.0 0.0225
8270.0 0.0224
8275.0 0.0223
8280.0 0.0223
8285.0 0.0222
8290.0 0.0222
8295.0 0.0221
8300.0 0.022
8305.0 0.022
8310.0 0.0219
8315.0 0.0218
8320.0 0.0218
8325.0 0.0217
8330.0 0.0216
8335.0 0.0216
8340.0 0.0215
8345.0 0.0214
8350.0 0.0214
8355.0 0.0213
8360.0 0.0212
8365.0 0.0212
8370.0 0.0211
8375.0 0.021
8380.0 0.0209
8385.0 0.0209
8390.0 0.0208
8395.0 0.0207
8400.0 0.0206
8405.0 0.0206
8410.0 0.0205
8415.0 0.0204
8420.0 0.0203
8425.0 0.0203
8430.0 0.0202
8435.0 0.0201
8440.0 0.0201
8445.0 0.02
8450.0 0.0199
8455.0 0.0199
8460.0 0.0198
8465.0 0.0198
8470.0 0.0197
8475.0 0.0197
8480.0 0.0196
8485.0 0.0196
8490.0 0.0196
8495.0 0.0195
8500.0 0.0195
8505.0 0.0195
8510.0 0.0195
8515.0 0.0194
8520.0 0.0194
8525.0 0.0194
8530.0 0.0194
8535.0 0.0194
8540.0 0.0194
8545.0 0.0194
8550.0 0.0194
8555.0 0.0194
8560.0 0.0193
8565.0 0.0193
8570.0 0.0193
8575.0 0.0193
8580.0 0.0193
8585.0 0.0193
8590.0 0.0193
8595.0 0.0193
8600.0 0.0193
8605.0 0.0193
8610.0 0.0193
8615.0 0.0193
8620.0 0.0193
8625.0 0.0193
8630.0 0.0193
8635.0 0.0193
8640.0 0.0193
8645.0 0.0193
8650.0 0.0193
8655.0 0.0193
8660.0 0.0193
8665.0 0.0193
8670.0 0.0193
8675.0 0.0193
8680.0 0.0193
8685.0 0.0193
8690.0 0.0193
8695.0 0.0193
8700.0 0.0193
8705.0 0.0193
8710.0 0.0193
8715.0 0.0193
8720.0 0.0193
8725.0 0.0193
8730.0 0.0193
8735.0 0.0193
8740.0 0.0193
8745.0 0.0193
8750.0 0.0193
8755.0 0.0193
8760.0 0.0193
8765.0 0.0192
8770.0 0.0192
8775.0 0.0192
8780.0 0.0192
8785.0 0.0192
8790.0 0.0192
8795.0 0.0192
8800.0 0.0192
8805.0 0.0192
8810.0 0.0191
8815.0 0.0191
8820.0 0.0191
8825.0 0.0191
8830.0 0.0191
8835.0 0.0191
8840.0 0.019
8845.0 0.019
8850.0 0.019
8855.0 0.019
8860.0 0.019
8865.0 0.0189
8870.0 0.0189
8875.0 0.0189
8880.0 0.0189
8885.0 0.0189
8890.0 0.0188
8895.0 0.0188
8900.0 0.0188
8905.0 0.0187
8910.0 0.0187
8915.0 0.0187
8920.0 0.0187
8925.0 0.0186
8930.0 0.0186
8935.0 0.0186
8940.0 0.0185
8945.0 0.0185
8950.0 0.0185
8955.0 0.0184
8960.0 0.0184
8965.0 0.0184
8970.0 0.0183
8975.0 0.0183
8980.0 0.0182
8985.0 0.0182
8990.0 0.0181
8995.0 0.0181
9000.0 0.018
9005.0 0.018
9010.0 0.0179
9015.0 0.0179
9020.0 0.0178
9025.0 0.0178
9030.0 0.0177
9035.0 0.0177
9040.0 0.0176
9045.0 0.0176
9050.0 0.0175
9055.0 0.0174
9060.0 0.0174
9065.0 0.0173
9070.0 0.0172
9075.0 0.0172
9080.0 0.0171
9085.0 0.0171
9090.0 0.017
9095.0 0.0169
9100.0 0.0169
9105.0 0.0168
9110.0 0.0167
