#lamb flux
1605.0 8.7e-05
1610.0 8.73e-05
1615.0 8.77e-05
1620.0 8.8e-05
1625.0 8.84e-05
1630.0 8.87e-05
1635.0 8.91e-05
1640.0 8.94e-05
1645.0 8.98e-05
1650.0 9.01e-05
1655.0 9.05e-05
1660.0 9.08e-05
1665.0 9.12e-05
1670.0 9.15e-05
1675.0 9.19e-05
1680.0 9.23e-05
1685.0 9.26e-05
1690.0 9.3e-05
1695.0 9.34e-05
1700.0 9.37e-05
1705.0 9.41e-05
1710.0 9.45e-05
1715.0 9.49e-05
1720.0 9.52e-05
1725.0 9.56e-05
1730.0 9.6e-05
1735.0 9.64e-05
1740.0 9.68e-05
1745.0 9.72e-05
1750.0 9.75e-05
1755.0 9.79e-05
1760.0 9.83e-05
1765.0 9.87e-05
1770.0 9.91e-05
1775.0 9.95e-05
1780.0 9.99e-05
1785.0 0.0001
1790.0 0.000101
1795.0 0.000101
1800.0 0.000102
1805.0 0.000102
1810.0 0.000102
1815.0 0.000103
1820.0 0.000103
1825.0 0.000104
1830.0 0.000104
1835.0 0.000104
1840.0 0.000105
1845.0 0.000105
1850.0 0.000106
1855.0 0.000106
1860.0 0.000107
1865.0 0.000107
1870.0 0.000107
1875.0 0.000108
1880.0 0.000108
1885.0 0.000109
1890.0 0.000109
1895.0 0.00011
1900.0 0.00011
1905.0 0.000111
1910.0 0.000111
1915.0 0.000112
1920.0 0.000112
1925.0 0.000112
1930.0 0.000113
1935.0 0.000113
1940.0 0.000114
1945.0 0.000114
1950.0 0.000115
1955.0 0.000115
1960.0 0.000116
1965.0 0.000116
1970.0 0.000117
1975.0 0.000117
1980.0 0.000118
1985.0 0.000118
1990.0 0.000119
1995.0 0.000119
2000.0 0.00012
2005.0 0.00012
2010.0 0.000121
2015.0 0.000121
2020.0 0.000122
2025.0 0.000122
2030.0 0.000123
2035.0 0.000123
2040.0 0.000124
2045.0 0.000124
2050.0 0.000125
2055.0 0.000125
2060.0 0.000126
2065.0 0.000126
2070.0 0.000127
2075.0 0.000127
2080.0 0.000128
2085.0 0.000129
2090.0 0.000129
2095.0 0.00013
2100.0 0.00013
2105.0 0.000131
2110.0 0.000131
2115.0 0.000132
2120.0 0.000132
2125.0 0.000133
2130.0 0.000134
2135.0 0.000134
2140.0 0.000135
2145.0 0.000135
2150.0 0.000136
2155.0 0.000136
2160.0 0.000137
2165.0 0.000138
2170.0 0.000138
2175.0 0.000139
2180.0 0.000139
2185.0 0.00014
2190.0 0.000141
2195.0 0.000141
2200.0 0.000142
2205.0 0.000142
2210.0 0.000143
2215.0 0.000144
2220.0 0.000144
2225.0 0.000145
2230.0 0.000145
2235.0 0.000146
2240.0 0.000147
2245.0 0.000147
2250.0 0.000148
2255.0 0.000149
2260.0 0.000149
2265.0 0.00015
2270.0 0.000151
2275.0 0.000151
2280.0 0.000152
2285.0 0.000153
2290.0 0.000153
2295.0 0.000154
2300.0 0.000154
2305.0 0.000155
2310.0 0.000156
2315.0 0.000156
2320.0 0.000157
2325.0 0.000158
2330.0 0.000159
2335.0 0.000159
2340.0 0.00016
2345.0 0.000161
2350.0 0.000161
2355.0 0.000162
2360.0 0.000163
2365.0 0.000163
2370.0 0.000164
2375.0 0.000165
2380.0 0.000166
2385.0 0.000166
2390.0 0.000167
2395.0 0.000168
2400.0 0.000168
2405.0 0.000169
2410.0 0.00017
2415.0 0.000171
2420.0 0.000171
2425.0 0.000172
2430.0 0.000173
2435.0 0.000174
2440.0 0.000174
2445.0 0.000175
2450.0 0.000176
2455.0 0.000177
2460.0 0.000177
2465.0 0.000178
2470.0 0.000179
2475.0 0.00018
2480.0 0.000181
2485.0 0.000181
2490.0 0.000182
2495.0 0.000183
2500.0 0.000184
2505.0 0.000184
2510.0 0.000185
2515.0 0.000186
2520.0 0.000187
2525.0 0.000188
2530.0 0.000189
2535.0 0.000189
2540.0 0.00019
2545.0 0.000191
2550.0 0.000192
2555.0 0.000193
2560.0 0.000194
2565.0 0.000194
2570.0 0.000195
2575.0 0.000196
2580.0 0.000197
2585.0 0.000198
2590.0 0.000199
2595.0 0.0002
2600.0 0.0002
2605.0 0.000201
2610.0 0.000202
2615.0 0.000203
2620.0 0.000204
2625.0 0.000205
2630.0 0.000206
2635.0 0.000207
2640.0 0.000208
2645.0 0.000208
2650.0 0.000209
2655.0 0.00021
2660.0 0.000211
2665.0 0.000212
2670.0 0.000213
2675.0 0.000214
2680.0 0.000215
2685.0 0.000216
2690.0 0.000217
2695.0 0.000218
2700.0 0.000219
2705.0 0.00022
2710.0 0.000221
2715.0 0.000222
2720.0 0.000223
2725.0 0.000223
2730.0 0.000224
2735.0 0.000225
2740.0 0.000226
2745.0 0.000227
2750.0 0.000228
2755.0 0.000229
2760.0 0.00023
2765.0 0.000231
2770.0 0.000232
2775.0 0.000233
2780.0 0.000234
2785.0 0.000235
2790.0 0.000236
2795.0 0.000237
2800.0 0.000238
2805.0 0.00024
2810.0 0.000241
2815.0 0.000242
2820.0 0.000243
2825.0 0.000244
2830.0 0.000245
2835.0 0.000246
2840.0 0.000247
2845.0 0.000248
2850.0 0.000249
2855.0 0.00025
2860.0 0.000251
2865.0 0.000252
2870.0 0.000253
2875.0 0.000254
2880.0 0.000256
2885.0 0.000257
2890.0 0.000258
2895.0 0.000259
2900.0 0.00026
2905.0 0.000261
2910.0 0.000262
2915.0 0.000263
2920.0 0.000265
2925.0 0.000266
2930.0 0.000267
2935.0 0.000268
2940.0 0.000269
2945.0 0.00027
2950.0 0.000271
2955.0 0.000273
2960.0 0.000274
2965.0 0.000275
2970.0 0.000276
2975.0 0.000277
2980.0 0.000278
2985.0 0.00028
2990.0 0.000281
2995.0 0.000282
3000.0 0.000283
3005.0 0.000284
3010.0 0.000286
3015.0 0.000287
3020.0 0.000288
3025.0 0.000289
3030.0 0.00029
3035.0 0.000292
3040.0 0.000293
3045.0 0.000294
3050.0 0.000295
3055.0 0.000297
3060.0 0.000298
3065.0 0.000299
3070.0 0.0003
3075.0 0.000302
3080.0 0.000303
3085.0 0.000304
3090.0 0.000306
3095.0 0.000307
3100.0 0.000308
3105.0 0.000309
3110.0 0.000311
3115.0 0.000312
3120.0 0.000313
3125.0 0.000315
3130.0 0.000316
3135.0 0.000317
3140.0 0.000319
3145.0 0.00032
3150.0 0.000321
3155.0 0.000323
3160.0 0.000324
3165.0 0.000325
3170.0 0.000327
3175.0 0.000328
3180.0 0.000329
3185.0 0.000331
3190.0 0.000332
3195.0 0.000334
3200.0 0.000335
3205.0 0.000336
3210.0 0.000338
3215.0 0.000339
3220.0 0.00034
3225.0 0.000342
3230.0 0.000343
3235.0 0.000345
3240.0 0.000346
3245.0 0.000348
3250.0 0.000349
3255.0 0.00035
3260.0 0.000352
3265.0 0.000353
3270.0 0.000355
3275.0 0.000356
3280.0 0.000358
3285.0 0.000359
3290.0 0.000361
3295.0 0.000362
3300.0 0.000364
3305.0 0.000365
3310.0 0.000366
3315.0 0.000368
3320.0 0.000369
3325.0 0.000371
3330.0 0.000372
3335.0 0.000374
3340.0 0.000375
3345.0 0.000377
3350.0 0.000378
3355.0 0.00038
3360.0 0.000382
3365.0 0.000383
3370.0 0.000385
3375.0 0.000386
3380.0 0.000388
3385.0 0.000389
3390.0 0.000391
3395.0 0.000392
3400.0 0.000394
3405.0 0.000395
3410.0 0.000397
3415.0 0.000399
3420.0 0.0004
3425.0 0.000402
3430.0 0.000403
3435.0 0.000405
3440.0 0.000406
3445.0 0.000408
3450.0 0.00041
3455.0 0.000411
3460.0 0.000413
3465.0 0.000414
3470.0 0.000416
3475.0 0.000418
3480.0 0.000419
3485.0 0.000421
3490.0 0.000423
3495.0 0.000424
3500.0 0.000426
3505.0 0.000428
3510.0 0.000429
3515.0 0.000431
3520.0 0.000432
3525.0 0.000434
3530.0 0.000436
3535.0 0.000437
3540.0 0.000439
3545.0 0.000441
3550.0 0.000442
3555.0 0.000444
3560.0 0.000446
3565.0 0.000448
3570.0 0.000449
3575.0 0.000451
3580.0 0.000453
3585.0 0.000454
3590.0 0.000456
3595.0 0.000458
3600.0 0.00046
3605.0 0.000461
3610.0 0.000463
3615.0 0.000465
3620.0 0.000466
3625.0 0.000468
3630.0 0.00047
3635.0 0.000472
3640.0 0.000473
3645.0 0.000475
3650.0 0.000477
3655.0 0.000479
3660.0 0.00048
3665.0 0.000482
3670.0 0.000484
3675.0 0.000486
3680.0 0.000487
3685.0 0.000489
3690.0 0.000491
3695.0 0.000493
3700.0 0.000495
3705.0 0.000496
3710.0 0.000498
3715.0 0.0005
3720.0 0.000502
3725.0 0.000503
3730.0 0.000505
3735.0 0.000507
3740.0 0.000509
3745.0 0.000511
3750.0 0.000512
3755.0 0.000514
3760.0 0.000516
3765.0 0.000518
3770.0 0.00052
3775.0 0.000522
3780.0 0.000523
3785.0 0.000525
3790.0 0.000527
3795.0 0.000529
3800.0 0.000531
3805.0 0.000533
3810.0 0.000534
3815.0 0.000536
3820.0 0.000538
3825.0 0.00054
3830.0 0.000542
3835.0 0.000544
3840.0 0.000545
3845.0 0.000547
3850.0 0.000549
3855.0 0.000551
3860.0 0.000553
3865.0 0.000555
3870.0 0.000556
3875.0 0.000558
3880.0 0.00056
3885.0 0.000562
3890.0 0.000564
3895.0 0.000566
3900.0 0.000568
3905.0 0.00057
3910.0 0.000571
3915.0 0.000573
3920.0 0.000575
3925.0 0.000577
3930.0 0.000579
3935.0 0.000581
3940.0 0.000583
3945.0 0.000584
3950.0 0.000586
3955.0 0.000588
3960.0 0.00059
3965.0 0.000592
3970.0 0.000594
3975.0 0.000596
3980.0 0.000598
3985.0 0.000599
3990.0 0.000601
3995.0 0.000603
4000.0 0.000605
4005.0 0.000607
4010.0 0.000609
4015.0 0.000611
4020.0 0.000612
4025.0 0.000614
4030.0 0.000616
4035.0 0.000618
4040.0 0.00062
4045.0 0.000622
4050.0 0.000624
4055.0 0.000626
4060.0 0.000627
4065.0 0.000629
4070.0 0.000631
4075.0 0.000633
4080.0 0.000635
4085.0 0.000637
4090.0 0.000639
4095.0 0.00064
4100.0 0.000642
4105.0 0.000644
4110.0 0.000646
4115.0 0.000648
4120.0 0.00065
4125.0 0.000651
4130.0 0.000653
4135.0 0.000655
4140.0 0.000657
4145.0 0.000659
4150.0 0.000661
4155.0 0.000662
4160.0 0.000664
4165.0 0.000666
4170.0 0.000668
4175.0 0.00067
4180.0 0.000672
4185.0 0.000673
4190.0 0.000675
4195.0 0.000677
4200.0 0.000679
4205.0 0.000681
4210.0 0.000682
4215.0 0.000684
4220.0 0.000686
4225.0 0.000688
4230.0 0.00069
4235.0 0.000691
4240.0 0.000693
4245.0 0.000695
4250.0 0.000697
4255.0 0.000698
4260.0 0.0007
4265.0 0.000702
4270.0 0.000704
4275.0 0.000705
4280.0 0.000707
4285.0 0.000709
4290.0 0.000711
4295.0 0.000712
4300.0 0.000714
4305.0 0.000716
4310.0 0.000717
4315.0 0.000719
4320.0 0.000721
4325.0 0.000722
4330.0 0.000724
4335.0 0.000726
4340.0 0.000728
4345.0 0.000729
4350.0 0.000731
4355.0 0.000733
4360.0 0.000734
4365.0 0.000736
4370.0 0.000738
4375.0 0.000739
4380.0 0.000741
4385.0 0.000742
4390.0 0.000744
4395.0 0.000746
4400.0 0.000747
4405.0 0.000749
4410.0 0.000751
4415.0 0.000752
4420.0 0.000754
4425.0 0.000755
4430.0 0.000757
4435.0 0.000759
4440.0 0.00076
4445.0 0.000762
4450.0 0.000763
4455.0 0.000765
4460.0 0.000766
4465.0 0.000768
4470.0 0.000769
4475.0 0.000771
4480.0 0.000772
4485.0 0.000774
4490.0 0.000775
4495.0 0.000777
4500.0 0.000778
4505.0 0.00078
4510.0 0.000781
4515.0 0.000783
4520.0 0.000784
4525.0 0.000786
4530.0 0.000787
4535.0 0.000789
4540.0 0.00079
4545.0 0.000791
4550.0 0.000793
4555.0 0.000794
4560.0 0.000796
4565.0 0.000797
4570.0 0.000799
4575.0 0.0008
4580.0 0.000801
4585.0 0.000803
4590.0 0.000804
4595.0 0.000805
4600.0 0.000807
4605.0 0.000808
4610.0 0.000809
4615.0 0.000811
4620.0 0.000812
4625.0 0.000813
4630.0 0.000814
4635.0 0.000816
4640.0 0.000817
4645.0 0.000818
4650.0 0.00082
4655.0 0.000821
4660.0 0.000822
4665.0 0.000823
4670.0 0.000824
4675.0 0.000826
4680.0 0.000827
4685.0 0.000828
4690.0 0.000829
4695.0 0.00083
4700.0 0.000832
4705.0 0.000833
4710.0 0.000834
4715.0 0.000835
4720.0 0.000836
4725.0 0.000837
4730.0 0.000838
4735.0 0.000839
4740.0 0.00084
4745.0 0.000841
4750.0 0.000843
4755.0 0.000844
4760.0 0.000845
4765.0 0.000846
4770.0 0.000847
4775.0 0.000848
4780.0 0.000849
4785.0 0.00085
4790.0 0.000851
4795.0 0.000852
4800.0 0.000853
4805.0 0.000854
4810.0 0.000855
4815.0 0.000855
4820.0 0.000856
4825.0 0.000857
4830.0 0.000858
4835.0 0.000859
4840.0 0.00086
4845.0 0.000861
4850.0 0.000862
4855.0 0.000862
4860.0 0.000863
4865.0 0.000864
4870.0 0.000865
4875.0 0.000866
4880.0 0.000866
4885.0 0.000867
4890.0 0.000868
4895.0 0.000869
4900.0 0.000869
4905.0 0.00087
4910.0 0.000871
4915.0 0.000872
4920.0 0.000872
4925.0 0.000873
4930.0 0.000874
4935.0 0.000874
4940.0 0.000875
4945.0 0.000875
4950.0 0.000876
4955.0 0.000877
4960.0 0.000877
4965.0 0.000878
4970.0 0.000878
4975.0 0.000879
4980.0 0.000879
4985.0 0.00088
4990.0 0.00088
4995.0 0.000881
5000.0 0.000881
5005.0 0.000882
5010.0 0.000882
5015.0 0.000883
5020.0 0.000883
5025.0 0.000883
5030.0 0.000884
5035.0 0.000884
5040.0 0.000884
5045.0 0.000885
5050.0 0.000885
5055.0 0.000885
5060.0 0.000886
5065.0 0.000886
5070.0 0.000886
5075.0 0.000886
5080.0 0.000887
5085.0 0.000887
5090.0 0.000887
5095.0 0.000887
5100.0 0.000887
5105.0 0.000888
5110.0 0.000888
5115.0 0.000888
5120.0 0.000888
5125.0 0.000888
5130.0 0.000888
5135.0 0.000888
5140.0 0.000888
5145.0 0.000888
5150.0 0.000888
5155.0 0.000888
5160.0 0.000888
5165.0 0.000888
5170.0 0.000888
5175.0 0.000888
5180.0 0.000888
5185.0 0.000888
5190.0 0.000888
5195.0 0.000887
5200.0 0.000887
5205.0 0.000887
5210.0 0.000887
5215.0 0.000887
5220.0 0.000886
5225.0 0.000886
5230.0 0.000886
5235.0 0.000885
5240.0 0.000885
5245.0 0.000885
5250.0 0.000884
5255.0 0.000884
5260.0 0.000884
5265.0 0.000883
5270.0 0.000883
5275.0 0.000882
5280.0 0.000882
5285.0 0.000881
5290.0 0.000881
5295.0 0.00088
5300.0 0.00088
5305.0 0.000879
5310.0 0.000879
5315.0 0.000878
5320.0 0.000877
5325.0 0.000877
5330.0 0.000876
5335.0 0.000876
5340.0 0.000875
5345.0 0.000874
5350.0 0.000873
5355.0 0.000873
5360.0 0.000872
5365.0 0.000871
5370.0 0.00087
5375.0 0.000869
5380.0 0.000869
5385.0 0.000868
5390.0 0.000867
5395.0 0.000866
5400.0 0.000865
5405.0 0.000864
5410.0 0.000863
5415.0 0.000862
5420.0 0.000861
5425.0 0.00086
5430.0 0.000859
5435.0 0.000858
5440.0 0.000857
5445.0 0.000856
5450.0 0.000855
5455.0 0.000854
5460.0 0.000853
5465.0 0.000852
5470.0 0.00085
5475.0 0.000849
5480.0 0.000848
5485.0 0.000847
5490.0 0.000845
5495.0 0.000844
5500.0 0.000843
5505.0 0.000842
5510.0 0.00084
5515.0 0.000839
5520.0 0.000838
5525.0 0.000836
5530.0 0.000835
5535.0 0.000834
5540.0 0.000832
5545.0 0.000831
5550.0 0.000829
5555.0 0.000828
5560.0 0.000826
5565.0 0.000825
5570.0 0.000824
5575.0 0.000822
5580.0 0.00082
5585.0 0.000819
5590.0 0.000817
5595.0 0.000816
5600.0 0.000814
5605.0 0.000813
5610.0 0.000811
5615.0 0.000809
5620.0 0.000808
5625.0 0.000806
5630.0 0.000805
5635.0 0.000803
5640.0 0.000801
5645.0 0.000799
5650.0 0.000798
5655.0 0.000796
5660.0 0.000794
5665.0 0.000792
5670.0 0.000791
5675.0 0.000789
5680.0 0.000787
5685.0 0.000785
5690.0 0.000784
5695.0 0.000782
5700.0 0.00078
5705.0 0.000778
5710.0 0.000776
5715.0 0.000774
5720.0 0.000772
5725.0 0.000771
5730.0 0.000769
5735.0 0.000767
5740.0 0.000765
5745.0 0.000763
5750.0 0.000761
5755.0 0.000759
5760.0 0.000757
5765.0 0.000755
5770.0 0.000753
5775.0 0.000751
5780.0 0.000749
5785.0 0.000747
5790.0 0.000745
5795.0 0.000743
5800.0 0.000741
5805.0 0.000739
5810.0 0.000737
5815.0 0.000735
5820.0 0.000733
5825.0 0.000731
5830.0 0.000729
5835.0 0.000727
5840.0 0.000725
5845.0 0.000723
5850.0 0.000721
5855.0 0.000719
5860.0 0.000717
5865.0 0.000715
5870.0 0.000712
5875.0 0.00071
5880.0 0.000708
5885.0 0.000706
5890.0 0.000704
5895.0 0.000702
5900.0 0.0007
5905.0 0.000698
5910.0 0.000695
5915.0 0.000693
5920.0 0.000691
5925.0 0.000689
5930.0 0.000687
5935.0 0.000685
5940.0 0.000683
5945.0 0.000681
5950.0 0.000678
5955.0 0.000676
5960.0 0.000674
5965.0 0.000672
5970.0 0.00067
5975.0 0.000668
5980.0 0.000665
5985.0 0.000663
5990.0 0.000661
5995.0 0.000659
6000.0 0.000657
6005.0 0.000655
6010.0 0.000653
6015.0 0.00065
6020.0 0.000648
6025.0 0.000646
6030.0 0.000644
6035.0 0.000642
6040.0 0.00064
6045.0 0.000637
6050.0 0.000635
6055.0 0.000633
6060.0 0.000631
6065.0 0.000629
6070.0 0.000627
6075.0 0.000624
6080.0 0.000622
6085.0 0.00062
6090.0 0.000618
6095.0 0.000616
6100.0 0.000614
6105.0 0.000612
6110.0 0.000609
6115.0 0.000607
6120.0 0.000605
6125.0 0.000603
6130.0 0.000601
6135.0 0.000599
6140.0 0.000597
6145.0 0.000594
6150.0 0.000592
6155.0 0.00059
6160.0 0.000588
6165.0 0.000586
6170.0 0.000584
6175.0 0.000582
6180.0 0.00058
6185.0 0.000578
6190.0 0.000575
6195.0 0.000573
6200.0 0.000571
6205.0 0.000569
6210.0 0.000567
6215.0 0.000565
6220.0 0.000563
6225.0 0.000561
6230.0 0.000559
6235.0 0.000557
6240.0 0.000555
6245.0 0.000552
6250.0 0.00055
6255.0 0.000548
6260.0 0.000546
6265.0 0.000544
6270.0 0.000542
6275.0 0.00054
6280.0 0.000538
6285.0 0.000536
6290.0 0.000534
6295.0 0.000532
6300.0 0.00053
6305.0 0.000528
6310.0 0.000526
6315.0 0.000524
6320.0 0.000522
6325.0 0.00052
6330.0 0.000518
6335.0 0.000516
6340.0 0.000514
6345.0 0.000512
6350.0 0.00051
6355.0 0.000508
6360.0 0.000506
6365.0 0.000504
6370.0 0.000502
6375.0 0.0005
6380.0 0.000498
6385.0 0.000496
6390.0 0.000495
6395.0 0.000493
6400.0 0.000491
6405.0 0.000489
6410.0 0.000487
6415.0 0.000485
6420.0 0.000483
6425.0 0.000481
6430.0 0.000479
6435.0 0.000477
6440.0 0.000475
6445.0 0.000474
6450.0 0.000472
6455.0 0.00047
6460.0 0.000468
6465.0 0.000466
6470.0 0.000464
6475.0 0.000462
6480.0 0.000461
6485.0 0.000459
6490.0 0.000457
6495.0 0.000455
6500.0 0.000453
6505.0 0.000452
6510.0 0.00045
6515.0 0.000448
6520.0 0.000446
6525.0 0.000444
6530.0 0.000443
6535.0 0.000441
6540.0 0.000439
6545.0 0.000437
6550.0 0.000436
6555.0 0.000434
6560.0 0.000432
6565.0 0.00043
6570.0 0.000429
6575.0 0.000427
6580.0 0.000425
6585.0 0.000423
6590.0 0.000422
6595.0 0.00042
6600.0 0.000418
6605.0 0.000417
6610.0 0.000415
6615.0 0.000413
6620.0 0.000412
6625.0 0.00041
6630.0 0.000408
6635.0 0.000407
6640.0 0.000405
6645.0 0.000403
6650.0 0.000402
6655.0 0.0004
6660.0 0.000398
6665.0 0.000397
6670.0 0.000395
6675.0 0.000394
6680.0 0.000392
6685.0 0.00039
6690.0 0.000389
6695.0 0.000387
6700.0 0.000386
6705.0 0.000384
6710.0 0.000382
6715.0 0.000381
6720.0 0.000379
6725.0 0.000378
6730.0 0.000376
6735.0 0.000375
6740.0 0.000373
6745.0 0.000372
6750.0 0.00037
6755.0 0.000369
6760.0 0.000367
6765.0 0.000366
6770.0 0.000364
6775.0 0.000363
6780.0 0.000361
6785.0 0.00036
6790.0 0.000358
6795.0 0.000357
6800.0 0.000355
6805.0 0.000354
6810.0 0.000352
6815.0 0.000351
6820.0 0.000349
6825.0 0.000348
6830.0 0.000347
6835.0 0.000345
6840.0 0.000344
6845.0 0.000342
6850.0 0.000341
6855.0 0.000339
6860.0 0.000338
6865.0 0.000337
6870.0 0.000335
6875.0 0.000334
6880.0 0.000333
6885.0 0.000331
6890.0 0.00033
6895.0 0.000328
6900.0 0.000327
6905.0 0.000326
6910.0 0.000324
6915.0 0.000323
6920.0 0.000322
6925.0 0.00032
6930.0 0.000319
6935.0 0.000318
6940.0 0.000316
6945.0 0.000315
6950.0 0.000314
6955.0 0.000313
6960.0 0.000311
6965.0 0.00031
6970.0 0.000309
6975.0 0.000307
6980.0 0.000306
6985.0 0.000305
6990.0 0.000304
6995.0 0.000302
7000.0 0.000301
7005.0 0.0003
7010.0 0.000299
7015.0 0.000298
7020.0 0.000296
7025.0 0.000295
7030.0 0.000294
7035.0 0.000293
7040.0 0.000292
7045.0 0.00029
7050.0 0.000289
7055.0 0.000288
7060.0 0.000287
7065.0 0.000286
7070.0 0.000284
7075.0 0.000283
7080.0 0.000282
7085.0 0.000281
7090.0 0.00028
7095.0 0.000279
7100.0 0.000278
7105.0 0.000276
7110.0 0.000275
7115.0 0.000274
7120.0 0.000273
7125.0 0.000272
7130.0 0.000271
7135.0 0.00027
7140.0 0.000269
7145.0 0.000268
7150.0 0.000266
7155.0 0.000265
7160.0 0.000264
7165.0 0.000263
7170.0 0.000262
7175.0 0.000261
7180.0 0.00026
7185.0 0.000259
7190.0 0.000258
7195.0 0.000257
7200.0 0.000256
7205.0 0.000255
7210.0 0.000254
7215.0 0.000253
7220.0 0.000252
7225.0 0.000251
7230.0 0.00025
7235.0 0.000249
7240.0 0.000248
7245.0 0.000247
7250.0 0.000246
7255.0 0.000245
7260.0 0.000244
7265.0 0.000243
7270.0 0.000242
7275.0 0.000241
7280.0 0.00024
7285.0 0.000239
7290.0 0.000238
7295.0 0.000237
7300.0 0.000236
7305.0 0.000235
7310.0 0.000234
7315.0 0.000233
7320.0 0.000232
7325.0 0.000231
7330.0 0.00023
7335.0 0.00023
7340.0 0.000229
7345.0 0.000228
7350.0 0.000227
7355.0 0.000226
7360.0 0.000225
7365.0 0.000224
7370.0 0.000223
7375.0 0.000222
7380.0 0.000221
7385.0 0.000221
7390.0 0.00022
7395.0 0.000219
7400.0 0.000218
7405.0 0.000217
7410.0 0.000216
7415.0 0.000215
7420.0 0.000215
7425.0 0.000214
7430.0 0.000213
7435.0 0.000212
7440.0 0.000211
7445.0 0.00021
7450.0 0.00021
7455.0 0.000209
7460.0 0.000208
7465.0 0.000207
7470.0 0.000206
7475.0 0.000206
7480.0 0.000205
7485.0 0.000204
7490.0 0.000203
7495.0 0.000202
7500.0 0.000202
7505.0 0.000201
7510.0 0.0002
7515.0 0.000199
7520.0 0.000199
7525.0 0.000198
7530.0 0.000197
7535.0 0.000196
7540.0 0.000196
7545.0 0.000195
7550.0 0.000194
7555.0 0.000193
7560.0 0.000193
7565.0 0.000192
7570.0 0.000191
7575.0 0.00019
7580.0 0.00019
7585.0 0.000189
7590.0 0.000188
7595.0 0.000187
7600.0 0.000187
7605.0 0.000186
7610.0 0.000185
7615.0 0.000185
7620.0 0.000184
7625.0 0.000183
7630.0 0.000183
7635.0 0.000182
7640.0 0.000181
7645.0 0.000181
7650.0 0.00018
7655.0 0.000179
7660.0 0.000179
7665.0 0.000178
7670.0 0.000177
7675.0 0.000177
7680.0 0.000176
7685.0 0.000175
7690.0 0.000175
7695.0 0.000174
7700.0 0.000173
7705.0 0.000173
7710.0 0.000172
7715.0 0.000171
7720.0 0.000171
7725.0 0.00017
7730.0 0.00017
7735.0 0.000169
7740.0 0.000168
7745.0 0.000168
7750.0 0.000167
7755.0 0.000166
7760.0 0.000166
7765.0 0.000165
7770.0 0.000165
7775.0 0.000164
7780.0 0.000163
7785.0 0.000163
7790.0 0.000162
7795.0 0.000162
7800.0 0.000161
7805.0 0.00016
7810.0 0.00016
7815.0 0.000159
7820.0 0.000159
7825.0 0.000158
7830.0 0.000158
7835.0 0.000157
7840.0 0.000157
7845.0 0.000156
7850.0 0.000155
7855.0 0.000155
7860.0 0.000154
7865.0 0.000154
7870.0 0.000153
7875.0 0.000153
7880.0 0.000152
7885.0 0.000152
