#lamb flux
1605.0 2.48e-05
1610.0 2.47e-05
1615.0 2.46e-05
1620.0 2.46e-05
1625.0 2.45e-05
1630.0 2.44e-05
1635.0 2.43e-05
1640.0 2.42e-05
1645.0 2.41e-05
1650.0 2.4e-05
1655.0 2.39e-05
1660.0 2.38e-05
1665.0 2.38e-05
1670.0 2.37e-05
1675.0 2.36e-05
1680.0 2.35e-05
1685.0 2.34e-05
1690.0 2.33e-05
1695.0 2.32e-05
1700.0 2.32e-05
1705.0 2.31e-05
1710.0 2.3e-05
1715.0 2.29e-05
1720.0 2.28e-05
1725.0 2.27e-05
1730.0 2.27e-05
1735.0 2.26e-05
1740.0 2.25e-05
1745.0 2.24e-05
1750.0 2.23e-05
1755.0 2.23e-05
1760.0 2.22e-05
1765.0 2.21e-05
1770.0 2.2e-05
1775.0 2.19e-05
1780.0 2.19e-05
1785.0 2.18e-05
1790.0 2.17e-05
1795.0 2.16e-05
1800.0 2.16e-05
1805.0 2.15e-05
1810.0 2.14e-05
1815.0 2.13e-05
1820.0 2.13e-05
1825.0 2.12e-05
1830.0 2.11e-05
1835.0 2.11e-05
1840.0 2.1e-05
1845.0 2.09e-05
1850.0 2.08e-05
1855.0 2.08e-05
1860.0 2.07e-05
1865.0 2.06e-05
1870.0 2.06e-05
1875.0 2.05e-05
1880.0 2.04e-05
1885.0 2.04e-05
1890.0 2.03e-05
1895.0 2.02e-05
1900.0 2.02e-05
1905.0 2.01e-05
1910.0 2e-05
1915.0 2e-05
1920.0 1.99e-05
1925.0 1.99e-05
1930.0 1.98e-05
1935.0 1.97e-05
1940.0 1.97e-05
1945.0 1.96e-05
1950.0 1.96e-05
1955.0 1.95e-05
1960.0 1.95e-05
1965.0 1.94e-05
1970.0 1.93e-05
1975.0 1.93e-05
1980.0 1.92e-05
1985.0 1.92e-05
1990.0 1.91e-05
1995.0 1.91e-05
2000.0 1.9e-05
2005.0 1.9e-05
2010.0 1.89e-05
2015.0 1.89e-05
2020.0 1.88e-05
2025.0 1.88e-05
2030.0 1.87e-05
2035.0 1.87e-05
2040.0 1.86e-05
2045.0 1.86e-05
2050.0 1.85e-05
2055.0 1.85e-05
2060.0 1.84e-05
2065.0 1.84e-05
2070.0 1.83e-05
2075.0 1.83e-05
2080.0 1.83e-05
2085.0 1.82e-05
2090.0 1.82e-05
2095.0 1.81e-05
2100.0 1.81e-05
2105.0 1.81e-05
2110.0 1.8e-05
2115.0 1.8e-05
2120.0 1.79e-05
2125.0 1.79e-05
2130.0 1.79e-05
2135.0 1.78e-05
2140.0 1.78e-05
2145.0 1.78e-05
2150.0 1.77e-05
2155.0 1.77e-05
2160.0 1.77e-05
2165.0 1.76e-05
2170.0 1.76e-05
2175.0 1.76e-05
2180.0 1.76e-05
2185.0 1.75e-05
2190.0 1.75e-05
2195.0 1.75e-05
2200.0 1.74e-05
2205.0 1.74e-05
2210.0 1.74e-05
2215.0 1.74e-05
2220.0 1.73e-05
2225.0 1.73e-05
2230.0 1.73e-05
2235.0 1.73e-05
2240.0 1.73e-05
2245.0 1.72e-05
2250.0 1.72e-05
2255.0 1.72e-05
2260.0 1.72e-05
2265.0 1.72e-05
2270.0 1.72e-05
2275.0 1.71e-05
2280.0 1.71e-05
2285.0 1.71e-05
2290.0 1.71e-05
2295.0 1.71e-05
2300.0 1.71e-05
2305.0 1.71e-05
2310.0 1.71e-05
2315.0 1.7e-05
2320.0 1.7e-05
2325.0 1.7e-05
2330.0 1.7e-05
2335.0 1.7e-05
2340.0 1.7e-05
2345.0 1.7e-05
2350.0 1.7e-05
2355.0 1.7e-05
2360.0 1.7e-05
2365.0 1.7e-05
2370.0 1.7e-05
2375.0 1.7e-05
2380.0 1.7e-05
2385.0 1.7e-05
2390.0 1.7e-05
2395.0 1.7e-05
2400.0 1.7e-05
2405.0 1.7e-05
2410.0 1.7e-05
2415.0 1.7e-05
2420.0 1.7e-05
2425.0 1.7e-05
2430.0 1.71e-05
2435.0 1.71e-05
2440.0 1.71e-05
2445.0 1.71e-05
2450.0 1.71e-05
2455.0 1.71e-05
2460.0 1.71e-05
2465.0 1.72e-05
2470.0 1.72e-05
2475.0 1.72e-05
2480.0 1.72e-05
2485.0 1.72e-05
2490.0 1.73e-05
2495.0 1.73e-05
2500.0 1.73e-05
2505.0 1.73e-05
2510.0 1.73e-05
2515.0 1.74e-05
2520.0 1.74e-05
2525.0 1.74e-05
2530.0 1.75e-05
2535.0 1.75e-05
2540.0 1.75e-05
2545.0 1.76e-05
2550.0 1.76e-05
2555.0 1.76e-05
2560.0 1.77e-05
2565.0 1.77e-05
2570.0 1.77e-05
2575.0 1.78e-05
2580.0 1.78e-05
2585.0 1.79e-05
2590.0 1.79e-05
2595.0 1.8e-05
2600.0 1.8e-05
2605.0 1.8e-05
2610.0 1.81e-05
2615.0 1.81e-05
2620.0 1.82e-05
2625.0 1.82e-05
2630.0 1.83e-05
2635.0 1.84e-05
2640.0 1.84e-05
2645.0 1.85e-05
2650.0 1.85e-05
2655.0 1.86e-05
2660.0 1.86e-05
2665.0 1.87e-05
2670.0 1.88e-05
2675.0 1.88e-05
2680.0 1.89e-05
2685.0 1.9e-05
2690.0 1.9e-05
2695.0 1.91e-05
2700.0 1.92e-05
2705.0 1.93e-05
2710.0 1.93e-05
2715.0 1.94e-05
2720.0 1.95e-05
2725.0 1.96e-05
2730.0 1.97e-05
2735.0 1.97e-05
2740.0 1.98e-05
2745.0 1.99e-05
2750.0 2e-05
2755.0 2.01e-05
2760.0 2.02e-05
2765.0 2.03e-05
2770.0 2.04e-05
2775.0 2.05e-05
2780.0 2.06e-05
2785.0 2.07e-05
2790.0 2.08e-05
2795.0 2.09e-05
2800.0 2.1e-05
2805.0 2.12e-05
2810.0 2.13e-05
2815.0 2.14e-05
2820.0 2.15e-05
2825.0 2.16e-05
2830.0 2.18e-05
2835.0 2.19e-05
2840.0 2.2e-05
2845.0 2.22e-05
2850.0 2.23e-05
2855.0 2.24e-05
2860.0 2.25e-05
2865.0 2.27e-05
2870.0 2.29e-05
2875.0 2.3e-05
2880.0 2.32e-05
2885.0 2.33e-05
2890.0 2.35e-05
2895.0 2.36e-05
2900.0 2.38e-05
2905.0 2.4e-05
2910.0 2.41e-05
2915.0 2.43e-05
2920.0 2.45e-05
2925.0 2.47e-05
2930.0 2.48e-05
2935.0 2.5e-05
2940.0 2.52e-05
2945.0 2.54e-05
2950.0 2.56e-05
2955.0 2.58e-05
2960.0 2.6e-05
2965.0 2.63e-05
2970.0 2.65e-05
2975.0 2.67e-05
2980.0 2.69e-05
2985.0 2.71e-05
2990.0 2.73e-05
2995.0 2.76e-05
3000.0 2.78e-05
3005.0 2.81e-05
3010.0 2.83e-05
3015.0 2.86e-05
3020.0 2.88e-05
3025.0 2.91e-05
3030.0 2.94e-05
3035.0 2.97e-05
3040.0 3e-05
3045.0 3.02e-05
3050.0 3.05e-05
3055.0 3.08e-05
3060.0 3.11e-05
3065.0 3.15e-05
3070.0 3.18e-05
3075.0 3.21e-05
3080.0 3.24e-05
3085.0 3.28e-05
3090.0 3.31e-05
3095.0 3.35e-05
3100.0 3.39e-05
3105.0 3.42e-05
3110.0 3.46e-05
3115.0 3.5e-05
3120.0 3.54e-05
3125.0 3.58e-05
3130.0 3.62e-05
3135.0 3.66e-05
3140.0 3.7e-05
3145.0 3.75e-05
3150.0 3.79e-05
3155.0 3.84e-05
3160.0 3.89e-05
3165.0 3.93e-05
3170.0 3.98e-05
3175.0 4.03e-05
3180.0 4.08e-05
3185.0 4.14e-05
3190.0 4.19e-05
3195.0 4.24e-05
3200.0 4.3e-05
3205.0 4.36e-05
3210.0 4.41e-05
3215.0 4.47e-05
3220.0 4.53e-05
3225.0 4.59e-05
3230.0 4.66e-05
3235.0 4.72e-05
3240.0 4.79e-05
3245.0 4.86e-05
3250.0 4.93e-05
3255.0 5e-05
3260.0 5.07e-05
3265.0 5.14e-05
3270.0 5.22e-05
3275.0 5.29e-05
3280.0 5.37e-05
3285.0 5.45e-05
3290.0 5.54e-05
3295.0 5.62e-05
3300.0 5.71e-05
3305.0 5.8e-05
3310.0 5.89e-05
3315.0 5.98e-05
3320.0 6.07e-05
3325.0 6.17e-05
3330.0 6.27e-05
3335.0 6.37e-05
3340.0 6.48e-05
3345.0 6.58e-05
3350.0 6.69e-05
3355.0 6.8e-05
3360.0 6.91e-05
3365.0 7.03e-05
3370.0 7.15e-05
3375.0 7.27e-05
3380.0 7.4e-05
3385.0 7.52e-05
3390.0 7.65e-05
3395.0 7.79e-05
3400.0 7.92e-05
3405.0 8.06e-05
3410.0 8.2e-05
3415.0 8.35e-05
3420.0 8.5e-05
3425.0 8.65e-05
3430.0 8.81e-05
3435.0 8.97e-05
3440.0 9.13e-05
3445.0 9.3e-05
3450.0 9.47e-05
3455.0 9.64e-05
3460.0 9.82e-05
3465.0 0.0001
3470.0 0.000102
3475.0 0.000104
3480.0 0.000106
3485.0 0.000108
3490.0 0.00011
3495.0 0.000112
3500.0 0.000114
3505.0 0.000116
3510.0 0.000119
3515.0 0.000121
3520.0 0.000123
3525.0 0.000126
3530.0 0.000128
3535.0 0.00013
3540.0 0.000133
3545.0 0.000136
3550.0 0.000138
3555.0 0.000141
3560.0 0.000144
3565.0 0.000147
3570.0 0.000149
3575.0 0.000152
3580.0 0.000155
3585.0 0.000158
3590.0 0.000162
3595.0 0.000165
3600.0 0.000168
3605.0 0.000171
3610.0 0.000175
3615.0 0.000178
3620.0 0.000182
3625.0 0.000185
3630.0 0.000189
3635.0 0.000193
3640.0 0.000197
3645.0 0.000201
3650.0 0.000205
3655.0 0.000209
3660.0 0.000213
3665.0 0.000217
3670.0 0.000221
3675.0 0.000225
3680.0 0.00023
3685.0 0.000234
3690.0 0.000239
3695.0 0.000243
3700.0 0.000248
3705.0 0.000253
3710.0 0.000258
3715.0 0.000263
3720.0 0.000268
3725.0 0.000273
3730.0 0.000278
3735.0 0.000283
3740.0 0.000288
3745.0 0.000294
3750.0 0.000299
3755.0 0.000305
3760.0 0.00031
3765.0 0.000316
3770.0 0.000322
3775.0 0.000327
3780.0 0.000333
3785.0 0.000339
3790.0 0.000345
3795.0 0.000351
3800.0 0.000357
3805.0 0.000364
3810.0 0.00037
3815.0 0.000376
3820.0 0.000382
3825.0 0.000389
3830.0 0.000395
3835.0 0.000402
3840.0 0.000408
3845.0 0.000415
3850.0 0.000422
3855.0 0.000428
3860.0 0.000435
3865.0 0.000442
3870.0 0.000449
3875.0 0.000456
3880.0 0.000462
3885.0 0.000469
3890.0 0.000476
3895.0 0.000483
3900.0 0.00049
3905.0 0.000497
3910.0 0.000504
3915.0 0.000511
3920.0 0.000518
3925.0 0.000525
3930.0 0.000532
3935.0 0.000539
3940.0 0.000546
3945.0 0.000553
3950.0 0.00056
3955.0 0.000567
3960.0 0.000574
3965.0 0.000581
3970.0 0.000588
3975.0 0.000595
3980.0 0.000602
3985.0 0.000609
3990.0 0.000616
3995.0 0.000623
4000.0 0.00063
4005.0 0.000636
4010.0 0.000643
4015.0 0.00065
4020.0 0.000657
4025.0 0.000663
4030.0 0.00067
4035.0 0.000676
4040.0 0.000683
4045.0 0.000689
4050.0 0.000696
4055.0 0.000702
4060.0 0.000708
4065.0 0.000714
4070.0 0.000721
4075.0 0.000727
4080.0 0.000733
4085.0 0.000739
4090.0 0.000745
4095.0 0.00075
4100.0 0.000756
4105.0 0.000762
4110.0 0.000768
4115.0 0.000773
4120.0 0.000779
4125.0 0.000784
4130.0 0.00079
4135.0 0.000795
4140.0 0.0008
4145.0 0.000806
4150.0 0.000811
4155.0 0.000816
4160.0 0.000821
4165.0 0.000826
4170.0 0.000831
4175.0 0.000836
4180.0 0.000841
4185.0 0.000845
4190.0 0.00085
4195.0 0.000855
4200.0 0.000859
4205.0 0.000864
4210.0 0.000868
4215.0 0.000873
4220.0 0.000877
4225.0 0.000881
4230.0 0.000886
4235.0 0.00089
4240.0 0.000894
4245.0 0.000898
4250.0 0.000902
4255.0 0.000906
4260.0 0.00091
4265.0 0.000914
4270.0 0.000918
4275.0 0.000922
4280.0 0.000925
4285.0 0.000929
4290.0 0.000933
4295.0 0.000937
4300.0 0.00094
4305.0 0.000944
4310.0 0.000948
4315.0 0.000951
4320.0 0.000955
4325.0 0.000958
4330.0 0.000962
4335.0 0.000965
4340.0 0.000968
4345.0 0.000972
4350.0 0.000975
4355.0 0.000978
4360.0 0.000982
4365.0 0.000985
4370.0 0.000988
4375.0 0.000991
4380.0 0.000994
4385.0 0.000998
4390.0 0.001
4395.0 0.001
4400.0 0.00101
4405.0 0.00101
4410.0 0.00101
4415.0 0.00102
4420.0 0.00102
4425.0 0.00102
4430.0 0.00102
4435.0 0.00103
4440.0 0.00103
4445.0 0.00103
4450.0 0.00104
4455.0 0.00104
4460.0 0.00104
4465.0 0.00104
4470.0 0.00104
4475.0 0.00105
4480.0 0.00105
4485.0 0.00105
4490.0 0.00105
4495.0 0.00106
4500.0 0.00106
4505.0 0.00106
4510.0 0.00106
4515.0 0.00106
4520.0 0.00107
4525.0 0.00107
4530.0 0.00107
4535.0 0.00107
4540.0 0.00107
4545.0 0.00107
4550.0 0.00107
4555.0 0.00108
4560.0 0.00108
4565.0 0.00108
4570.0 0.00108
4575.0 0.00108
4580.0 0.00108
4585.0 0.00108
4590.0 0.00108
4595.0 0.00108
4600.0 0.00108
4605.0 0.00108
4610.0 0.00108
4615.0 0.00108
4620.0 0.00108
4625.0 0.00108
4630.0 0.00108
4635.0 0.00108
4640.0 0.00108
4645.0 0.00108
4650.0 0.00108
4655.0 0.00108
4660.0 0.00108
4665.0 0.00108
4670.0 0.00108
4675.0 0.00108
4680.0 0.00108
4685.0 0.00108
4690.0 0.00108
4695.0 0.00108
4700.0 0.00108
4705.0 0.00108
4710.0 0.00108
4715.0 0.00108
4720.0 0.00108
4725.0 0.00108
4730.0 0.00108
4735.0 0.00108
4740.0 0.00107
4745.0 0.00107
4750.0 0.00107
4755.0 0.00107
4760.0 0.00107
4765.0 0.00107
4770.0 0.00107
4775.0 0.00107
4780.0 0.00107
4785.0 0.00107
4790.0 0.00107
4795.0 0.00107
4800.0 0.00106
4805.0 0.00106
4810.0 0.00106
4815.0 0.00106
4820.0 0.00106
4825.0 0.00106
4830.0 0.00106
4835.0 0.00106
4840.0 0.00106
4845.0 0.00106
4850.0 0.00106
4855.0 0.00106
4860.0 0.00106
4865.0 0.00106
4870.0 0.00106
4875.0 0.00106
4880.0 0.00106
4885.0 0.00105
4890.0 0.00105
4895.0 0.00105
4900.0 0.00105
4905.0 0.00105
4910.0 0.00105
4915.0 0.00105
4920.0 0.00105
4925.0 0.00105
4930.0 0.00105
4935.0 0.00105
4940.0 0.00105
4945.0 0.00105
4950.0 0.00105
4955.0 0.00105
4960.0 0.00106
4965.0 0.00106
4970.0 0.00106
4975.0 0.00106
4980.0 0.00106
4985.0 0.00106
4990.0 0.00106
4995.0 0.00106
5000.0 0.00106
5005.0 0.00106
5010.0 0.00106
5015.0 0.00106
5020.0 0.00106
5025.0 0.00106
5030.0 0.00106
5035.0 0.00106
5040.0 0.00106
5045.0 0.00106
5050.0 0.00106
5055.0 0.00107
5060.0 0.00107
5065.0 0.00107
5070.0 0.00107
5075.0 0.00107
5080.0 0.00107
5085.0 0.00107
5090.0 0.00107
5095.0 0.00107
5100.0 0.00107
5105.0 0.00107
5110.0 0.00107
5115.0 0.00108
5120.0 0.00108
5125.0 0.00108
5130.0 0.00108
5135.0 0.00108
5140.0 0.00108
5145.0 0.00108
5150.0 0.00108
5155.0 0.00108
5160.0 0.00108
5165.0 0.00108
5170.0 0.00108
5175.0 0.00108
5180.0 0.00109
5185.0 0.00109
5190.0 0.00109
5195.0 0.00109
5200.0 0.00109
5205.0 0.00109
5210.0 0.00109
5215.0 0.00109
5220.0 0.00109
5225.0 0.00109
5230.0 0.00109
5235.0 0.00109
5240.0 0.00109
5245.0 0.00109
5250.0 0.00109
5255.0 0.00109
5260.0 0.00109
5265.0 0.00109
5270.0 0.00109
5275.0 0.00109
5280.0 0.00109
5285.0 0.0011
5290.0 0.0011
5295.0 0.0011
5300.0 0.0011
5305.0 0.0011
5310.0 0.0011
5315.0 0.0011
5320.0 0.0011
5325.0 0.0011
5330.0 0.0011
5335.0 0.0011
5340.0 0.0011
5345.0 0.0011
5350.0 0.00109
5355.0 0.00109
5360.0 0.00109
5365.0 0.00109
5370.0 0.00109
5375.0 0.00109
5380.0 0.00109
5385.0 0.00109
5390.0 0.00109
5395.0 0.00109
5400.0 0.00109
5405.0 0.00109
5410.0 0.00109
5415.0 0.00109
5420.0 0.00109
5425.0 0.00109
5430.0 0.00109
5435.0 0.00109
5440.0 0.00108
5445.0 0.00108
5450.0 0.00108
5455.0 0.00108
5460.0 0.00108
5465.0 0.00108
5470.0 0.00108
5475.0 0.00108
5480.0 0.00108
5485.0 0.00107
5490.0 0.00107
5495.0 0.00107
5500.0 0.00107
5505.0 0.00107
5510.0 0.00107
5515.0 0.00107
5520.0 0.00106
5525.0 0.00106
5530.0 0.00106
5535.0 0.00106
5540.0 0.00106
5545.0 0.00106
5550.0 0.00106
5555.0 0.00105
5560.0 0.00105
5565.0 0.00105
5570.0 0.00105
5575.0 0.00105
5580.0 0.00105
5585.0 0.00104
5590.0 0.00104
5595.0 0.00104
5600.0 0.00104
5605.0 0.00104
5610.0 0.00103
5615.0 0.00103
5620.0 0.00103
5625.0 0.00103
5630.0 0.00103
5635.0 0.00103
5640.0 0.00103
5645.0 0.00102
5650.0 0.00102
5655.0 0.00102
5660.0 0.00102
5665.0 0.00102
5670.0 0.00102
5675.0 0.00102
5680.0 0.00101
5685.0 0.00101
5690.0 0.00101
5695.0 0.00101
5700.0 0.00101
5705.0 0.00101
5710.0 0.00101
5715.0 0.00101
5720.0 0.001
5725.0 0.001
5730.0 0.001
5735.0 0.001
5740.0 0.001
5745.0 0.001
5750.0 0.000999
5755.0 0.000999
5760.0 0.000998
5765.0 0.000998
5770.0 0.000997
5775.0 0.000997
5780.0 0.000996
5785.0 0.000996
5790.0 0.000995
5795.0 0.000995
5800.0 0.000995
5805.0 0.000995
5810.0 0.000995
5815.0 0.000995
5820.0 0.000995
5825.0 0.000995
5830.0 0.000995
5835.0 0.000995
5840.0 0.000995
5845.0 0.000995
5850.0 0.000995
5855.0 0.000995
5860.0 0.000996
5865.0 0.000996
5870.0 0.000996
5875.0 0.000997
5880.0 0.000997
5885.0 0.000997
5890.0 0.000998
5895.0 0.000999
5900.0 0.000999
5905.0 0.001
5910.0 0.001
5915.0 0.001
5920.0 0.001
5925.0 0.001
5930.0 0.001
5935.0 0.001
5940.0 0.001
5945.0 0.00101
5950.0 0.00101
5955.0 0.00101
5960.0 0.00101
5965.0 0.00101
5970.0 0.00101
5975.0 0.00101
5980.0 0.00101
5985.0 0.00101
5990.0 0.00102
5995.0 0.00102
6000.0 0.00102
6005.0 0.00102
6010.0 0.00102
6015.0 0.00102
6020.0 0.00103
6025.0 0.00103
6030.0 0.00103
6035.0 0.00103
6040.0 0.00103
6045.0 0.00103
6050.0 0.00104
6055.0 0.00104
6060.0 0.00104
6065.0 0.00104
6070.0 0.00105
6075.0 0.00105
6080.0 0.00105
6085.0 0.00105
6090.0 0.00106
6095.0 0.00106
6100.0 0.00106
6105.0 0.00107
6110.0 0.00107
6115.0 0.00107
6120.0 0.00108
6125.0 0.00108
6130.0 0.00108
6135.0 0.00109
6140.0 0.00109
6145.0 0.00109
6150.0 0.0011
6155.0 0.0011
6160.0 0.0011
6165.0 0.00111
6170.0 0.00111
6175.0 0.00112
6180.0 0.00112
6185.0 0.00112
6190.0 0.00113
6195.0 0.00113
6200.0 0.00114
6205.0 0.00114
6210.0 0.00114
6215.0 0.00115
6220.0 0.00115
6225.0 0.00116
6230.0 0.00116
6235.0 0.00116
6240.0 0.00117
6245.0 0.00117
6250.0 0.00117
6255.0 0.00118
6260.0 0.00118
6265.0 0.00118
6270.0 0.00119
6275.0 0.00119
6280.0 0.00119
6285.0 0.0012
6290.0 0.0012
6295.0 0.0012
6300.0 0.0012
6305.0 0.00121
6310.0 0.00121
6315.0 0.00121
6320.0 0.00121
6325.0 0.00121
6330.0 0.00122
6335.0 0.00122
6340.0 0.00122
6345.0 0.00122
6350.0 0.00122
6355.0 0.00122
6360.0 0.00122
6365.0 0.00122
6370.0 0.00122
6375.0 0.00122
6380.0 0.00122
6385.0 0.00122
6390.0 0.00122
6395.0 0.00121
6400.0 0.00121
6405.0 0.00121
6410.0 0.00121
6415.0 0.00121
6420.0 0.0012
6425.0 0.0012
6430.0 0.0012
6435.0 0.0012
6440.0 0.00119
6445.0 0.00119
6450.0 0.00119
6455.0 0.00118
6460.0 0.00118
6465.0 0.00118
6470.0 0.00117
6475.0 0.00117
6480.0 0.00116
6485.0 0.00116
6490.0 0.00115
6495.0 0.00115
6500.0 0.00114
6505.0 0.00114
6510.0 0.00113
6515.0 0.00113
6520.0 0.00112
6525.0 0.00112
6530.0 0.00111
6535.0 0.00111
6540.0 0.0011
6545.0 0.0011
6550.0 0.00109
6555.0 0.00109
6560.0 0.00108
6565.0 0.00107
6570.0 0.00107
6575.0 0.00106
6580.0 0.00106
6585.0 0.00105
6590.0 0.00105
6595.0 0.00104
6600.0 0.00104
6605.0 0.00103
6610.0 0.00102
6615.0 0.00102
6620.0 0.00101
6625.0 0.00101
6630.0 0.001
6635.0 0.000998
6640.0 0.000993
6645.0 0.000988
6650.0 0.000983
6655.0 0.000978
6660.0 0.000973
6665.0 0.000968
6670.0 0.000964
6675.0 0.000959
6680.0 0.000955
6685.0 0.000951
6690.0 0.000946
6695.0 0.000942
6700.0 0.000938
6705.0 0.000934
6710.0 0.000931
6715.0 0.000927
6720.0 0.000924
6725.0 0.00092
6730.0 0.000917
6735.0 0.000914
6740.0 0.000911
6745.0 0.000908
6750.0 0.000905
6755.0 0.000902
6760.0 0.0009
6765.0 0.000897
6770.0 0.000895
6775.0 0.000893
6780.0 0.000891
6785.0 0.000889
6790.0 0.000887
6795.0 0.000886
6800.0 0.000884
6805.0 0.000883
6810.0 0.000882
6815.0 0.00088
6820.0 0.000879
6825.0 0.000879
6830.0 0.000878
6835.0 0.000877
6840.0 0.000877
6845.0 0.000877
6850.0 0.000876
6855.0 0.000876
6860.0 0.000876
6865.0 0.000877
6870.0 0.000877
6875.0 0.000877
6880.0 0.000878
6885.0 0.000879
6890.0 0.000879
6895.0 0.00088
6900.0 0.000881
6905.0 0.000883
6910.0 0.000884
6915.0 0.000885
6920.0 0.000887
6925.0 0.000888
6930.0 0.00089
6935.0 0.000892
6940.0 0.000893
6945.0 0.000895
6950.0 0.000897
6955.0 0.0009
6960.0 0.000902
6965.0 0.000904
6970.0 0.000907
6975.0 0.000909
6980.0 0.000911
6985.0 0.000914
6990.0 0.000917
6995.0 0.000919
7000.0 0.000922
7005.0 0.000925
7010.0 0.000928
7015.0 0.000931
7020.0 0.000934
7025.0 0.000937
7030.0 0.00094
7035.0 0.000943
7040.0 0.000946
7045.0 0.000949
7050.0 0.000952
7055.0 0.000955
7060.0 0.000958
7065.0 0.000961
7070.0 0.000964
7075.0 0.000967
7080.0 0.00097
7085.0 0.000973
7090.0 0.000976
7095.0 0.000979
7100.0 0.000982
7105.0 0.000985
7110.0 0.000987
7115.0 0.00099
7120.0 0.000993
7125.0 0.000995
7130.0 0.000998
7135.0 0.001
7140.0 0.001
7145.0 0.001
7150.0 0.00101
7155.0 0.00101
7160.0 0.00101
7165.0 0.00101
7170.0 0.00101
7175.0 0.00102
7180.0 0.00102
7185.0 0.00102
7190.0 0.00102
7195.0 0.00102
7200.0 0.00102
7205.0 0.00102
7210.0 0.00102
7215.0 0.00102
7220.0 0.00102
7225.0 0.00102
7230.0 0.00102
7235.0 0.00102
7240.0 0.00102
7245.0 0.00102
7250.0 0.00102
7255.0 0.00102
7260.0 0.00102
7265.0 0.00102
7270.0 0.00102
7275.0 0.00102
7280.0 0.00102
7285.0 0.00101
7290.0 0.00101
7295.0 0.00101
7300.0 0.00101
7305.0 0.00101
7310.0 0.001
7315.0 0.001
7320.0 0.000999
7325.0 0.000996
7330.0 0.000993
7335.0 0.00099
7340.0 0.000987
7345.0 0.000984
7350.0 0.000981
7355.0 0.000978
7360.0 0.000974
7365.0 0.000971
7370.0 0.000967
7375.0 0.000963
7380.0 0.00096
7385.0 0.000956
7390.0 0.000952
7395.0 0.000948
7400.0 0.000944
7405.0 0.00094
7410.0 0.000936
7415.0 0.000932
7420.0 0.000928
7425.0 0.000924
7430.0 0.00092
7435.0 0.000916
7440.0 0.000912
7445.0 0.000908
7450.0 0.000904
7455.0 0.0009
7460.0 0.000896
7465.0 0.000892
7470.0 0.000888
7475.0 0.000884
7480.0 0.00088
7485.0 0.000876
7490.0 0.000872
7495.0 0.000869
7500.0 0.000865
7505.0 0.000861
7510.0 0.000858
7515.0 0.000854
7520.0 0.000851
7525.0 0.000847
7530.0 0.000844
7535.0 0.00084
7540.0 0.000837
7545.0 0.000834
7550.0 0.000831
7555.0 0.000828
7560.0 0.000825
7565.0 0.000822
7570.0 0.000819
7575.0 0.000817
7580.0 0.000814
7585.0 0.000811
7590.0 0.000809
7595.0 0.000806
7600.0 0.000804
7605.0 0.000802
7610.0 0.000799
7615.0 0.000797
7620.0 0.000795
7625.0 0.000793
7630.0 0.000791
7635.0 0.000789
7640.0 0.000787
7645.0 0.000785
7650.0 0.000783
7655.0 0.000781
7660.0 0.000779
7665.0 0.000777
7670.0 0.000775
7675.0 0.000774
7680.0 0.000772
7685.0 0.00077
7690.0 0.000768
7695.0 0.000767
7700.0 0.000765
7705.0 0.000763
7710.0 0.000762
7715.0 0.00076
7720.0 0.000759
7725.0 0.000757
7730.0 0.000755
7735.0 0.000754
7740.0 0.000752
7745.0 0.00075
7750.0 0.000749
7755.0 0.000747
7760.0 0.000746
7765.0 0.000744
7770.0 0.000742
7775.0 0.000741
7780.0 0.000739
7785.0 0.000738
7790.0 0.000736
7795.0 0.000734
7800.0 0.000733
7805.0 0.000731
7810.0 0.000729
7815.0 0.000728
7820.0 0.000726
7825.0 0.000725
7830.0 0.000723
7835.0 0.000721
7840.0 0.00072
7845.0 0.000718
7850.0 0.000716
7855.0 0.000715
7860.0 0.000713
7865.0 0.000712
7870.0 0.00071
7875.0 0.000708
7880.0 0.000707
7885.0 0.000705
7890.0 0.000703
7895.0 0.000702
7900.0 0.0007
7905.0 0.000699
7910.0 0.000697
7915.0 0.000696
7920.0 0.000694
7925.0 0.000693
7930.0 0.000692
7935.0 0.00069
7940.0 0.000689
7945.0 0.000687
7950.0 0.000686
7955.0 0.000685
7960.0 0.000684
7965.0 0.000682
7970.0 0.000681
7975.0 0.00068
7980.0 0.000679
7985.0 0.000678
7990.0 0.000677
7995.0 0.000676
8000.0 0.000675
8005.0 0.000674
8010.0 0.000674
8015.0 0.000673
8020.0 0.000672
8025.0 0.000672
8030.0 0.000671
8035.0 0.00067
8040.0 0.00067
8045.0 0.00067
