#lamb flux
1605.0 0.00637
1610.0 0.00638
1615.0 0.00639
1620.0 0.0064
1625.0 0.00642
1630.0 0.00643
1635.0 0.00644
1640.0 0.00645
1645.0 0.00646
1650.0 0.00648
1655.0 0.00649
1660.0 0.0065
1665.0 0.00651
1670.0 0.00653
1675.0 0.00654
1680.0 0.00655
1685.0 0.00656
1690.0 0.00658
1695.0 0.00659
1700.0 0.0066
1705.0 0.00661
1710.0 0.00663
1715.0 0.00664
1720.0 0.00665
1725.0 0.00667
1730.0 0.00668
1735.0 0.00669
1740.0 0.0067
1745.0 0.00672
1750.0 0.00673
1755.0 0.00674
1760.0 0.00676
1765.0 0.00677
1770.0 0.00678
1775.0 0.0068
1780.0 0.00681
1785.0 0.00682
1790.0 0.00684
1795.0 0.00685
1800.0 0.00686
1805.0 0.00688
1810.0 0.00689
1815.0 0.0069
1820.0 0.00692
1825.0 0.00693
1830.0 0.00695
1835.0 0.00696
1840.0 0.00697
1845.0 0.00699
1850.0 0.007
1855.0 0.00702
1860.0 0.00703
1865.0 0.00704
1870.0 0.00706
1875.0 0.00707
1880.0 0.00709
1885.0 0.0071
1890.0 0.00712
1895.0 0.00713
1900.0 0.00714
1905.0 0.00716
1910.0 0.00717
1915.0 0.00719
1920.0 0.0072
1925.0 0.00722
1930.0 0.00723
1935.0 0.00725
1940.0 0.00726
1945.0 0.00728
1950.0 0.00729
1955.0 0.00731
1960.0 0.00732
1965.0 0.00734
1970.0 0.00735
1975.0 0.00737
1980.0 0.00738
1985.0 0.0074
1990.0 0.00741
1995.0 0.00743
2000.0 0.00744
2005.0 0.00746
2010.0 0.00747
2015.0 0.00749
2020.0 0.0075
2025.0 0.00752
2030.0 0.00754
2035.0 0.00755
2040.0 0.00757
2045.0 0.00758
2050.0 0.0076
2055.0 0.00761
2060.0 0.00763
2065.0 0.00765
2070.0 0.00766
2075.0 0.00768
2080.0 0.00769
2085.0 0.00771
2090.0 0.00772
2095.0 0.00774
2100.0 0.00776
2105.0 0.00777
2110.0 0.00779
2115.0 0.00781
2120.0 0.00782
2125.0 0.00784
2130.0 0.00785
2135.0 0.00787
2140.0 0.00789
2145.0 0.0079
2150.0 0.00792
2155.0 0.00794
2160.0 0.00795
2165.0 0.00797
2170.0 0.00799
2175.0 0.008
2180.0 0.00802
2185.0 0.00804
2190.0 0.00805
2195.0 0.00807
2200.0 0.00809
2205.0 0.0081
2210.0 0.00812
2215.0 0.00814
2220.0 0.00815
2225.0 0.00817
2230.0 0.00819
2235.0 0.0082
2240.0 0.00822
2245.0 0.00824
2250.0 0.00825
2255.0 0.00827
2260.0 0.00829
2265.0 0.00831
2270.0 0.00832
2275.0 0.00834
2280.0 0.00836
2285.0 0.00837
2290.0 0.00839
2295.0 0.00841
2300.0 0.00842
2305.0 0.00844
2310.0 0.00846
2315.0 0.00848
2320.0 0.00849
2325.0 0.00851
2330.0 0.00853
2335.0 0.00854
2340.0 0.00856
2345.0 0.00858
2350.0 0.0086
2355.0 0.00861
2360.0 0.00863
2365.0 0.00865
2370.0 0.00867
2375.0 0.00868
2380.0 0.0087
2385.0 0.00872
2390.0 0.00874
2395.0 0.00875
2400.0 0.00877
2405.0 0.00879
2410.0 0.0088
2415.0 0.00882
2420.0 0.00884
2425.0 0.00886
2430.0 0.00887
2435.0 0.00889
2440.0 0.00891
2445.0 0.00893
2450.0 0.00894
2455.0 0.00896
2460.0 0.00898
2465.0 0.009
2470.0 0.00901
2475.0 0.00903
2480.0 0.00905
2485.0 0.00906
2490.0 0.00908
2495.0 0.0091
2500.0 0.00912
2505.0 0.00913
2510.0 0.00915
2515.0 0.00917
2520.0 0.00919
2525.0 0.0092
2530.0 0.00922
2535.0 0.00924
2540.0 0.00926
2545.0 0.00927
2550.0 0.00929
2555.0 0.00931
2560.0 0.00933
2565.0 0.00934
2570.0 0.00936
2575.0 0.00938
2580.0 0.0094
2585.0 0.00941
2590.0 0.00943
2595.0 0.00945
2600.0 0.00947
2605.0 0.00948
2610.0 0.0095
2615.0 0.00952
2620.0 0.00954
2625.0 0.00955
2630.0 0.00957
2635.0 0.00959
2640.0 0.00961
2645.0 0.00962
2650.0 0.00964
2655.0 0.00966
2660.0 0.00968
2665.0 0.00969
2670.0 0.00971
2675.0 0.00973
2680.0 0.00975
2685.0 0.00976
2690.0 0.00978
2695.0 0.0098
2700.0 0.00982
2705.0 0.00983
2710.0 0.00985
2715.0 0.00987
2720.0 0.00989
2725.0 0.0099
2730.0 0.00992
2735.0 0.00994
2740.0 0.00996
2745.0 0.00997
2750.0 0.00999
2755.0 0.01
2760.0 0.01
2765.0 0.01
2770.0 0.0101
2775.0 0.0101
2780.0 0.0101
2785.0 0.0101
2790.0 0.0101
2795.0 0.0101
2800.0 0.0102
2805.0 0.0102
2810.0 0.0102
2815.0 0.0102
2820.0 0.0102
2825.0 0.0103
2830.0 0.0103
2835.0 0.0103
2840.0 0.0103
2845.0 0.0103
2850.0 0.0103
2855.0 0.0104
2860.0 0.0104
2865.0 0.0104
2870.0 0.0104
2875.0 0.0104
2880.0 0.0104
2885.0 0.0105
2890.0 0.0105
2895.0 0.0105
2900.0 0.0105
2905.0 0.0105
2910.0 0.0106
2915.0 0.0106
2920.0 0.0106
2925.0 0.0106
2930.0 0.0106
2935.0 0.0106
2940.0 0.0107
2945.0 0.0107
2950.0 0.0107
2955.0 0.0107
2960.0 0.0107
2965.0 0.0108
2970.0 0.0108
2975.0 0.0108
2980.0 0.0108
2985.0 0.0108
2990.0 0.0108
2995.0 0.0109
3000.0 0.0109
3005.0 0.0109
3010.0 0.0109
3015.0 0.0109
3020.0 0.011
3025.0 0.011
3030.0 0.011
3035.0 0.011
3040.0 0.011
3045.0 0.0111
3050.0 0.0111
3055.0 0.0111
3060.0 0.0111
3065.0 0.0111
3070.0 0.0111
3075.0 0.0112
3080.0 0.0112
3085.0 0.0112
3090.0 0.0112
3095.0 0.0112
3100.0 0.0113
3105.0 0.0113
3110.0 0.0113
3115.0 0.0113
3120.0 0.0113
3125.0 0.0114
3130.0 0.0114
3135.0 0.0114
3140.0 0.0114
3145.0 0.0115
3150.0 0.0115
3155.0 0.0115
3160.0 0.0115
3165.0 0.0115
3170.0 0.0116
3175.0 0.0116
3180.0 0.0116
3185.0 0.0116
3190.0 0.0116
3195.0 0.0117
3200.0 0.0117
3205.0 0.0117
3210.0 0.0117
3215.0 0.0118
3220.0 0.0118
3225.0 0.0118
3230.0 0.0118
3235.0 0.0119
3240.0 0.0119
3245.0 0.0119
3250.0 0.0119
3255.0 0.012
3260.0 0.012
3265.0 0.012
3270.0 0.012
3275.0 0.0121
3280.0 0.0121
3285.0 0.0121
3290.0 0.0121
3295.0 0.0122
3300.0 0.0122
3305.0 0.0122
3310.0 0.0123
3315.0 0.0123
3320.0 0.0123
3325.0 0.0124
3330.0 0.0124
3335.0 0.0128
3340.0 0.0131
3345.0 0.0135
3350.0 0.0144
3355.0 0.0149
3360.0 0.0135
3365.0 0.0133
3370.0 0.0133
3375.0 0.0135
3380.0 0.0138
3385.0 0.0136
3390.0 0.0136
3395.0 0.0133
3400.0 0.0134
3405.0 0.0138
3410.0 0.0142
3415.0 0.0148
3420.0 0.0153
3425.0 0.0156
3430.0 0.016
3435.0 0.016
3440.0 0.0157
3445.0 0.0159
3450.0 0.0159
3455.0 0.0154
3460.0 0.0151
3465.0 0.0151
3470.0 0.0154
3475.0 0.0156
3480.0 0.0158
3485.0 0.0157
3490.0 0.0156
3495.0 0.0158
3500.0 0.0163
3505.0 0.0164
3510.0 0.0169
3515.0 0.0173
3520.0 0.0177
3525.0 0.018
3530.0 0.0182
3535.0 0.0183
3540.0 0.0182
3545.0 0.0179
3550.0 0.0176
3555.0 0.0179
3560.0 0.0183
3565.0 0.0185
3570.0 0.0188
3575.0 0.0193
3580.0 0.0195
3585.0 0.02
3590.0 0.0205
3595.0 0.0206
3600.0 0.0205
3605.0 0.0206
3610.0 0.0207
3615.0 0.0207
3620.0 0.0206
3625.0 0.0205
3630.0 0.02
3635.0 0.0197
3640.0 0.0195
3645.0 0.0192
3650.0 0.0187
3655.0 0.0182
3660.0 0.0178
3665.0 0.0179
3670.0 0.0179
3675.0 0.0179
3680.0 0.0182
3685.0 0.0185
3690.0 0.0189
3695.0 0.0195
3700.0 0.02
3705.0 0.0203
3710.0 0.0203
3715.0 0.0206
3720.0 0.0207
3725.0 0.0208
3730.0 0.0207
3735.0 0.0205
3740.0 0.0207
3745.0 0.0207
3750.0 0.0209
3755.0 0.0214
3760.0 0.0217
3765.0 0.0221
3770.0 0.0226
3775.0 0.0232
3780.0 0.0239
3785.0 0.0244
3790.0 0.0249
3795.0 0.0254
3800.0 0.0257
3805.0 0.026
3810.0 0.0264
3815.0 0.027
3820.0 0.0278
3825.0 0.0287
3830.0 0.0294
3835.0 0.0302
3840.0 0.031
3845.0 0.0318
3850.0 0.0324
3855.0 0.0329
3860.0 0.0333
3865.0 0.0337
3870.0 0.0338
3875.0 0.0339
3880.0 0.0336
3885.0 0.0333
3890.0 0.033
3895.0 0.0328
3900.0 0.0328
3905.0 0.033
3910.0 0.0333
3915.0 0.0338
3920.0 0.034
3925.0 0.0345
3930.0 0.0348
3935.0 0.0352
3940.0 0.0356
3945.0 0.0359
3950.0 0.0361
3955.0 0.0363
3960.0 0.0366
3965.0 0.0369
3970.0 0.0369
3975.0 0.0367
3980.0 0.0366
3985.0 0.0364
3990.0 0.0362
3995.0 0.036
4000.0 0.0355
4005.0 0.0351
4010.0 0.0348
4015.0 0.0344
4020.0 0.0341
4025.0 0.0337
4030.0 0.0335
4035.0 0.0333
4040.0 0.033
4045.0 0.0329
4050.0 0.0329
4055.0 0.0329
4060.0 0.0329
4065.0 0.0329
4070.0 0.033
4075.0 0.0331
4080.0 0.0334
4085.0 0.0338
4090.0 0.034
4095.0 0.034
4100.0 0.0341
4105.0 0.0342
4110.0 0.0343
4115.0 0.0341
4120.0 0.0338
4125.0 0.0338
4130.0 0.0338
4135.0 0.0337
4140.0 0.0336
4145.0 0.0333
4150.0 0.0333
4155.0 0.033
4160.0 0.0328
4165.0 0.0328
4170.0 0.0327
4175.0 0.0328
4180.0 0.0329
4185.0 0.033
4190.0 0.0332
4195.0 0.0333
4200.0 0.0333
4205.0 0.0333
4210.0 0.0332
4215.0 0.0333
4220.0 0.0333
4225.0 0.0333
4230.0 0.0332
4235.0 0.033
4240.0 0.0329
4245.0 0.0328
4250.0 0.0326
4255.0 0.0325
4260.0 0.0323
4265.0 0.0322
4270.0 0.0322
4275.0 0.0324
4280.0 0.0324
4285.0 0.0325
4290.0 0.0325
4295.0 0.0328
4300.0 0.033
4305.0 0.0332
4310.0 0.0333
4315.0 0.0335
4320.0 0.0338
4325.0 0.034
4330.0 0.0344
4335.0 0.0348
4340.0 0.035
4345.0 0.0352
4350.0 0.0356
4355.0 0.036
4360.0 0.0365
4365.0 0.0372
4370.0 0.0377
4375.0 0.038
4380.0 0.0384
4385.0 0.0387
4390.0 0.039
4395.0 0.0394
4400.0 0.0399
4405.0 0.0403
4410.0 0.0409
4415.0 0.0413
4420.0 0.0419
4425.0 0.0425
4430.0 0.0431
4435.0 0.044
4440.0 0.0447
4445.0 0.0455
4450.0 0.0462
4455.0 0.0469
4460.0 0.0477
4465.0 0.0483
4470.0 0.0487
4475.0 0.0491
4480.0 0.0492
4485.0 0.0492
4490.0 0.049
4495.0 0.0486
4500.0 0.0484
4505.0 0.0481
4510.0 0.0477
4515.0 0.0472
4520.0 0.0468
4525.0 0.0465
4530.0 0.0461
4535.0 0.0458
4540.0 0.0455
4545.0 0.0454
4550.0 0.0453
4555.0 0.0453
4560.0 0.0451
4565.0 0.0449
4570.0 0.0444
4575.0 0.0441
4580.0 0.0439
4585.0 0.0435
4590.0 0.0432
4595.0 0.0428
4600.0 0.0426
4605.0 0.0424
4610.0 0.0423
4615.0 0.0421
4620.0 0.0422
4625.0 0.0423
4630.0 0.0424
4635.0 0.0427
4640.0 0.0429
4645.0 0.043
4650.0 0.0431
4655.0 0.0429
4660.0 0.043
4665.0 0.0428
4670.0 0.0426
4675.0 0.0423
4680.0 0.042
4685.0 0.0416
4690.0 0.0415
4695.0 0.0413
4700.0 0.041
4705.0 0.0409
4710.0 0.0407
4715.0 0.0405
4720.0 0.0406
4725.0 0.0408
4730.0 0.041
4735.0 0.0414
4740.0 0.0417
4745.0 0.0422
4750.0 0.0427
4755.0 0.0431
4760.0 0.0436
4765.0 0.0442
4770.0 0.0447
4775.0 0.0453
4780.0 0.0458
4785.0 0.0461
4790.0 0.0462
4795.0 0.0463
4800.0 0.0461
4805.0 0.046
4810.0 0.0456
4815.0 0.0453
4820.0 0.0449
4825.0 0.0443
4830.0 0.044
4835.0 0.0437
4840.0 0.0432
4845.0 0.0428
4850.0 0.0426
4855.0 0.0424
4860.0 0.0425
4865.0 0.0425
4870.0 0.0427
4875.0 0.0431
4880.0 0.0436
4885.0 0.0442
4890.0 0.0449
4895.0 0.0454
4900.0 0.0458
4905.0 0.0463
4910.0 0.0467
4915.0 0.0469
4920.0 0.047
4925.0 0.0468
4930.0 0.0464
4935.0 0.0458
4940.0 0.0452
4945.0 0.0445
4950.0 0.0438
4955.0 0.0433
4960.0 0.043
4965.0 0.0426
4970.0 0.0424
4975.0 0.0426
4980.0 0.0428
4985.0 0.0429
4990.0 0.0433
4995.0 0.0439
5000.0 0.0444
5005.0 0.045
5010.0 0.0454
5015.0 0.0459
5020.0 0.0464
5025.0 0.0467
5030.0 0.0471
5035.0 0.0474
5040.0 0.0478
5045.0 0.0482
5050.0 0.0487
5055.0 0.0492
5060.0 0.0497
5065.0 0.0502
5070.0 0.0506
5075.0 0.051
5080.0 0.0514
5085.0 0.0517
5090.0 0.0521
5095.0 0.0525
5100.0 0.0527
5105.0 0.053
5110.0 0.0534
5115.0 0.0539
5120.0 0.0542
5125.0 0.0546
5130.0 0.055
5135.0 0.0555
5140.0 0.0558
5145.0 0.0561
5150.0 0.0564
5155.0 0.0568
5160.0 0.0571
5165.0 0.0574
5170.0 0.0576
5175.0 0.0579
5180.0 0.0581
5185.0 0.0584
5190.0 0.0586
5195.0 0.0588
5200.0 0.0591
5205.0 0.0594
5210.0 0.0597
5215.0 0.0599
5220.0 0.0602
5225.0 0.0605
5230.0 0.0609
5235.0 0.0614
5240.0 0.0619
5245.0 0.0623
5250.0 0.0629
5255.0 0.0636
5260.0 0.0642
5265.0 0.065
5270.0 0.0659
5275.0 0.0668
5280.0 0.0677
5285.0 0.0685
5290.0 0.0692
5295.0 0.07
5300.0 0.0707
5305.0 0.0712
5310.0 0.0716
5315.0 0.0721
5320.0 0.0724
5325.0 0.0726
5330.0 0.0726
5335.0 0.0725
5340.0 0.0723
5345.0 0.0722
5350.0 0.0721
5355.0 0.0718
5360.0 0.0715
5365.0 0.0712
5370.0 0.0708
5375.0 0.0704
5380.0 0.0699
5385.0 0.0694
5390.0 0.0689
5395.0 0.0684
5400.0 0.0677
5405.0 0.0673
5410.0 0.0669
5415.0 0.0664
5420.0 0.0661
5425.0 0.0657
5430.0 0.0653
5435.0 0.065
5440.0 0.065
5445.0 0.0649
5450.0 0.0648
5455.0 0.0647
5460.0 0.0647
5465.0 0.0644
5470.0 0.0642
5475.0 0.0639
5480.0 0.0634
5485.0 0.0628
5490.0 0.0622
5495.0 0.0615
5500.0 0.0609
5505.0 0.0603
5510.0 0.0597
5515.0 0.059
5520.0 0.0584
5525.0 0.0577
5530.0 0.0571
5535.0 0.0566
5540.0 0.056
5545.0 0.0555
5550.0 0.0551
5555.0 0.0547
5560.0 0.0543
5565.0 0.0541
5570.0 0.0538
5575.0 0.0535
5580.0 0.0534
5585.0 0.0536
5590.0 0.0536
5595.0 0.0537
5600.0 0.054
5605.0 0.0543
5610.0 0.0547
5615.0 0.0552
5620.0 0.0557
5625.0 0.0562
5630.0 0.0566
5635.0 0.0572
5640.0 0.0577
5645.0 0.0583
5650.0 0.0589
5655.0 0.0593
5660.0 0.06
5665.0 0.0605
5670.0 0.0609
5675.0 0.0614
5680.0 0.0618
5685.0 0.0621
5690.0 0.0622
5695.0 0.0625
5700.0 0.0628
5705.0 0.0629
5710.0 0.0631
5715.0 0.0634
5720.0 0.0639
5725.0 0.0642
5730.0 0.0646
5735.0 0.0648
5740.0 0.065
5745.0 0.0652
5750.0 0.0654
5755.0 0.0656
5760.0 0.0657
5765.0 0.0656
5770.0 0.0655
5775.0 0.0652
5780.0 0.0648
5785.0 0.0645
5790.0 0.0641
5795.0 0.0637
5800.0 0.0633
5805.0 0.0632
5810.0 0.0631
5815.0 0.0629
5820.0 0.0629
5825.0 0.0631
5830.0 0.0633
5835.0 0.0635
5840.0 0.0635
5845.0 0.0632
5850.0 0.0627
5855.0 0.0624
5860.0 0.0623
5865.0 0.0619
5870.0 0.0614
5875.0 0.061
5880.0 0.0605
5885.0 0.0601
5890.0 0.0597
5895.0 0.0595
5900.0 0.0595
5905.0 0.0595
5910.0 0.0595
5915.0 0.0597
5920.0 0.0597
5925.0 0.06
5930.0 0.0602
5935.0 0.0602
5940.0 0.0603
5945.0 0.0603
5950.0 0.0603
5955.0 0.06
5960.0 0.0598
5965.0 0.0597
5970.0 0.0596
5975.0 0.0596
5980.0 0.0593
5985.0 0.0588
5990.0 0.0583
5995.0 0.0578
6000.0 0.0573
6005.0 0.0565
6010.0 0.0557
6015.0 0.0549
6020.0 0.0541
6025.0 0.0535
6030.0 0.0528
6035.0 0.0522
6040.0 0.0517
6045.0 0.0511
6050.0 0.0505
6055.0 0.0502
6060.0 0.0499
6065.0 0.0496
6070.0 0.0495
6075.0 0.0492
6080.0 0.0489
6085.0 0.0489
6090.0 0.0486
6095.0 0.0485
6100.0 0.0485
6105.0 0.0486
6110.0 0.0487
6115.0 0.0487
6120.0 0.0486
6125.0 0.0486
6130.0 0.0484
6135.0 0.0485
6140.0 0.0486
6145.0 0.0486
6150.0 0.0484
6155.0 0.0482
6160.0 0.0482
6165.0 0.0481
6170.0 0.0481
6175.0 0.0483
6180.0 0.0483
6185.0 0.0484
6190.0 0.0486
6195.0 0.0488
6200.0 0.0492
6205.0 0.0495
6210.0 0.0498
6215.0 0.0502
6220.0 0.0505
6225.0 0.0509
6230.0 0.0512
6235.0 0.0515
6240.0 0.052
6245.0 0.0524
6250.0 0.0527
6255.0 0.053
6260.0 0.0531
6265.0 0.0532
6270.0 0.0531
6275.0 0.0529
6280.0 0.053
6285.0 0.0531
6290.0 0.053
6295.0 0.0529
6300.0 0.0528
6305.0 0.0528
6310.0 0.053
6315.0 0.0534
6320.0 0.0536
6325.0 0.0538
6330.0 0.0541
6335.0 0.0546
6340.0 0.0549
6345.0 0.0553
6350.0 0.0556
6355.0 0.0559
6360.0 0.0561
6365.0 0.0564
6370.0 0.0564
6375.0 0.0564
6380.0 0.0564
6385.0 0.0564
6390.0 0.0565
6395.0 0.0566
6400.0 0.0565
6405.0 0.0566
6410.0 0.0564
6415.0 0.0563
6420.0 0.0563
6425.0 0.0564
6430.0 0.0565
6435.0 0.0563
6440.0 0.0562
6445.0 0.056
6450.0 0.0561
6455.0 0.0562
6460.0 0.0563
6465.0 0.0562
6470.0 0.056
6475.0 0.056
6480.0 0.0562
6485.0 0.0562
6490.0 0.0563
6495.0 0.0564
6500.0 0.0566
6505.0 0.0569
6510.0 0.0571
6515.0 0.0572
6520.0 0.0572
6525.0 0.0574
6530.0 0.0575
6535.0 0.0575
6540.0 0.0573
6545.0 0.0572
6550.0 0.0571
6555.0 0.0569
6560.0 0.0566
6565.0 0.0564
6570.0 0.0561
6575.0 0.0559
6580.0 0.0556
6585.0 0.0554
6590.0 0.0553
6595.0 0.0553
6600.0 0.0551
6605.0 0.0549
6610.0 0.0547
6615.0 0.0545
6620.0 0.0542
6625.0 0.054
6630.0 0.0538
6635.0 0.0536
6640.0 0.0534
6645.0 0.0531
6650.0 0.0528
6655.0 0.0524
6660.0 0.0521
6665.0 0.0517
6670.0 0.0514
6675.0 0.051
6680.0 0.0507
6685.0 0.0504
6690.0 0.0503
6695.0 0.0501
6700.0 0.0499
6705.0 0.0497
6710.0 0.0496
6715.0 0.0495
6720.0 0.0494
6725.0 0.0495
6730.0 0.0496
6735.0 0.0498
6740.0 0.0498
6745.0 0.0498
6750.0 0.0498
6755.0 0.0496
6760.0 0.0494
6765.0 0.0492
6770.0 0.049
6775.0 0.0488
6780.0 0.0487
6785.0 0.0484
6790.0 0.0482
6795.0 0.0481
6800.0 0.0479
6805.0 0.0476
6810.0 0.0473
6815.0 0.0472
6820.0 0.047
6825.0 0.0467
6830.0 0.0463
6835.0 0.0459
6840.0 0.0455
6845.0 0.0451
6850.0 0.0446
6855.0 0.0441
6860.0 0.0436
6865.0 0.0433
6870.0 0.043
6875.0 0.0428
6880.0 0.0427
6885.0 0.0427
6890.0 0.0429
6895.0 0.0432
6900.0 0.0435
6905.0 0.0439
6910.0 0.0441
6915.0 0.0444
6920.0 0.0445
6925.0 0.0446
6930.0 0.0447
6935.0 0.0448
6940.0 0.0449
6945.0 0.0448
6950.0 0.0446
6955.0 0.0444
6960.0 0.0443
6965.0 0.0441
6970.0 0.044
6975.0 0.044
6980.0 0.0442
6985.0 0.0444
6990.0 0.0446
6995.0 0.0446
7000.0 0.0446
7005.0 0.0445
7010.0 0.0445
7015.0 0.0445
7020.0 0.0445
7025.0 0.0445
7030.0 0.0446
7035.0 0.0446
7040.0 0.0446
7045.0 0.0444
7050.0 0.0441
7055.0 0.0437
7060.0 0.0432
7065.0 0.0425
7070.0 0.042
7075.0 0.0416
7080.0 0.0412
7085.0 0.041
7090.0 0.0408
7095.0 0.0406
7100.0 0.0406
7105.0 0.0407
7110.0 0.041
7115.0 0.0414
7120.0 0.0419
7125.0 0.0424
7130.0 0.0428
7135.0 0.0431
7140.0 0.0436
7145.0 0.0438
7150.0 0.0437
7155.0 0.0436
7160.0 0.0438
7165.0 0.044
7170.0 0.0442
7175.0 0.0442
7180.0 0.0441
7185.0 0.0441
7190.0 0.0442
7195.0 0.0445
7200.0 0.0448
7205.0 0.045
7210.0 0.0449
7215.0 0.0448
7220.0 0.0447
7225.0 0.0444
7230.0 0.0441
7235.0 0.044
7240.0 0.0437
7245.0 0.0435
7250.0 0.0433
7255.0 0.0432
7260.0 0.0429
7265.0 0.0426
7270.0 0.0423
7275.0 0.042
7280.0 0.0419
7285.0 0.0417
7290.0 0.0413
7295.0 0.0408
7300.0 0.0405
7305.0 0.0403
7310.0 0.0402
7315.0 0.0401
7320.0 0.04
7325.0 0.0399
7330.0 0.0399
7335.0 0.0401
7340.0 0.0403
7345.0 0.0403
7350.0 0.0402
7355.0 0.04
7360.0 0.0398
7365.0 0.0397
7370.0 0.0397
7375.0 0.0398
7380.0 0.04
7385.0 0.04
7390.0 0.0398
7395.0 0.0397
7400.0 0.0394
7405.0 0.0391
7410.0 0.0389
7415.0 0.0388
7420.0 0.0388
7425.0 0.0389
7430.0 0.039
7435.0 0.039
7440.0 0.039
7445.0 0.0389
7450.0 0.0388
7455.0 0.0388
7460.0 0.0389
7465.0 0.0391
7470.0 0.0392
7475.0 0.0395
7480.0 0.0396
7485.0 0.0397
7490.0 0.0396
7495.0 0.0394
7500.0 0.0392
7505.0 0.0389
7510.0 0.0388
7515.0 0.0387
7520.0 0.0388
7525.0 0.0388
7530.0 0.0386
7535.0 0.0384
7540.0 0.0384
7545.0 0.0383
7550.0 0.0383
7555.0 0.0383
7560.0 0.0383
7565.0 0.0383
7570.0 0.0382
7575.0 0.0381
7580.0 0.038
7585.0 0.038
7590.0 0.038
7595.0 0.0382
7600.0 0.0384
7605.0 0.0386
7610.0 0.0387
7615.0 0.0387
7620.0 0.0387
7625.0 0.0385
7630.0 0.0384
7635.0 0.0383
7640.0 0.0383
7645.0 0.0383
7650.0 0.0383
7655.0 0.0383
7660.0 0.0383
7665.0 0.0383
7670.0 0.038
7675.0 0.0377
7680.0 0.0374
7685.0 0.0375
7690.0 0.0377
7695.0 0.0378
7700.0 0.038
7705.0 0.0383
7710.0 0.0383
7715.0 0.0382
7720.0 0.0381
7725.0 0.0378
7730.0 0.0375
7735.0 0.0376
7740.0 0.0378
7745.0 0.0381
7750.0 0.0383
7755.0 0.0385
7760.0 0.0386
7765.0 0.0388
7770.0 0.0387
7775.0 0.0386
7780.0 0.0387
7785.0 0.0387
7790.0 0.0388
7795.0 0.039
7800.0 0.0392
7805.0 0.0393
7810.0 0.0393
7815.0 0.0391
7820.0 0.0388
7825.0 0.0385
7830.0 0.0383
7835.0 0.0381
7840.0 0.038
7845.0 0.0379
7850.0 0.0377
7855.0 0.0375
7860.0 0.0371
7865.0 0.0365
7870.0 0.0356
7875.0 0.0349
7880.0 0.0341
7885.0 0.0334
7890.0 0.0327
7895.0 0.032
7900.0 0.0315
7905.0 0.0309
7910.0 0.0304
7915.0 0.0298
7920.0 0.0293
7925.0 0.0287
7930.0 0.0279
7935.0 0.0275
7940.0 0.0272
7945.0 0.0268
7950.0 0.0267
7955.0 0.0265
7960.0 0.0263
7965.0 0.0261
7970.0 0.0258
7975.0 0.0255
7980.0 0.0253
7985.0 0.0251
7990.0 0.0251
7995.0 0.0251
8000.0 0.0251
8005.0 0.025
8010.0 0.0248
8015.0 0.0246
8020.0 0.0241
8025.0 0.0235
8030.0 0.0231
8035.0 0.0227
8040.0 0.0224
8045.0 0.0221
8050.0 0.0217
8055.0 0.0215
8060.0 0.0213
8065.0 0.0214
8070.0 0.0214
8075.0 0.0213
8080.0 0.0214
8085.0 0.0214
8090.0 0.0215
8095.0 0.0217
8100.0 0.022
8105.0 0.0221
8110.0 0.0221
8115.0 0.0221
8120.0 0.0219
8125.0 0.022
8130.0 0.022
8135.0 0.022
8140.0 0.022
8145.0 0.0221
8150.0 0.0222
8155.0 0.0223
8160.0 0.0223
8165.0 0.0225
8170.0 0.0227
8175.0 0.0229
8180.0 0.0232
8185.0 0.0234
8190.0 0.0235
8195.0 0.0236
8200.0 0.0241
8205.0 0.0246
8210.0 0.025
8215.0 0.0254
8220.0 0.0258
8225.0 0.0264
8230.0 0.0266
8235.0 0.0271
8240.0 0.0278
8245.0 0.0284
8250.0 0.0286
8255.0 0.0288
8260.0 0.029
8265.0 0.0297
8270.0 0.0304
8275.0 0.0308
8280.0 0.0315
8285.0 0.032
8290.0 0.0327
8295.0 0.0334
8300.0 0.0342
8305.0 0.0349
8310.0 0.0357
8315.0 0.0362
8320.0 0.0366
8325.0 0.0367
8330.0 0.0369
8335.0 0.037
8340.0 0.0372
8345.0 0.0374
8350.0 0.0373
8355.0 0.0372
8360.0 0.0372
8365.0 0.0373
8370.0 0.0373
8375.0 0.0373
8380.0 0.0377
8385.0 0.0381
8390.0 0.0382
8395.0 0.0384
8400.0 0.0387
8405.0 0.039
8410.0 0.0397
8415.0 0.0399
8420.0 0.0403
8425.0 0.0405
8430.0 0.0407
8435.0 0.0409
8440.0 0.0411
8445.0 0.0398
8450.0 0.0382
8455.0 0.0384
8460.0 0.0385
8465.0 0.0387
8470.0 0.0388
8475.0 0.0389
8480.0 0.039
8485.0 0.0391
8490.0 0.0392
8495.0 0.0393
8500.0 0.0393
8505.0 0.0394
8510.0 0.0395
8515.0 0.0395
8520.0 0.0396
8525.0 0.0396
8530.0 0.0397
8535.0 0.0397
8540.0 0.0397
8545.0 0.0397
8550.0 0.0397
8555.0 0.0397
8560.0 0.0397
8565.0 0.0397
8570.0 0.0397
8575.0 0.0397
8580.0 0.0396
8585.0 0.0396
8590.0 0.0396
8595.0 0.0395
8600.0 0.0395
8605.0 0.0394
8610.0 0.0394
8615.0 0.0393
8620.0 0.0393
8625.0 0.0392
8630.0 0.0391
8635.0 0.0391
8640.0 0.039
8645.0 0.0389
8650.0 0.0388
8655.0 0.0387
8660.0 0.0387
8665.0 0.0386
8670.0 0.0385
8675.0 0.0384
8680.0 0.0383
8685.0 0.0382
8690.0 0.0381
8695.0 0.038
8700.0 0.0379
8705.0 0.0378
8710.0 0.0377
