#lamb flux
1605.0 0.0441
1610.0 0.0444
1615.0 0.0447
1620.0 0.045
1625.0 0.0453
1630.0 0.0456
1635.0 0.0459
1640.0 0.0462
1645.0 0.0466
1650.0 0.0469
1655.0 0.0473
1660.0 0.0476
1665.0 0.0479
1670.0 0.0483
1675.0 0.0486
1680.0 0.049
1685.0 0.0494
1690.0 0.0497
1695.0 0.0501
1700.0 0.0505
1705.0 0.0509
1710.0 0.0513
1715.0 0.0516
1720.0 0.0521
1725.0 0.0525
1730.0 0.053
1735.0 0.0534
1740.0 0.0538
1745.0 0.0543
1750.0 0.0547
1755.0 0.0551
1760.0 0.0556
1765.0 0.0562
1770.0 0.0567
1775.0 0.0572
1780.0 0.0577
1785.0 0.0582
1790.0 0.0587
1795.0 0.0592
1800.0 0.0598
1805.0 0.0604
1810.0 0.061
1815.0 0.0616
1820.0 0.0622
1825.0 0.0628
1830.0 0.0634
1835.0 0.064
1840.0 0.0647
1845.0 0.0654
1850.0 0.0662
1855.0 0.0669
1860.0 0.0676
1865.0 0.0683
1870.0 0.069
1875.0 0.0698
1880.0 0.0706
1885.0 0.0715
1890.0 0.0724
1895.0 0.0732
1900.0 0.0741
1905.0 0.075
1910.0 0.0758
1915.0 0.0767
1920.0 0.0777
1925.0 0.0787
1930.0 0.0798
1935.0 0.0808
1940.0 0.0818
1945.0 0.0829
1950.0 0.0839
1955.0 0.0849
1960.0 0.0862
1965.0 0.0874
1970.0 0.0887
1975.0 0.0899
1980.0 0.0912
1985.0 0.0924
1990.0 0.0937
1995.0 0.0949
2000.0 0.0966
2005.0 0.0983
2010.0 0.1
2015.0 0.102
2020.0 0.103
2025.0 0.105
2030.0 0.107
2035.0 0.109
2040.0 0.111
2045.0 0.113
2050.0 0.115
2055.0 0.117
2060.0 0.119
2065.0 0.121
2070.0 0.124
2075.0 0.126
2080.0 0.128
2085.0 0.13
2090.0 0.132
2095.0 0.134
2100.0 0.136
2105.0 0.138
2110.0 0.14
2115.0 0.142
2120.0 0.143
2125.0 0.143
2130.0 0.144
2135.0 0.145
2140.0 0.146
2145.0 0.147
2150.0 0.147
2155.0 0.148
2160.0 0.148
2165.0 0.147
2170.0 0.147
2175.0 0.147
2180.0 0.146
2185.0 0.146
2190.0 0.146
2195.0 0.145
2200.0 0.145
2205.0 0.144
2210.0 0.143
2215.0 0.142
2220.0 0.142
2225.0 0.141
2230.0 0.14
2235.0 0.139
2240.0 0.138
2245.0 0.137
2250.0 0.135
2255.0 0.134
2260.0 0.133
2265.0 0.131
2270.0 0.13
2275.0 0.129
2280.0 0.128
2285.0 0.127
2290.0 0.126
2295.0 0.126
2300.0 0.125
2305.0 0.124
2310.0 0.123
2315.0 0.122
2320.0 0.123
2325.0 0.123
2330.0 0.123
2335.0 0.123
2340.0 0.123
2345.0 0.123
2350.0 0.123
2355.0 0.123
2360.0 0.124
2365.0 0.124
2370.0 0.124
2375.0 0.125
2380.0 0.125
2385.0 0.126
2390.0 0.126
2395.0 0.126
2400.0 0.126
2405.0 0.125
2410.0 0.125
2415.0 0.125
2420.0 0.124
2425.0 0.124
2430.0 0.124
2435.0 0.123
2440.0 0.123
2445.0 0.122
2450.0 0.121
2455.0 0.121
2460.0 0.12
2465.0 0.119
2470.0 0.118
2475.0 0.118
2480.0 0.118
2485.0 0.118
2490.0 0.118
2495.0 0.118
2500.0 0.118
2505.0 0.118
2510.0 0.118
2515.0 0.118
2520.0 0.117
2525.0 0.117
2530.0 0.117
2535.0 0.117
2540.0 0.117
2545.0 0.117
2550.0 0.116
2555.0 0.116
2560.0 0.114
2565.0 0.112
2570.0 0.11
2575.0 0.108
2580.0 0.107
2585.0 0.105
2590.0 0.103
2595.0 0.101
2600.0 0.1
2605.0 0.099
2610.0 0.0978
2615.0 0.0966
2620.0 0.0955
2625.0 0.0943
2630.0 0.0931
2635.0 0.0922
2640.0 0.0918
2645.0 0.0915
2650.0 0.0911
2655.0 0.0907
2660.0 0.0903
2665.0 0.09
2670.0 0.0896
2675.0 0.0894
2680.0 0.0896
2685.0 0.0897
2690.0 0.0898
2695.0 0.09
2700.0 0.0901
2705.0 0.0903
2710.0 0.0904
2715.0 0.0911
2720.0 0.0925
2725.0 0.0939
2730.0 0.0953
2735.0 0.0967
2740.0 0.098
2745.0 0.0994
2750.0 0.101
2755.0 0.102
2760.0 0.104
2765.0 0.105
2770.0 0.107
2775.0 0.108
2780.0 0.109
2785.0 0.111
2790.0 0.112
2795.0 0.113
2800.0 0.114
2805.0 0.114
2810.0 0.114
2815.0 0.114
2820.0 0.115
2825.0 0.115
2830.0 0.115
2835.0 0.115
2840.0 0.115
2845.0 0.114
2850.0 0.114
2855.0 0.114
2860.0 0.113
2865.0 0.113
2870.0 0.113
2875.0 0.112
2880.0 0.112
2885.0 0.112
2890.0 0.111
2895.0 0.111
2900.0 0.11
2905.0 0.11
2910.0 0.109
2915.0 0.109
2920.0 0.108
2925.0 0.108
2930.0 0.107
2935.0 0.107
2940.0 0.106
2945.0 0.106
2950.0 0.105
2955.0 0.104
2960.0 0.104
2965.0 0.103
2970.0 0.102
2975.0 0.102
2980.0 0.101
2985.0 0.1
2990.0 0.0993
2995.0 0.0985
3000.0 0.0976
3005.0 0.0967
3010.0 0.0957
3015.0 0.0948
3020.0 0.0938
3025.0 0.0929
3030.0 0.092
3035.0 0.0911
3040.0 0.0902
3045.0 0.0894
3050.0 0.0886
3055.0 0.0879
3060.0 0.0872
3065.0 0.0866
3070.0 0.086
3075.0 0.0855
3080.0 0.0851
3085.0 0.0848
3090.0 0.0845
3095.0 0.0843
3100.0 0.0842
3105.0 0.0841
3110.0 0.0841
3115.0 0.0842
3120.0 0.0843
3125.0 0.0844
3130.0 0.0846
3135.0 0.0866
3140.0 0.0897
3145.0 0.0909
3150.0 0.0909
3155.0 0.0909
3160.0 0.0909
3165.0 0.0908
3170.0 0.0908
3175.0 0.0908
3180.0 0.0907
3185.0 0.0907
3190.0 0.0906
3195.0 0.0903
3200.0 0.0901
3205.0 0.0898
3210.0 0.0894
3215.0 0.0888
3220.0 0.0883
3225.0 0.0876
3230.0 0.0868
3235.0 0.0859
3240.0 0.085
3245.0 0.0838
3250.0 0.082
3255.0 0.0808
3260.0 0.0801
3265.0 0.0792
3270.0 0.0786
3275.0 0.0778
3280.0 0.0775
3285.0 0.0772
3290.0 0.0773
3295.0 0.077
3300.0 0.0771
3305.0 0.0767
3310.0 0.0765
3315.0 0.0766
3320.0 0.077
3325.0 0.0771
3330.0 0.0773
3335.0 0.0776
3340.0 0.0776
3345.0 0.0777
3350.0 0.0774
3355.0 0.0773
3360.0 0.0769
3365.0 0.0764
3370.0 0.0759
3375.0 0.0752
3380.0 0.0745
3385.0 0.0738
3390.0 0.073
3395.0 0.0722
3400.0 0.0716
3405.0 0.071
3410.0 0.0703
3415.0 0.0697
3420.0 0.0693
3425.0 0.0689
3430.0 0.0684
3435.0 0.0681
3440.0 0.0678
3445.0 0.0675
3450.0 0.0672
3455.0 0.067
3460.0 0.0668
3465.0 0.0666
3470.0 0.0664
3475.0 0.0661
3480.0 0.0659
3485.0 0.0656
3490.0 0.0654
3495.0 0.0651
3500.0 0.0647
3505.0 0.0642
3510.0 0.0637
3515.0 0.0632
3520.0 0.0626
3525.0 0.062
3530.0 0.0615
3535.0 0.0609
3540.0 0.0603
3545.0 0.0596
3550.0 0.0591
3555.0 0.0586
3560.0 0.0581
3565.0 0.0576
3570.0 0.0571
3575.0 0.0566
3580.0 0.0563
3585.0 0.056
3590.0 0.0558
3595.0 0.0557
3600.0 0.0556
3605.0 0.0555
3610.0 0.0554
3615.0 0.0553
3620.0 0.0552
3625.0 0.0551
3630.0 0.055
3635.0 0.0549
3640.0 0.0548
3645.0 0.0546
3650.0 0.0545
3655.0 0.0543
3660.0 0.0542
3665.0 0.054
3670.0 0.0538
3675.0 0.0536
3680.0 0.0535
3685.0 0.0534
3690.0 0.0533
3695.0 0.0532
3700.0 0.0532
3705.0 0.0532
3710.0 0.0532
3715.0 0.0532
3720.0 0.0532
3725.0 0.0532
3730.0 0.0532
3735.0 0.0532
3740.0 0.0531
3745.0 0.0531
3750.0 0.053
3755.0 0.0529
3760.0 0.0528
3765.0 0.0526
3770.0 0.0524
3775.0 0.0522
3780.0 0.052
3785.0 0.0518
3790.0 0.0517
3795.0 0.0514
3800.0 0.0512
3805.0 0.051
3810.0 0.0508
3815.0 0.0507
3820.0 0.0505
3825.0 0.0503
3830.0 0.0502
3835.0 0.0502
3840.0 0.0501
3845.0 0.0501
3850.0 0.05
3855.0 0.05
3860.0 0.0499
3865.0 0.0499
3870.0 0.0498
3875.0 0.0497
3880.0 0.0496
3885.0 0.0495
3890.0 0.0494
3895.0 0.0493
3900.0 0.0492
3905.0 0.049
3910.0 0.0488
3915.0 0.0486
3920.0 0.0484
3925.0 0.0482
3930.0 0.048
3935.0 0.0479
3940.0 0.0478
3945.0 0.0477
3950.0 0.0476
3955.0 0.0476
3960.0 0.0477
3965.0 0.0477
3970.0 0.0478
3975.0 0.0479
3980.0 0.0481
3985.0 0.0483
3990.0 0.0485
3995.0 0.0487
4000.0 0.0489
4005.0 0.0491
4010.0 0.0492
4015.0 0.0494
4020.0 0.0494
4025.0 0.0495
4030.0 0.0495
4035.0 0.0494
4040.0 0.0493
4045.0 0.0491
4050.0 0.0489
4055.0 0.0487
4060.0 0.0484
4065.0 0.0481
4070.0 0.0478
4075.0 0.0475
4080.0 0.0472
4085.0 0.0469
4090.0 0.0466
4095.0 0.0463
4100.0 0.0461
4105.0 0.0458
4110.0 0.0456
4115.0 0.0453
4120.0 0.0451
4125.0 0.0449
4130.0 0.0446
4135.0 0.0444
4140.0 0.0441
4145.0 0.0438
4150.0 0.0435
4155.0 0.0432
4160.0 0.0429
4165.0 0.0425
4170.0 0.0422
4175.0 0.0419
4180.0 0.0417
4185.0 0.0415
4190.0 0.0413
4195.0 0.0412
4200.0 0.0411
4205.0 0.041
4210.0 0.041
4215.0 0.041
4220.0 0.041
4225.0 0.0411
4230.0 0.0412
4235.0 0.0412
4240.0 0.0413
4245.0 0.0414
4250.0 0.0415
4255.0 0.0416
4260.0 0.0416
4265.0 0.0417
4270.0 0.0417
4275.0 0.0417
4280.0 0.0416
4285.0 0.0416
4290.0 0.0415
4295.0 0.0414
4300.0 0.0414
4305.0 0.0413
4310.0 0.0412
4315.0 0.0411
4320.0 0.041
4325.0 0.0409
4330.0 0.0408
4335.0 0.0407
4340.0 0.0406
4345.0 0.0405
4350.0 0.0403
4355.0 0.0401
4360.0 0.04
4365.0 0.0397
4370.0 0.0395
4375.0 0.0393
4380.0 0.0391
4385.0 0.0388
4390.0 0.0386
4395.0 0.0383
4400.0 0.0381
4405.0 0.0379
4410.0 0.0376
4415.0 0.0373
4420.0 0.0371
4425.0 0.0369
4430.0 0.0367
4435.0 0.0365
4440.0 0.0363
4445.0 0.0361
4450.0 0.0359
4455.0 0.0358
4460.0 0.0356
4465.0 0.0355
4470.0 0.0354
4475.0 0.0353
4480.0 0.0352
4485.0 0.0351
4490.0 0.0351
4495.0 0.035
4500.0 0.035
4505.0 0.035
4510.0 0.035
4515.0 0.0349
4520.0 0.0349
4525.0 0.0349
4530.0 0.0348
4535.0 0.0348
4540.0 0.0347
4545.0 0.0347
4550.0 0.0346
4555.0 0.0345
4560.0 0.0344
4565.0 0.0343
4570.0 0.0341
4575.0 0.034
4580.0 0.0338
4585.0 0.0336
4590.0 0.0334
4595.0 0.0332
4600.0 0.033
4605.0 0.0328
4610.0 0.0326
4615.0 0.0324
4620.0 0.0322
4625.0 0.032
4630.0 0.0318
4635.0 0.0317
4640.0 0.0315
4645.0 0.0314
4650.0 0.0312
4655.0 0.0311
4660.0 0.031
4665.0 0.0309
4670.0 0.0308
4675.0 0.0308
4680.0 0.0307
4685.0 0.0307
4690.0 0.0308
4695.0 0.0308
4700.0 0.0308
4705.0 0.0309
4710.0 0.031
4715.0 0.031
4720.0 0.0311
4725.0 0.0312
4730.0 0.0313
4735.0 0.0313
4740.0 0.0314
4745.0 0.0315
4750.0 0.0316
4755.0 0.0316
4760.0 0.0317
4765.0 0.0317
4770.0 0.0317
4775.0 0.0317
4780.0 0.0317
4785.0 0.0317
4790.0 0.0317
4795.0 0.0317
4800.0 0.0316
4805.0 0.0316
4810.0 0.0315
4815.0 0.0315
4820.0 0.0314
4825.0 0.0314
4830.0 0.0313
4835.0 0.0313
4840.0 0.0313
4845.0 0.0312
4850.0 0.0312
4855.0 0.0311
4860.0 0.031
4865.0 0.031
4870.0 0.0309
4875.0 0.0308
4880.0 0.0308
4885.0 0.0307
4890.0 0.0306
4895.0 0.0305
4900.0 0.0304
4905.0 0.0303
4910.0 0.0302
4915.0 0.0301
4920.0 0.0299
4925.0 0.0298
4930.0 0.0297
4935.0 0.0295
4940.0 0.0294
4945.0 0.0293
4950.0 0.0291
4955.0 0.029
4960.0 0.0288
4965.0 0.0287
4970.0 0.0286
4975.0 0.0285
4980.0 0.0283
4985.0 0.0282
4990.0 0.0281
4995.0 0.028
5000.0 0.0278
5005.0 0.0277
5010.0 0.0276
5015.0 0.0275
5020.0 0.0274
5025.0 0.0273
5030.0 0.0272
5035.0 0.0271
5040.0 0.027
5045.0 0.0269
5050.0 0.0268
5055.0 0.0267
5060.0 0.0266
5065.0 0.0265
5070.0 0.0264
5075.0 0.0263
5080.0 0.0262
5085.0 0.0261
5090.0 0.0261
5095.0 0.026
5100.0 0.0259
5105.0 0.0258
5110.0 0.0257
5115.0 0.0256
5120.0 0.0255
5125.0 0.0254
5130.0 0.0254
5135.0 0.0253
5140.0 0.0252
5145.0 0.0251
5150.0 0.025
5155.0 0.025
5160.0 0.0249
5165.0 0.0248
5170.0 0.0247
5175.0 0.0246
5180.0 0.0245
5185.0 0.0245
5190.0 0.0244
5195.0 0.0243
5200.0 0.0242
5205.0 0.0241
5210.0 0.0241
5215.0 0.024
5220.0 0.0239
5225.0 0.0238
5230.0 0.0237
5235.0 0.0237
5240.0 0.0236
5245.0 0.0235
5250.0 0.0234
5255.0 0.0234
5260.0 0.0233
5265.0 0.0232
5270.0 0.0231
5275.0 0.0231
5280.0 0.023
5285.0 0.023
5290.0 0.0229
5295.0 0.0229
5300.0 0.0228
5305.0 0.0228
5310.0 0.0227
5315.0 0.0227
5320.0 0.0226
5325.0 0.0226
5330.0 0.0225
5335.0 0.0225
5340.0 0.0224
5345.0 0.0224
5350.0 0.0223
5355.0 0.0223
5360.0 0.0222
5365.0 0.0222
5370.0 0.0221
5375.0 0.022
5380.0 0.0219
5385.0 0.0219
5390.0 0.0218
5395.0 0.0217
5400.0 0.0216
5405.0 0.0215
5410.0 0.0215
5415.0 0.0214
5420.0 0.0213
5425.0 0.0212
5430.0 0.0211
5435.0 0.0211
5440.0 0.021
5445.0 0.021
5450.0 0.0209
5455.0 0.0208
5460.0 0.0208
5465.0 0.0208
5470.0 0.0207
5475.0 0.0207
5480.0 0.0206
5485.0 0.0206
5490.0 0.0206
5495.0 0.0205
5500.0 0.0205
5505.0 0.0205
5510.0 0.0205
5515.0 0.0204
5520.0 0.0204
5525.0 0.0204
5530.0 0.0204
5535.0 0.0204
5540.0 0.0204
5545.0 0.0203
5550.0 0.0203
5555.0 0.0203
5560.0 0.0203
5565.0 0.0203
5570.0 0.0203
5575.0 0.0202
5580.0 0.0202
5585.0 0.0202
5590.0 0.0201
5595.0 0.0201
5600.0 0.02
5605.0 0.0199
5610.0 0.0199
5615.0 0.0198
5620.0 0.0198
5625.0 0.0197
5630.0 0.0197
5635.0 0.0197
5640.0 0.0196
5645.0 0.0196
5650.0 0.0196
5655.0 0.0196
5660.0 0.0196
5665.0 0.0196
5670.0 0.0196
5675.0 0.0196
5680.0 0.0196
5685.0 0.0196
5690.0 0.0197
5695.0 0.0197
5700.0 0.0198
5705.0 0.0198
5710.0 0.0198
5715.0 0.0199
5720.0 0.0199
5725.0 0.0199
5730.0 0.0199
5735.0 0.02
5740.0 0.02
5745.0 0.02
5750.0 0.0201
5755.0 0.0201
5760.0 0.0201
5765.0 0.0201
5770.0 0.0202
5775.0 0.0202
5780.0 0.0202
5785.0 0.0202
5790.0 0.0202
5795.0 0.0202
5800.0 0.0202
5805.0 0.0202
5810.0 0.0202
5815.0 0.0201
5820.0 0.0201
5825.0 0.02
5830.0 0.0199
5835.0 0.0199
5840.0 0.0198
5845.0 0.0197
5850.0 0.0196
5855.0 0.0195
5860.0 0.0194
5865.0 0.0193
5870.0 0.0192
5875.0 0.0191
5880.0 0.019
5885.0 0.0189
5890.0 0.0188
5895.0 0.0188
5900.0 0.0187
5905.0 0.0186
5910.0 0.0185
5915.0 0.0185
5920.0 0.0184
5925.0 0.0184
5930.0 0.0183
5935.0 0.0182
5940.0 0.0182
5945.0 0.0181
5950.0 0.018
5955.0 0.018
5960.0 0.0179
5965.0 0.0178
5970.0 0.0177
5975.0 0.0176
5980.0 0.0175
5985.0 0.0174
5990.0 0.0173
5995.0 0.0172
6000.0 0.0171
6005.0 0.017
6010.0 0.017
6015.0 0.0169
6020.0 0.0168
6025.0 0.0167
6030.0 0.0167
6035.0 0.0166
6040.0 0.0165
6045.0 0.0164
6050.0 0.0164
6055.0 0.0163
6060.0 0.0163
6065.0 0.0162
6070.0 0.0161
6075.0 0.0161
6080.0 0.016
6085.0 0.016
6090.0 0.0159
6095.0 0.0159
6100.0 0.0158
6105.0 0.0158
6110.0 0.0157
6115.0 0.0156
6120.0 0.0155
6125.0 0.0155
6130.0 0.0154
6135.0 0.0153
6140.0 0.0152
6145.0 0.0152
6150.0 0.0151
6155.0 0.015
6160.0 0.0149
6165.0 0.0148
6170.0 0.0147
6175.0 0.0147
6180.0 0.0146
6185.0 0.0145
6190.0 0.0145
6195.0 0.0144
6200.0 0.0144
6205.0 0.0143
6210.0 0.0143
6215.0 0.0142
6220.0 0.0142
6225.0 0.0141
6230.0 0.0141
6235.0 0.014
6240.0 0.014
6245.0 0.014
6250.0 0.0139
6255.0 0.0139
6260.0 0.0139
6265.0 0.0139
6270.0 0.0139
6275.0 0.0139
6280.0 0.0139
6285.0 0.014
6290.0 0.014
6295.0 0.0141
6300.0 0.0141
6305.0 0.0142
6310.0 0.0143
6315.0 0.0144
6320.0 0.0145
6325.0 0.0146
6330.0 0.0148
6335.0 0.0149
6340.0 0.015
6345.0 0.0152
6350.0 0.0153
6355.0 0.0155
6360.0 0.0156
6365.0 0.0158
6370.0 0.0159
6375.0 0.0161
6380.0 0.0162
6385.0 0.0163
6390.0 0.0164
6395.0 0.0166
6400.0 0.0167
6405.0 0.0168
6410.0 0.0168
6415.0 0.0169
6420.0 0.017
6425.0 0.017
6430.0 0.0171
6435.0 0.0171
6440.0 0.0172
6445.0 0.0172
6450.0 0.0172
6455.0 0.0172
6460.0 0.0173
6465.0 0.0173
6470.0 0.0173
6475.0 0.0173
6480.0 0.0173
6485.0 0.0173
6490.0 0.0172
6495.0 0.0172
6500.0 0.0172
6505.0 0.0172
6510.0 0.0172
6515.0 0.0171
6520.0 0.0171
6525.0 0.0171
6530.0 0.017
6535.0 0.017
6540.0 0.017
6545.0 0.0169
6550.0 0.0169
6555.0 0.0168
6560.0 0.0168
6565.0 0.0168
6570.0 0.0167
6575.0 0.0167
6580.0 0.0166
6585.0 0.0165
6590.0 0.0165
6595.0 0.0164
6600.0 0.0163
6605.0 0.0162
6610.0 0.0161
6615.0 0.016
6620.0 0.0159
6625.0 0.0158
6630.0 0.0156
6635.0 0.0155
6640.0 0.0154
6645.0 0.0153
6650.0 0.0152
6655.0 0.0151
6660.0 0.015
6665.0 0.0149
6670.0 0.0148
6675.0 0.0147
6680.0 0.0146
6685.0 0.0145
6690.0 0.0145
6695.0 0.0144
6700.0 0.0143
6705.0 0.0142
6710.0 0.0141
6715.0 0.014
6720.0 0.0139
6725.0 0.0138
6730.0 0.0138
6735.0 0.0137
6740.0 0.0136
6745.0 0.0135
6750.0 0.0135
6755.0 0.0134
6760.0 0.0133
6765.0 0.0132
6770.0 0.0132
6775.0 0.0131
6780.0 0.0131
6785.0 0.013
6790.0 0.0129
6795.0 0.0129
6800.0 0.0128
6805.0 0.0128
6810.0 0.0127
6815.0 0.0126
6820.0 0.0126
6825.0 0.0125
6830.0 0.0125
6835.0 0.0125
6840.0 0.0124
6845.0 0.0124
6850.0 0.0123
6855.0 0.0123
6860.0 0.0123
6865.0 0.0123
6870.0 0.0122
6875.0 0.0122
6880.0 0.0122
6885.0 0.0122
6890.0 0.0121
6895.0 0.0121
6900.0 0.0121
6905.0 0.0121
6910.0 0.0121
6915.0 0.012
6920.0 0.012
6925.0 0.012
6930.0 0.0119
6935.0 0.0119
6940.0 0.0119
6945.0 0.0118
6950.0 0.0118
6955.0 0.0118
6960.0 0.0117
6965.0 0.0117
6970.0 0.0117
6975.0 0.0116
6980.0 0.0116
6985.0 0.0116
6990.0 0.0115
6995.0 0.0115
7000.0 0.0115
7005.0 0.0115
7010.0 0.0114
7015.0 0.0114
7020.0 0.0114
7025.0 0.0114
7030.0 0.0114
7035.0 0.0113
7040.0 0.0113
7045.0 0.0113
7050.0 0.0113
7055.0 0.0113
7060.0 0.0113
7065.0 0.0112
7070.0 0.0112
7075.0 0.0112
7080.0 0.0112
7085.0 0.0111
7090.0 0.0111
7095.0 0.0111
7100.0 0.0111
7105.0 0.011
7110.0 0.011
7115.0 0.011
7120.0 0.011
7125.0 0.011
7130.0 0.0109
7135.0 0.0109
7140.0 0.0109
7145.0 0.0109
7150.0 0.0109
7155.0 0.0108
7160.0 0.0108
7165.0 0.0108
7170.0 0.0108
7175.0 0.0107
7180.0 0.0107
7185.0 0.0107
7190.0 0.0106
7195.0 0.0106
7200.0 0.0106
7205.0 0.0106
7210.0 0.0105
7215.0 0.0105
7220.0 0.0105
7225.0 0.0104
7230.0 0.0104
7235.0 0.0103
7240.0 0.0103
7245.0 0.0103
7250.0 0.0102
7255.0 0.0102
7260.0 0.0102
7265.0 0.0101
7270.0 0.0101
7275.0 0.01
7280.0 0.01
7285.0 0.00998
7290.0 0.00995
7295.0 0.00992
7300.0 0.00989
7305.0 0.00986
7310.0 0.00984
7315.0 0.00982
7320.0 0.00979
7325.0 0.00977
7330.0 0.00975
7335.0 0.00973
7340.0 0.00971
7345.0 0.00969
7350.0 0.00967
7355.0 0.00964
7360.0 0.00961
7365.0 0.00959
7370.0 0.00956
7375.0 0.00953
7380.0 0.0095
7385.0 0.00947
7390.0 0.00945
7395.0 0.00943
7400.0 0.0094
7405.0 0.00938
7410.0 0.00935
7415.0 0.00933
7420.0 0.00931
7425.0 0.0093
7430.0 0.00928
7435.0 0.00926
7440.0 0.00924
7445.0 0.00923
7450.0 0.00921
7455.0 0.0092
7460.0 0.00919
7465.0 0.00917
7470.0 0.00916
7475.0 0.00914
7480.0 0.00912
7485.0 0.00912
7490.0 0.00911
7495.0 0.00909
7500.0 0.00907
7505.0 0.00906
7510.0 0.00904
7515.0 0.00902
7520.0 0.009
7525.0 0.00898
7530.0 0.00896
7535.0 0.00895
7540.0 0.00893
7545.0 0.00892
7550.0 0.0089
7555.0 0.00888
7560.0 0.00887
7565.0 0.00884
7570.0 0.00882
7575.0 0.00881
7580.0 0.0088
7585.0 0.00878
7590.0 0.00876
7595.0 0.00875
7600.0 0.00873
7605.0 0.00871
7610.0 0.0087
7615.0 0.00868
7620.0 0.00867
7625.0 0.00866
7630.0 0.00865
7635.0 0.00863
7640.0 0.00862
7645.0 0.00861
7650.0 0.00859
7655.0 0.00858
7660.0 0.00856
7665.0 0.00854
7670.0 0.00852
7675.0 0.00851
7680.0 0.00851
7685.0 0.0085
7690.0 0.00848
7695.0 0.00847
7700.0 0.00846
7705.0 0.00844
7710.0 0.00842
7715.0 0.00841
7720.0 0.00839
7725.0 0.00838
7730.0 0.00836
7735.0 0.00835
7740.0 0.00833
7745.0 0.00831
7750.0 0.0083
7755.0 0.00829
7760.0 0.00828
7765.0 0.00826
7770.0 0.00825
7775.0 0.00824
7780.0 0.00822
7785.0 0.00821
7790.0 0.0082
7795.0 0.00818
7800.0 0.00817
7805.0 0.00816
7810.0 0.00815
7815.0 0.00815
7820.0 0.00813
7825.0 0.00812
7830.0 0.0081
7835.0 0.00809
7840.0 0.00808
7845.0 0.00807
7850.0 0.00807
7855.0 0.00805
7860.0 0.00804
7865.0 0.00803
7870.0 0.00802
7875.0 0.008
7880.0 0.00799
7885.0 0.00797
7890.0 0.00797
7895.0 0.00795
7900.0 0.00793
7905.0 0.00791
7910.0 0.00791
7915.0 0.00789
7920.0 0.00787
7925.0 0.00786
7930.0 0.00785
7935.0 0.00783
7940.0 0.00782
7945.0 0.00781
7950.0 0.00779
7955.0 0.00778
7960.0 0.00777
7965.0 0.00777
7970.0 0.00776
7975.0 0.00775
7980.0 0.00774
7985.0 0.00774
7990.0 0.00773
7995.0 0.00772
8000.0 0.00772
8005.0 0.00772
8010.0 0.00771
8015.0 0.0077
8020.0 0.00769
8025.0 0.00768
8030.0 0.00767
8035.0 0.00765
8040.0 0.00764
8045.0 0.00764
8050.0 0.00762
8055.0 0.00761
8060.0 0.00759
8065.0 0.00759
8070.0 0.00757
8075.0 0.00756
8080.0 0.00756
8085.0 0.00756
8090.0 0.00755
8095.0 0.00753
8100.0 0.00753
8105.0 0.00753
8110.0 0.00752
8115.0 0.0075
8120.0 0.0075
8125.0 0.00749
8130.0 0.00747
8135.0 0.00746
8140.0 0.00746
8145.0 0.00746
8150.0 0.00745
8155.0 0.00744
8160.0 0.00744
8165.0 0.00744
8170.0 0.00742
8175.0 0.00741
8180.0 0.0074
8185.0 0.0074
8190.0 0.00739
8195.0 0.00737
8200.0 0.00736
8205.0 0.00735
8210.0 0.00733
8215.0 0.0073
8220.0 0.00729
8225.0 0.00728
8230.0 0.00726
8235.0 0.00723
8240.0 0.00721
8245.0 0.00719
8250.0 0.00717
8255.0 0.00715
8260.0 0.00713
8265.0 0.00712
8270.0 0.00712
8275.0 0.00711
8280.0 0.00709
8285.0 0.00709
8290.0 0.00709
8295.0 0.00709
8300.0 0.00708
8305.0 0.00707
8310.0 0.00706
8315.0 0.00705
8320.0 0.00703
8325.0 0.007
8330.0 0.007
8335.0 0.00699
8340.0 0.00697
8345.0 0.00693
8350.0 0.00691
8355.0 0.0069
8360.0 0.00688
8365.0 0.00684
8370.0 0.00681
8375.0 0.0068
8380.0 0.0068
8385.0 0.00678
8390.0 0.00675
8395.0 0.00673
8400.0 0.00674
8405.0 0.00672
8410.0 0.0067
8415.0 0.0067
8420.0 0.00672
8425.0 0.00672
8430.0 0.00669
8435.0 0.00668
8440.0 0.0067
8445.0 0.00671
8450.0 0.00669
8455.0 0.00666
8460.0 0.00666
8465.0 0.00666
8470.0 0.00665
8475.0 0.00662
8480.0 0.00661
8485.0 0.00662
8490.0 0.0066
8495.0 0.00656
8500.0 0.00653
8505.0 0.00654
8510.0 0.00654
8515.0 0.0065
8520.0 0.00647
8525.0 0.00646
8530.0 0.00647
8535.0 0.00647
8540.0 0.00644
8545.0 0.00642
8550.0 0.00641
8555.0 0.00642
8560.0 0.00641
8565.0 0.00639
8570.0 0.00638
8575.0 0.00638
8580.0 0.00639
8585.0 0.00636
8590.0 0.00634
8595.0 0.00634
8600.0 0.00633
8605.0 0.00632
8610.0 0.00631
8615.0 0.00629
8620.0 0.00628
8625.0 0.00627
8630.0 0.00626
8635.0 0.00625
8640.0 0.00623
8645.0 0.00622
8650.0 0.00621
8655.0 0.0062
8660.0 0.0062
8665.0 0.00617
8670.0 0.00613
8675.0 0.00613
8680.0 0.00615
8685.0 0.00614
8690.0 0.00609
8695.0 0.00608
8700.0 0.00609
8705.0 0.00611
8710.0 0.00608
8715.0 0.00603
8720.0 0.00601
8725.0 0.00603
8730.0 0.00603
8735.0 0.006
8740.0 0.00594
8745.0 0.00593
8750.0 0.00596
