#lamb flux
2450 2.4163e-05
2460 2.4974e-05
2470 2.5879e-05
2480 2.6892e-05
2490 2.8014e-05
2500 2.9158e-05
2510 3.0382e-05
2520 3.1809e-05
2530 3.2992e-05
2540 3.389e-05
2550 3.5185e-05
2560 3.6652e-05
2570 3.8203e-05
2580 3.9774e-05
2590 4.1567e-05
2600 4.3389e-05
2610 4.5474e-05
2620 4.7622e-05
2630 5.0104e-05
2640 5.2659e-05
2650 5.5349e-05
2660 5.8257e-05
2670 6.1285e-05
2680 6.4461e-05
2690 6.7724e-05
2700 7.1097e-05
2710 7.4734e-05
2720 7.8739e-05
2730 8.3045e-05
2740 8.7081e-05
2750 9.1141e-05
2760 9.5646e-05
2770 0.00010058
2780 0.00010581
2790 0.00011102
2800 0.00011628
2810 0.00012174
2820 0.00012772
2830 0.00013413
2840 0.00014093
2850 0.0001481
2860 0.00015538
2870 0.00016262
2880 0.00016973
2890 0.00017663
2900 0.00018357
2910 0.00019034
2920 0.00019691
2930 0.0002032
2940 0.00021004
2950 0.00021774
2960 0.00022494
2970 0.00023194
2980 0.00023891
2990 0.00024607
3000 0.0002538
3010 0.00026179
3020 0.00026943
3030 0.00027687
3040 0.00028358
3050 0.00028993
3060 0.00029671
3070 0.0003041
3080 0.00031267
3090 0.00032206
3100 0.00033274
3110 0.00034437
3120 0.0003572
3130 0.00037086
3140 0.00038501
3150 0.00039906
3160 0.00041368
3170 0.00042808
3180 0.00044225
3190 0.00045715
3200 0.00047214
3210 0.00048762
3220 0.00050401
3230 0.0005205
3240 0.00053715
3250 0.00055526
3260 0.0005721
3270 0.000589
3280 0.00060546
3290 0.00062247
3300 0.00063932
3310 0.00065788
3320 0.00067684
3330 0.0006983
3340 0.0007237
3350 0.00075122
3360 0.00078097
3370 0.00081274
3380 0.00084734
3390 0.00088178
3400 0.00091516
3410 0.00094997
3420 0.00098429
3430 0.00102
3440 0.0010575
3450 0.0010949
3460 0.0011411
3470 0.0011547
3480 0.0011652
3490 0.0011812
3500 0.0012005
3510 0.0012228
3520 0.0012546
3530 0.0012759
3540 0.0012933
3550 0.0013192
3560 0.0013475
3570 0.0013926
3580 0.0014307
3590 0.0014582
3600 0.0014699
3610 0.0014791
3620 0.0014785
3630 0.0014834
3640 0.0015036
3650 0.0016267
3660 0.0016537
3670 0.0016743
3680 0.0017345
3690 0.0016737
3700 0.0018399
3710 0.001794
3720 0.0019938
3730 0.0022118
3740 0.0018052
3750 0.0018461
3760 0.0019366
3770 0.0018245
3780 0.001784
3790 0.0020092
3800 0.0020646
3810 0.0022753
3820 0.0021148
3830 0.002444
3840 0.0020388
3850 0.002223
3860 0.0030666
3870 0.0025101
3880 0.0025595
3890 0.0027637
3900 0.0030112
3910 0.0030288
3920 0.0031023
3930 0.0031672
3940 0.0032233
3950 0.0032747
3960 0.0033606
3970 0.0033939
3980 0.0034263
3990 0.0035606
4000 0.0036518
4010 0.0037389
4020 0.0038703
4030 0.0039177
4040 0.0039525
4050 0.0039625
4060 0.0039485
4070 0.0039293
4080 0.003878
4090 0.003823
4100 0.0037729
4110 0.003739
4120 0.0037393
4130 0.0037669
4140 0.0037858
4150 0.0038003
4160 0.0038071
4170 0.0039981
4180 0.0038453
4190 0.0038757
4200 0.0039067
4210 0.0039591
4220 0.0040079
4230 0.0040739
4240 0.0041191
4250 0.0041609
4260 0.0041967
4270 0.0042249
4280 0.0042741
4290 0.0043065
4300 0.0043467
4310 0.0043688
4320 0.0044093
4330 0.0044086
4340 0.0044096
4350 0.0044162
4360 0.0044148
4370 0.0044331
4380 0.0044326
4390 0.0044291
4400 0.0044359
4410 0.00445
4420 0.0044704
4430 0.0045108
4440 0.0047395
4450 0.0046884
4460 0.0046696
4470 0.0049177
4480 0.0053476
4490 0.0054057
4500 0.0054379
4510 0.0056369
4520 0.0057156
4530 0.0058795
4540 0.0060089
4550 0.0061962
4560 0.0062793
4570 0.0064275
4580 0.0065827
4590 0.0066744
4600 0.0067641
4610 0.0068108
4620 0.0068283
4630 0.0068372
4640 0.0068184
4650 0.0067669
4660 0.0067379
4670 0.0066555
4680 0.0065658
4690 0.0064963
4700 0.0064065
4710 0.0063613
4720 0.0062924
4730 0.0063661
4740 0.0063319
4750 0.0062987
4760 0.0060574
4770 0.0061907
4780 0.0063003
4790 0.0063247
4800 0.0062732
4810 0.0063554
4820 0.006214
4830 0.00635
4840 0.0065054
4850 0.0062353
4860 0.0064326
4870 0.0065259
4880 0.0066892
4890 0.00685
4900 0.0069752
4910 0.0070971
4920 0.0069776
4930 0.0070059
4940 0.0068708
4950 0.0071166
4960 0.0074563
4970 0.0070642
4980 0.0070678
4990 0.0069604
5000 0.0070231
5010 0.0071003
5020 0.0068487
5030 0.0071724
5040 0.0068162
5050 0.0066399
5060 0.0070355
5070 0.0068941
5080 0.0071782
5090 0.0072237
5100 0.0074894
5110 0.0070501
5120 0.0072191
5130 0.0072146
5140 0.0076018
5150 0.0075341
5160 0.007719
5170 0.0076586
5180 0.0077352
5190 0.007983
5200 0.0081031
5210 0.007862
5220 0.0082417
5230 0.0080997
5240 0.0082977
5250 0.0084257
5260 0.0085178
5270 0.0086499
5280 0.0087415
5290 0.0088098
5300 0.0089581
5310 0.0090494
5320 0.0091166
5330 0.009212
5340 0.009262
5350 0.0092583
5360 0.0092348
5370 0.009194
5380 0.0091692
5390 0.0091506
5400 0.0091212
5410 0.0091334
5420 0.0090879
5430 0.0091439
5440 0.0092604
5450 0.0093372
5460 0.0094516
5470 0.0094983
5480 0.0095309
5490 0.0095375
5500 0.0094666
5510 0.0094118
5520 0.0092881
5530 0.0091696
5540 0.0091115
5550 0.0089368
5560 0.0091212
5570 0.0089792
5580 0.0089614
5590 0.0089572
5600 0.0091169
5610 0.0091653
5620 0.0089839
5630 0.0090856
5640 0.0089299
5650 0.0087129
5660 0.0084285
5670 0.0085685
5680 0.0082435
5690 0.0080924
5700 0.0078528
5710 0.0078032
5720 0.007741
5730 0.0078362
5740 0.0076173
5750 0.0079393
5760 0.0080179
5770 0.0079544
5780 0.0081448
5790 0.0083585
5800 0.0086779
5810 0.0092235
5820 0.0095929
5830 0.0098774
5840 0.01008
5850 0.010269
5860 0.010379
5870 0.010378
5880 0.010378
5890 0.010103
5900 0.010001
5910 0.010186
5920 0.010131
5930 0.010337
5940 0.010463
5950 0.010636
5960 0.01065
5970 0.010649
5980 0.010588
5990 0.010525
6000 0.010456
6010 0.010374
6020 0.01029
6030 0.010195
6040 0.010132
6050 0.010037
6060 0.0099862
6070 0.0099122
6080 0.009844
6090 0.0098407
6100 0.0097996
6110 0.0097686
6120 0.00975
6130 0.0097564
6140 0.0097456
6150 0.0097972
6160 0.0098369
6170 0.0099235
6180 0.010047
6190 0.010205
6200 0.010371
6210 0.010483
6220 0.010568
6230 0.010634
6240 0.010638
6250 0.010657
6260 0.010615
6270 0.010598
6280 0.010581
6290 0.010641
6300 0.010671
6310 0.010831
6320 0.010914
6330 0.010638
6340 0.010935
6350 0.010762
6360 0.010775
6370 0.010842
6380 0.010901
6390 0.011015
6400 0.01104
6410 0.011123
6420 0.011228
6430 0.011326
6440 0.01137
6450 0.011388
6460 0.011409
6470 0.011419
6480 0.011555
6490 0.011406
6500 0.011411
6510 0.011394
6520 0.0114
6530 0.011431
6540 0.011488
6550 0.011589
6560 0.011743
6570 0.011827
6580 0.011944
6590 0.011883
6600 0.011619
6610 0.011551
6620 0.011291
6630 0.011197
6640 0.011118
6650 0.011473
6660 0.011042
6670 0.011284
6680 0.011223
6690 0.011035
6700 0.010762
6710 0.011018
6720 0.011441
6730 0.011369
6740 0.010535
6750 0.011093
6760 0.010916
6770 0.010836
6780 0.010609
6790 0.010538
6800 0.011171
6810 0.010712
6820 0.010623
6830 0.010591
6840 0.01046
6850 0.010264
6860 0.010533
6870 0.010181
6880 0.010085
6890 0.010364
6900 0.010362
6910 0.010194
6920 0.010308
6930 0.010456
6940 0.01026
6950 0.010267
6960 0.010635
6970 0.010446
6980 0.010397
6990 0.01006
7000 0.010053
7010 0.010264
7020 0.010083
7030 0.010166
7040 0.01003
7050 0.0098927
7060 0.0099392
7070 0.0099989
7080 0.010055
7090 0.010097
7100 0.010157
7110 0.010232
7120 0.010297
7130 0.010439
7140 0.010493
7150 0.010623
7160 0.010765
7170 0.010879
7180 0.011001
7190 0.011083
7200 0.011352
7210 0.011558
7220 0.011782
7230 0.011894
7240 0.011985
7250 0.012113
7260 0.012046
7270 0.012128
7280 0.012127
7290 0.012019
7300 0.011976
7310 0.011967
7320 0.011804
7330 0.011714
7340 0.011626
7350 0.01156
7360 0.011462
7370 0.011404
7380 0.011382
7390 0.01129
7400 0.011206
7410 0.011168
7420 0.011029
7430 0.011008
7440 0.010981
7450 0.010977
7460 0.01074
7470 0.010613
7480 0.010503
7490 0.010318
7500 0.010166
7510 0.0102
7520 0.01028
7530 0.010256
7540 0.010122
7550 0.0099238
7560 0.0098602
7570 0.0097628
7580 0.0097968
7590 0.009783
7600 0.0097749
7610 0.0097763
7620 0.0099022
7630 0.010052
7640 0.010207
7650 0.010443
7660 0.01067
7670 0.011003
7680 0.011272
7690 0.011366
7700 0.011794
7710 0.01196
7720 0.011483
7730 0.011549
7740 0.011603
7750 0.011623
7760 0.011538
7770 0.01159
7780 0.011761
7790 0.011902
7800 0.011937
7810 0.011946
7820 0.011818
7830 0.011701
7840 0.011616
7850 0.011757
7860 0.011964
7870 0.012054
7880 0.011859
7890 0.011531
7900 0.011428
7910 0.011219
7920 0.011242
7930 0.011065
7940 0.010878
7950 0.010833
7960 0.010714
7970 0.010662
7980 0.01058
7990 0.010514
8000 0.010495
8010 0.010406
8020 0.010248
8030 0.01018
8040 0.0099895
8050 0.0099117
8060 0.0098909
8070 0.0097108
8080 0.0095468
8090 0.0094833
8100 0.0094336
8110 0.0094635
8120 0.0093384
8130 0.0092107
8140 0.0089656
8150 0.0083862
8160 0.0084058
8170 0.0081544
8180 0.0078782
8190 0.0079615
8200 0.0078353
8210 0.0076979
8220 0.007622
8230 0.0075919
8240 0.0077162
8250 0.007483
8260 0.0077906
8270 0.0077919
8280 0.0077186
8290 0.0079173
8300 0.0080747
8310 0.0078289
8320 0.0081255
8330 0.00827
8340 0.0082917
8350 0.0082976
8360 0.0084382
8370 0.0086002
8380 0.0089616
8390 0.0089469
8400 0.0089931
8410 0.0097699
8420 0.010029
8430 0.010485
8440 0.010731
8450 0.011335
8460 0.011492
8470 0.012264
8480 0.012573
8490 0.012791
8500 0.013143
8510 0.01388
8520 0.01445
8530 0.01553
8540 0.0156
8550 0.01575
8560 0.016072
8570 0.016445
8580 0.016434
8590 0.016793
8600 0.017151
8610 0.017545
8620 0.017304
8630 0.017009
8640 0.016635
8650 0.015864
8660 0.015359
8670 0.015133
8680 0.014907
8690 0.014673
8700 0.014302
8710 0.014203
8720 0.014305
8730 0.013917
8740 0.013666
8750 0.013064
8760 0.01263
8770 0.01255
8780 0.011562
8790 0.011022
8800 0.010681
8810 0.0099964
8820 0.0096079
8830 0.0090705
8840 0.0085727
8850 0.0084055
8860 0.0080256
8870 0.0076031
8880 0.0074744
8890 0.0070964
8900 0.0070016
8910 0.007158
8920 0.007163
8930 0.0070158
8940 0.0068385
8950 0.007016
8960 0.0071647
8970 0.0069402
8980 0.0068948
8990 0.0068312
9000 0.0066531
9010 0.0066096
9020 0.0065532
9030 0.0064452
9040 0.0063555
9050 0.00649035
9060 0.006491355
9070 0.00649236
9080 0.006493365
9090 0.00649437
9100 0.006495374
9110 0.006496379
9120 0.006497384
9130 0.006498389
9140 0.006499394
9150 0.006500399
9160 0.006501404
9170 0.006502409
9180 0.006503414
9190 0.006504419
9200 0.006505423
9210 0.006506428
9220 0.006507433
9230 0.006508438
9240 0.006509443
9250 0.006510448
9260 0.006511453
9270 0.006512458
9280 0.006513463
9290 0.006514468
9300 0.006515472
9310 0.006516477
9320 0.006517482
9330 0.006518487
9340 0.006519492
9350 0.006520497
9360 0.006521502
9370 0.006522507
9380 0.006523512
9390 0.006524517
9400 0.006525521
9410 0.006526526
9420 0.006527531
9430 0.006528536
9440 0.006529541
9450 0.006530546
9460 0.006531551
9470 0.006532556
9480 0.006533561
9490 0.006534565
9500 0.00653557
9510 0.006536575
9520 0.00653758
9530 0.006538585
9540 0.00653959
9550 0.006540595
9560 0.0065416
9570 0.006542605
9580 0.00654361
9590 0.006544614
9600 0.006545619
9610 0.006546624
9620 0.006547629
9630 0.006548634
9640 0.006549639
9650 0.006550644
9660 0.006551649
9670 0.006552654
9680 0.006553659
9690 0.006554663
9700 0.006555668
9710 0.006556673
9720 0.006557678
9730 0.006558683
9740 0.006559688
9750 0.006560693
9760 0.006561698
9770 0.006562703
9780 0.006563707
9790 0.006564712
9800 0.006565717
9810 0.006566722
9820 0.006567727
9830 0.006568732
9840 0.006569737
9850 0.006570742
9860 0.006571747
9870 0.006572752
9880 0.006573756
9890 0.006574761
9900 0.006575766
9910 0.006576771
9920 0.006577776
9930 0.006578781
9940 0.006579786
9950 0.006580791
9960 0.006581796
9970 0.006582801
9980 0.006583805
9990 0.00658481
10000 0.006585815
10010 0.00658682
10020 0.006587825
10030 0.00658883
10040 0.006589835
10050 0.00659084
10060 0.006591845
10070 0.00659285
10080 0.006593854
10090 0.006594859
10100 0.006595864
10110 0.006596869
10120 0.006597874
10130 0.006598879
10140 0.006599884
10150 0.006600889
10160 0.006601894
10170 0.006602898
10180 0.006603903
10190 0.006604908
10200 0.006605913
10210 0.006606918
10220 0.006607923
10230 0.006608928
10240 0.006609933
10250 0.006610938
10260 0.006611943
10270 0.006612947
10280 0.006613952
10290 0.006614957
10300 0.006615962
10310 0.006616967
10320 0.006617972
10330 0.006618977
10340 0.006619982
10350 0.006620987
10360 0.006621992
10370 0.006622996
10380 0.006624001
10390 0.006625006
10400 0.006626011
10410 0.006627016
10420 0.006628021
10430 0.006629026
10440 0.006630031
10450 0.006631036
10460 0.00663204
10470 0.006633045
10480 0.00663405
10490 0.006635055
10500 0.00663606
10510 0.006637065
10520 0.00663807
10530 0.006639075
10540 0.00664008
10550 0.006641085
10560 0.006642089
10570 0.006643094
10580 0.006644099
10590 0.006645104
10600 0.006646109
10610 0.006647114
10620 0.006648119
10630 0.006649124
10640 0.006650129
10650 0.006651134
10660 0.006652138
10670 0.006653143
10680 0.006654148
10690 0.006655153
10700 0.006656158
10710 0.006657163
10720 0.006658168
10730 0.006659173
10740 0.006660178
10750 0.006661183
10760 0.006662187
10770 0.006663192
10780 0.006664197
10790 0.006665202
10800 0.006666207
10810 0.006667212
10820 0.006668217
10830 0.006669222
10840 0.006670227
10850 0.006671231
10860 0.006672236
10870 0.006673241
10880 0.006674246
10890 0.006675251
10900 0.006676256
10910 0.006677261
10920 0.006678266
10930 0.006679271
10940 0.006680276
10950 0.00668128
10960 0.006682285
10970 0.00668329
10980 0.006684295
10990 0.0066853
11000 0.006686305
11010 0.00668731
11020 0.006688315
11030 0.00668932
11040 0.006690325
11050 0.006691329
11060 0.006692334
11070 0.006693339
11080 0.006694344
11090 0.006695349
11100 0.006696354
11110 0.006697359
11120 0.006698364
11130 0.006699369
11140 0.006700373
11150 0.006701378
11160 0.006702383
11170 0.006703388
11180 0.006704393
11190 0.006705398
11200 0.006706403
11210 0.006707408
11220 0.006708413
11230 0.006709418
11240 0.006710422
11250 0.006711427
11260 0.006712432
11270 0.006713437
11280 0.006714442
11290 0.006715447
11300 0.006716452
11310 0.006717457
11320 0.006718462
11330 0.006719467
11340 0.006720471
11350 0.006721476
11360 0.006722481
11370 0.006723486
11380 0.006724491
11390 0.006725496
11400 0.006726501
11410 0.006727506
11420 0.006728511
11430 0.006729516
11440 0.00673052
11450 0.006731525
11460 0.00673253
11470 0.006733535
11480 0.00673454
11490 0.006735545
11500 0.00673655
11510 0.006737555
11520 0.00673856
11530 0.006739564
11540 0.006740569
11550 0.006741574
11560 0.006742579
11570 0.006743584
11580 0.006744589
11590 0.006745594
11600 0.006746599
11610 0.006747604
11620 0.006748609
11630 0.006749613
11640 0.006750618
11650 0.006751623
11660 0.006752628
11670 0.006753633
11680 0.006754638
11690 0.006755643
11700 0.006756648
11710 0.006757653
11720 0.006758658
11730 0.006759662
11740 0.006760667
11750 0.006761672
11760 0.006762677
11770 0.006763682
11780 0.006764687
11790 0.006765692
11800 0.006766697
11810 0.006767702
11820 0.006768706
11830 0.006769711
11840 0.006770716
11850 0.006771721
11860 0.006772726
11870 0.006773731
11880 0.006774736
11890 0.006775741
11900 0.006776746
11910 0.006777751
11920 0.006778755
11930 0.006777181
11940 0.006775608
11950 0.006774034
11960 0.006772461
11970 0.006770887
11980 0.006769314
11990 0.00676774
