#lamb flux
2180 2.1733e-06
2190 2.2945e-06
2200 2.4062e-06
2210 2.5157e-06
2220 2.6145e-06
2230 2.6911e-06
2240 2.7697e-06
2250 2.8323e-06
2260 2.8874e-06
2270 2.9366e-06
2280 2.9887e-06
2290 3.0393e-06
2300 3.0926e-06
2310 3.1383e-06
2320 3.1789e-06
2330 3.2333e-06
2340 3.2965e-06
2350 3.3595e-06
2360 3.4144e-06
2370 3.4653e-06
2380 3.5118e-06
2390 3.5577e-06
2400 3.6122e-06
2410 3.6752e-06
2420 3.7464e-06
2430 3.8359e-06
2440 3.9542e-06
2450 4.0929e-06
2460 4.2492e-06
2470 4.4241e-06
2480 4.6158e-06
2490 4.8224e-06
2500 5.0371e-06
2510 5.2653e-06
2520 5.5179e-06
2530 5.7556e-06
2540 5.9759e-06
2550 6.2352e-06
2560 6.5141e-06
2570 6.8035e-06
2580 7.0982e-06
2590 7.4139e-06
2600 7.7361e-06
2610 8.0846e-06
2620 8.4435e-06
2630 8.8354e-06
2640 9.238e-06
2650 9.6562e-06
2660 1.0097e-05
2670 1.0554e-05
2680 1.1027e-05
2690 1.1516e-05
2700 1.2022e-05
2710 1.2557e-05
2720 1.313e-05
2730 1.3734e-05
2740 1.4325e-05
2750 1.4928e-05
2760 1.5574e-05
2770 1.626e-05
2780 1.6976e-05
2790 1.7695e-05
2800 1.8422e-05
2810 1.9165e-05
2820 1.9954e-05
2830 2.0768e-05
2840 2.16e-05
2850 2.2448e-05
2860 2.329e-05
2870 2.4114e-05
2880 2.4931e-05
2890 2.5724e-05
2900 2.6516e-05
2910 2.7285e-05
2920 2.8041e-05
2930 2.8771e-05
2940 2.9535e-05
2950 3.0364e-05
2960 3.1158e-05
2970 3.1944e-05
2980 3.2741e-05
2990 3.3563e-05
3000 3.4443e-05
3010 3.5362e-05
3020 3.6273e-05
3030 3.7196e-05
3040 3.8093e-05
3050 3.8991e-05
3060 3.9944e-05
3070 4.0963e-05
3080 4.2086e-05
3090 4.3284e-05
3100 4.4596e-05
3110 4.5995e-05
3120 4.9355e-05
3130 5.4471e-05
3140 6.0054e-05
3150 6.6073e-05
3160 7.2615e-05
3170 7.9625e-05
3180 8.7123e-05
3190 9.5226e-05
3200 0.0001039
3210 0.00011325
3220 0.00012334
3230 0.00013412
3240 0.00014562
3250 0.00015811
3260 0.00017119
3270 0.00018507
3280 0.0001997
3290 0.00021525
3300 0.00023166
3310 0.00024932
3320 0.00026806
3330 0.00028842
3340 0.00031084
3350 0.00033512
3360 0.00036141
3370 0.00038979
3380 0.00042059
3390 0.00045311
3400 0.00048712
3410 0.00052341
3420 0.00056143
3430 0.00060179
3440 0.00064476
3450 0.00068974
3460 0.0007401
3470 0.00078054
3480 0.00082134
3490 0.00086601
3500 0.00091377
3510 0.00096475
3520 0.0010221
3530 0.0010769
3540 0.0011319
3550 0.0011932
3560 0.001258
3570 0.0013342
3580 0.0014096
3590 0.0014817
3600 0.001547
3610 0.0016128
3620 0.0016745
3630 0.0017412
3640 0.0018197
3650 0.0019218
3660 0.0020194
3670 0.0021179
3680 0.0022145
3690 0.0022764
3700 0.0023684
3710 0.0024285
3720 0.0024981
3730 0.0028395
3740 0.0028696
3750 0.0029841
3760 0.0031126
3770 0.0031839
3780 0.0032822
3790 0.0034397
3800 0.0035526
3810 0.003706
3820 0.0038062
3830 0.0040141
3840 0.0040651
3850 0.0043095
3860 0.0047808
3870 0.0049927
3880 0.0051862
3890 0.0055669
3900 0.0059071
3910 0.0061913
3920 0.0064443
3930 0.0066922
3940 0.0069353
3950 0.0071787
3960 0.0074733
3970 0.0077033
3980 0.0077084
3990 0.0080232
4000 0.0083407
4010 0.0086495
4020 0.0090565
4030 0.0089233
4040 0.0096478
4050 0.0094158
4060 0.0099794
4070 0.010025
4080 0.010258
4090 0.010761
4100 0.010838
4110 0.010783
4120 0.011208
4130 0.011519
4140 0.011755
4150 0.011972
4160 0.012497
4170 0.012462
4180 0.012597
4190 0.012948
4200 0.012943
4210 0.013252
4220 0.013569
4230 0.013856
4240 0.014106
4250 0.01419
4260 0.014587
4270 0.014821
4280 0.015104
4290 0.015291
4300 0.015149
4310 0.01522
4320 0.015967
4330 0.016121
4340 0.016278
4350 0.016445
4360 0.016829
4370 0.016807
4380 0.016962
4390 0.01711
4400 0.017277
4410 0.017459
4420 0.017519
4430 0.017888
4440 0.018232
4450 0.018474
4460 0.018818
4470 0.01923
4480 0.019939
4490 0.020255
4500 0.02052
4510 0.021352
4520 0.021794
4530 0.022267
4540 0.022093
4550 0.022937
4560 0.023342
4570 0.02366
4580 0.02375
4590 0.024267
4600 0.024313
4610 0.024772
4620 0.024377
4630 0.024739
4640 0.024809
4650 0.024744
4660 0.024928
4670 0.024588
4680 0.024552
4690 0.024579
4700 0.02491
4710 0.025038
4720 0.024959
4730 0.024905
4740 0.024927
4750 0.025005
4760 0.024778
4770 0.024822
4780 0.024767
4790 0.0248
4800 0.024917
4810 0.024938
4820 0.025306
4830 0.025251
4840 0.025683
4850 0.02541
4860 0.025951
4870 0.025967
4880 0.026028
4890 0.026066
4900 0.026368
4910 0.027096
4920 0.02728
4930 0.027554
4940 0.027145
4950 0.027715
4960 0.028191
4970 0.027979
4980 0.027571
4990 0.027748
5000 0.027703
5010 0.027231
5020 0.027166
5030 0.027269
5040 0.027021
5050 0.027054
5060 0.027654
5070 0.02801
5080 0.028158
5090 0.028245
5100 0.028313
5110 0.02786
5120 0.02858
5130 0.028751
5140 0.028825
5150 0.029031
5160 0.029179
5170 0.029067
5180 0.029203
5190 0.029546
5200 0.029777
5210 0.029504
5220 0.029688
5230 0.029808
5240 0.030298
5250 0.030465
5260 0.03058
5270 0.030836
5280 0.031
5290 0.031099
5300 0.031363
5310 0.031501
5320 0.031634
5330 0.031788
5340 0.031848
5350 0.03177
5360 0.031684
5370 0.031581
5380 0.031503
5390 0.031391
5400 0.031296
5410 0.031281
5420 0.031134
5430 0.031216
5440 0.031258
5450 0.031437
5460 0.031634
5470 0.031727
5480 0.031713
5490 0.03162
5500 0.031378
5510 0.030973
5520 0.030668
5530 0.030701
5540 0.030368
5550 0.029718
5560 0.029556
5570 0.029448
5580 0.029013
5590 0.028577
5600 0.028465
5610 0.028321
5620 0.027915
5630 0.027806
5640 0.027638
5650 0.027378
5660 0.027172
5670 0.027193
5680 0.027236
5690 0.027375
5700 0.027507
5710 0.027474
5720 0.02759
5730 0.027792
5740 0.027883
5750 0.028576
5760 0.028796
5770 0.028624
5780 0.029174
5790 0.029854
5800 0.030222
5810 0.030973
5820 0.031483
5830 0.031558
5840 0.031693
5850 0.031921
5860 0.031836
5870 0.032321
5880 0.032188
5890 0.031891
5900 0.031878
5910 0.032016
5920 0.032022
5930 0.032083
5940 0.032265
5950 0.032466
5960 0.032324
5970 0.032455
5980 0.032166
5990 0.031969
6000 0.032195
6010 0.032001
6020 0.031853
6030 0.031856
6040 0.031763
6050 0.031809
6060 0.031744
6070 0.031544
6080 0.031403
6090 0.031461
6100 0.031373
6110 0.031267
6120 0.031326
6130 0.031243
6140 0.031082
6150 0.03128
6160 0.031339
6170 0.031493
6180 0.031977
6190 0.032097
6200 0.032489
6210 0.032847
6220 0.033026
6230 0.033174
6240 0.033169
6250 0.033174
6260 0.033086
6270 0.033045
6280 0.033016
6290 0.03298
6300 0.032961
6310 0.033011
6320 0.033095
6330 0.032948
6340 0.033118
6350 0.033102
6360 0.033189
6370 0.033255
6380 0.033242
6390 0.033391
6400 0.033457
6410 0.033429
6420 0.033429
6430 0.033461
6440 0.033344
6450 0.033502
6460 0.033464
6470 0.033324
6480 0.033463
6490 0.033363
6500 0.033202
6510 0.03319
6520 0.033239
6530 0.033248
6540 0.033286
6550 0.033197
6560 0.033368
6570 0.033294
6580 0.03358
6590 0.033058
6600 0.032709
6610 0.032441
6620 0.032065
6630 0.031844
6640 0.031618
6650 0.031736
6660 0.031506
6670 0.031229
6680 0.031003
6690 0.030591
6700 0.030446
6710 0.030343
6720 0.030106
6730 0.029949
6740 0.029372
6750 0.029499
6760 0.029371
6770 0.029129
6780 0.028887
6790 0.028638
6800 0.028586
6810 0.027973
6820 0.027744
6830 0.027774
6840 0.02724
6850 0.026635
6860 0.026335
6870 0.025992
6880 0.025729
6890 0.025608
6900 0.025451
6910 0.025329
6920 0.025259
6930 0.025064
6940 0.024993
6950 0.024703
6960 0.024635
6970 0.024396
6980 0.024025
6990 0.023709
7000 0.023511
7010 0.023308
7020 0.023091
7030 0.02291
7040 0.022626
7050 0.022484
7060 0.022291
7070 0.022191
7080 0.022061
7090 0.021882
7100 0.021772
7110 0.021609
7120 0.021449
7130 0.021578
7140 0.021623
7150 0.021592
7160 0.021563
7170 0.021565
7180 0.021662
7190 0.021723
7200 0.021897
7210 0.021982
7220 0.021815
7230 0.021964
7240 0.021736
7250 0.021648
7260 0.02131
7270 0.021232
7280 0.021129
7290 0.020847
7300 0.020598
7310 0.020386
7320 0.020121
7330 0.01993
7340 0.019804
7350 0.019603
7360 0.019362
7370 0.019265
7380 0.019107
7390 0.018896
7400 0.018726
7410 0.018478
7420 0.018246
7430 0.0182
7440 0.018143
7450 0.017868
7460 0.017714
7470 0.01755
7480 0.017374
7490 0.017154
7500 0.017139
7510 0.017014
7520 0.016943
7530 0.016888
7540 0.016783
7550 0.016629
7560 0.016525
7570 0.016415
7580 0.016345
7590 0.016271
7600 0.0162
7610 0.016131
7620 0.0162
7630 0.016267
7640 0.016217
7650 0.016215
7660 0.016177
7670 0.016221
7680 0.016321
7690 0.016315
7700 0.016561
7710 0.016607
7720 0.016171
7730 0.016143
7740 0.016106
7750 0.016044
7760 0.015903
7770 0.015864
7780 0.015911
7790 0.015935
7800 0.015884
7810 0.015814
7820 0.01565
7830 0.015496
7840 0.015366
7850 0.0154
7860 0.015482
7870 0.015483
7880 0.015289
7890 0.015006
7900 0.014881
7910 0.014685
7920 0.014648
7930 0.014477
7940 0.014303
7950 0.014227
7960 0.014101
7970 0.01402
7980 0.01392
7990 0.013829
8000 0.013771
8010 0.013672
8020 0.013529
8030 0.013445
8040 0.013282
8050 0.013193
8060 0.013141
8070 0.012988
8080 0.012848
8090 0.012774
8100 0.012709
8110 0.012695
8120 0.012583
8130 0.01247
8140 0.012284
8150 0.01189
8160 0.011872
8170 0.011687
8180 0.011488
8190 0.011513
8200 0.011409
8210 0.0113
8220 0.01123
8230 0.01119
8240 0.011245
8250 0.01108
8260 0.011243
8270 0.011218
8280 0.011147
8290 0.01124
8300 0.011307
8310 0.011129
8320 0.01128
8330 0.011338
8340 0.011322
8350 0.011295
8360 0.011349
8370 0.011415
8380 0.0116
8390 0.011559
8400 0.011554
8410 0.011989
8420 0.012112
8430 0.012354
8440 0.012469
8450 0.0128
8460 0.012862
8470 0.013293
8480 0.013446
8490 0.013545
8500 0.013724
8510 0.014136
8520 0.014448
8530 0.01507
8540 0.015082
8550 0.015145
8560 0.015313
8570 0.015513
8580 0.015482
8590 0.015677
8600 0.015874
8610 0.016096
8620 0.01593
8630 0.015732
8640 0.015486
8650 0.014995
8660 0.014666
8670 0.014509
8680 0.014352
8690 0.014189
8700 0.01394
8710 0.013861
8720 0.013907
8730 0.013647
8740 0.013472
8750 0.013075
8760 0.012783
8770 0.012714
8780 0.012068
8790 0.011704
8800 0.011466
8810 0.011008
8820 0.010739
8830 0.010375
8840 0.010036
8850 0.0099085
8860 0.0096458
8870 0.0093563
8880 0.0092564
8890 0.0089966
8900 0.0089195
8910 0.0090051
8920 0.008993
8930 0.0088833
8940 0.0087541
8950 0.0088546
8960 0.0089368
8970 0.0087768
8980 0.0087327
8990 0.0086765
9000 0.0085451
9010 0.0085017
9020 0.0084496
9030 0.0083635
9040 0.0082894
9050 0.00679205
9060 0.006853995
9070 0.00691594
9080 0.006977885
9090 0.00703983
9100 0.007101775
9110 0.007163721
9120 0.007225666
9130 0.007287611
9140 0.007349556
9150 0.007411501
9160 0.007473446
9170 0.007535391
9180 0.007597336
9190 0.007659281
9200 0.007721226
9210 0.007783171
9220 0.007845117
9230 0.007907062
9240 0.007969007
9250 0.008030952
9260 0.008092897
9270 0.008154842
9280 0.008216787
9290 0.008278732
9300 0.008340677
9310 0.008402622
9320 0.008464567
9330 0.008526513
9340 0.008588458
9350 0.008650403
9360 0.008712348
9370 0.008774293
9380 0.008836238
9390 0.008898183
9400 0.008960128
9410 0.009022073
9420 0.009084018
9430 0.009145963
9440 0.009207909
9450 0.009269854
9460 0.009331799
9470 0.009393744
9480 0.009455689
9490 0.009517634
9500 0.009579579
9510 0.009641524
9520 0.009703469
9530 0.009765414
9540 0.009827359
9550 0.009889305
9560 0.00995125
9570 0.01001319
9580 0.01007514
9590 0.01013708
9600 0.01019903
9610 0.01026098
9620 0.01032292
9630 0.01038487
9640 0.01044681
9650 0.01050876
9660 0.0105707
9670 0.01063265
9680 0.01069459
9690 0.01075654
9700 0.01081848
9710 0.01088043
9720 0.01094237
9730 0.01100432
9740 0.01106626
9750 0.01112821
9760 0.01119015
9770 0.0112521
9780 0.01131404
9790 0.01137599
9800 0.01143793
9810 0.01149988
9820 0.01156182
9830 0.01162377
9840 0.01168571
9850 0.01174766
9860 0.0118096
9870 0.01187155
9880 0.01193349
9890 0.01199544
9900 0.01205738
9910 0.01211933
9920 0.01218127
9930 0.01224322
9940 0.01230516
9950 0.01236711
9960 0.01242905
9970 0.012491
9980 0.01255294
9990 0.01261489
10000 0.01267683
10010 0.01273878
10020 0.01280072
10030 0.01286267
10040 0.01292461
10050 0.01298656
10060 0.0130485
10070 0.01311045
10080 0.01317239
10090 0.01323434
10100 0.01329628
10110 0.01335823
10120 0.01342017
10130 0.01348212
10140 0.01354406
10150 0.01360601
10160 0.01366796
10170 0.0137299
10180 0.01379185
10190 0.01385379
10200 0.01391574
10210 0.01397768
10220 0.01403963
10230 0.01410157
10240 0.01416352
10250 0.01422546
10260 0.01428741
10270 0.01434935
10280 0.0144113
10290 0.01447324
10300 0.01453519
10310 0.01459713
10320 0.01465908
10330 0.01472102
10340 0.01478297
10350 0.01484491
10360 0.01490686
10370 0.0149688
10380 0.01503075
10390 0.01509269
10400 0.01515464
10410 0.01521658
10420 0.01527853
10430 0.01534047
10440 0.01540242
10450 0.01546436
10460 0.01552631
10470 0.01558825
10480 0.0156502
10490 0.01571214
10500 0.01577409
10510 0.01583603
10520 0.01589798
10530 0.01595992
10540 0.01602187
10550 0.01608381
10560 0.01614576
10570 0.0162077
10580 0.01626965
10590 0.01633159
10600 0.01639354
10610 0.01645548
10620 0.01651743
10630 0.01657937
10640 0.01664132
10650 0.01670326
10660 0.01676521
10670 0.01682715
10680 0.0168891
10690 0.01695104
10700 0.01701299
10710 0.01707494
10720 0.01713688
10730 0.01719883
10740 0.01726077
10750 0.01732272
10760 0.01738466
10770 0.01744661
10780 0.01750855
10790 0.0175705
10800 0.01763244
10810 0.01769439
10820 0.01775633
10830 0.01781828
10840 0.01788022
10850 0.01794217
10860 0.01800411
10870 0.01806606
10880 0.018128
10890 0.01818995
10900 0.01825189
10910 0.01831384
10920 0.01837578
10930 0.01843773
10940 0.01849967
10950 0.01856162
10960 0.01862356
10970 0.01868551
10980 0.01874745
10990 0.0188094
11000 0.01887134
11010 0.01893329
11020 0.01899523
11030 0.01905718
11040 0.01911912
11050 0.01918107
11060 0.01924301
11070 0.01930496
11080 0.0193669
11090 0.01942885
11100 0.01949079
11110 0.01955274
11120 0.01961468
11130 0.01967663
11140 0.01973857
11150 0.01980052
11160 0.01986246
11170 0.01992441
11180 0.01998635
11190 0.0200483
11200 0.02011024
11210 0.02017219
11220 0.02023413
11230 0.02029608
11240 0.02035802
11250 0.02041997
11260 0.02048192
11270 0.02054386
11280 0.02060581
11290 0.02066775
11300 0.0207297
11310 0.02079164
11320 0.02085359
11330 0.02091553
11340 0.02097748
11350 0.02103942
11360 0.02110137
11370 0.02116331
11380 0.02122526
11390 0.0212872
11400 0.02134915
11410 0.02141109
11420 0.02147304
11430 0.02153498
11440 0.02159693
11450 0.02165887
11460 0.02172082
11470 0.02178276
11480 0.02184471
11490 0.02190665
11500 0.0219686
11510 0.02203054
11520 0.02209249
11530 0.02215443
11540 0.02221638
11550 0.02227832
11560 0.02234027
11570 0.02240221
11580 0.02246416
11590 0.0225261
11600 0.02258805
11610 0.02264999
11620 0.02271194
11630 0.02277388
11640 0.02283583
11650 0.02289777
11660 0.02295972
11670 0.02302166
11680 0.02308361
11690 0.02314555
11700 0.0232075
11710 0.02326944
11720 0.02333139
11730 0.02339333
11740 0.02345528
11750 0.02351722
11760 0.02357917
11770 0.02364111
11780 0.02370306
11790 0.023765
11800 0.02382695
11810 0.0238889
11820 0.02395084
11830 0.02401279
11840 0.02407473
11850 0.02413668
11860 0.02419862
11870 0.02426057
11880 0.02432251
11890 0.02438446
11900 0.0244464
11910 0.02450835
11920 0.02457029
11930 0.02456459
11940 0.02455888
11950 0.02455318
11960 0.02454748
11970 0.02454177
11980 0.02453607
11990 0.02453037
