#lamb flux
2180 2.3914e-06
2190 2.4859e-06
2200 2.561e-06
2210 2.6322e-06
2220 2.7148e-06
2230 2.7851e-06
2240 2.8545e-06
2250 2.9163e-06
2260 2.9738e-06
2270 3.0314e-06
2280 3.0915e-06
2290 3.1413e-06
2300 3.1904e-06
2310 3.2025e-06
2320 3.1991e-06
2330 3.2212e-06
2340 3.2498e-06
2350 3.2701e-06
2360 3.2902e-06
2370 3.2963e-06
2380 3.3028e-06
2390 3.2898e-06
2400 3.2799e-06
2410 3.2631e-06
2420 3.229e-06
2430 3.2039e-06
2440 3.2045e-06
2450 3.2057e-06
2460 3.1991e-06
2470 3.1945e-06
2480 3.1981e-06
2490 3.2135e-06
2500 3.2194e-06
2510 3.2278e-06
2520 3.2637e-06
2530 3.2344e-06
2540 3.1493e-06
2550 3.1363e-06
2560 3.1466e-06
2570 3.165e-06
2580 3.1776e-06
2590 3.2275e-06
2600 3.295e-06
2610 3.4288e-06
2620 3.5626e-06
2630 3.7492e-06
2640 3.9386e-06
2650 4.1426e-06
2660 4.396e-06
2670 4.6855e-06
2680 4.9956e-06
2690 5.3049e-06
2700 5.618e-06
2710 5.9684e-06
2720 6.3938e-06
2730 6.8771e-06
2740 7.2777e-06
2750 7.6586e-06
2760 8.1195e-06
2770 8.6621e-06
2780 9.2616e-06
2790 9.8407e-06
2800 1.0417e-05
2810 1.1034e-05
2820 1.1763e-05
2830 1.2623e-05
2840 1.3607e-05
2850 1.4716e-05
2860 1.5905e-05
2870 1.7115e-05
2880 1.8288e-05
2890 1.9428e-05
2900 2.0584e-05
2910 2.1723e-05
2920 2.2798e-05
2930 2.3805e-05
2940 2.498e-05
2950 2.6388e-05
2960 2.8244e-05
2970 2.9375e-05
2980 3.0483e-05
2990 3.1592e-05
3000 3.277e-05
3010 3.392e-05
3020 3.4926e-05
3030 3.5787e-05
3040 3.6381e-05
3050 3.6791e-05
3060 3.717e-05
3070 3.7559e-05
3080 3.8085e-05
3090 3.868e-05
3100 3.9545e-05
3110 4.0818e-05
3120 4.4591e-05
3130 5.0652e-05
3140 5.7362e-05
3150 6.4582e-05
3160 7.2608e-05
3170 8.1187e-05
3180 0.00011046
3190 0.00014605
3200 0.0001166
3210 0.00015902
3220 0.00019218
3230 0.00023149
3240 0.00016867
3250 0.00018707
3260 0.00021624
3270 0.00022534
3280 0.00024603
3290 0.00026885
3300 0.00031525
3310 0.00034817
3320 0.00046996
3330 0.00045961
3340 0.00050537
3350 0.00048082
3360 0.00066083
3370 0.00091634
3380 0.00067526
3390 0.00075306
3400 0.00085037
3410 0.00094016
3420 0.0010968
3430 0.0013135
3440 0.0013518
3450 0.0016128
3460 0.0017565
3470 0.001659
3480 0.0016346
3490 0.0018179
3500 0.0019566
3510 0.0024459
3520 0.0025866
3530 0.0024939
3540 0.0023263
3550 0.0026094
3560 0.0027626
3570 0.0030541
3580 0.0033734
3590 0.0031382
3600 0.0038007
3610 0.0036751
3620 0.0039985
3630 0.0041883
3640 0.0043783
3650 0.0045353
3660 0.0045642
3670 0.0046603
3680 0.0046929
3690 0.0045095
3700 0.0046518
3710 0.0044699
3720 0.0039607
3730 0.0080224
3740 0.0065149
3750 0.0045517
3760 0.0073376
3770 0.0057344
3780 0.0062317
3790 0.0067207
3800 0.0048685
3810 0.0054618
3820 0.0068949
3830 0.0088893
3840 0.0095368
3850 0.0088101
3860 0.012037
3870 0.013302
3880 0.014848
3890 0.015284
3900 0.016962
3910 0.016948
3920 0.019539
3930 0.018611
3940 0.021022
3950 0.021778
3960 0.021844
3970 0.021993
3980 0.024366
3990 0.02286
4000 0.023691
4010 0.024938
4020 0.026899
4030 0.026995
4040 0.02706
4050 0.02785
4060 0.027554
4070 0.026788
4080 0.025158
4090 0.024912
4100 0.024826
4110 0.025087
4120 0.025927
4130 0.02611
4140 0.02663
4150 0.026443
4160 0.027033
4170 0.027403
4180 0.027744
4190 0.02853
4200 0.028355
4210 0.02951
4220 0.029592
4230 0.031017
4240 0.031981
4250 0.032729
4260 0.032321
4270 0.03263
4280 0.033574
4290 0.031166
4300 0.034158
4310 0.030128
4320 0.030222
4330 0.03415
4340 0.034843
4350 0.037139
4360 0.036155
4370 0.036096
4380 0.034442
4390 0.034354
4400 0.034691
4410 0.034423
4420 0.035751
4430 0.035368
4440 0.037297
4450 0.03808
4460 0.038754
4470 0.040582
4480 0.041292
4490 0.043731
4500 0.050381
4510 0.052115
4520 0.054894
4530 0.059453
4540 0.060707
4550 0.063323
4560 0.065117
4570 0.067833
4580 0.069132
4590 0.071705
4600 0.071545
4610 0.072743
4620 0.071861
4630 0.069678
4640 0.069228
4650 0.065684
4660 0.065225
4670 0.063246
4680 0.060417
4690 0.060467
4700 0.060469
4710 0.05827
4720 0.05636
4730 0.054023
4740 0.054349
4750 0.053015
4760 0.050514
4770 0.051673
4780 0.050859
4790 0.05145
4800 0.049411
4810 0.049967
4820 0.050271
4830 0.050151
4840 0.049055
4850 0.052506
4860 0.051465
4870 0.055145
4880 0.056579
4890 0.053796
4900 0.058824
4910 0.058443
4920 0.060401
4930 0.060836
4940 0.06154
4950 0.061874
4960 0.060327
4970 0.057623
4980 0.055369
4990 0.053819
5000 0.053489
5010 0.050421
5020 0.049879
5030 0.048471
5040 0.047645
5050 0.045833
5060 0.045561
5070 0.04535
5080 0.047005
5090 0.047342
5100 0.047828
5110 0.050543
5120 0.053038
5130 0.052299
5140 0.052423
5150 0.055125
5160 0.053437
5170 0.053091
5180 0.054539
5190 0.053058
5200 0.054389
5210 0.057636
5220 0.05765
5230 0.058841
5240 0.059815
5250 0.062365
5260 0.062968
5270 0.063175
5280 0.062804
5290 0.064496
5300 0.065603
5310 0.066554
5320 0.067688
5330 0.066235
5340 0.065479
5350 0.066705
5360 0.066163
5370 0.063629
5380 0.062856
5390 0.063925
5400 0.063127
5410 0.062977
5420 0.0634
5430 0.064479
5440 0.064957
5450 0.064401
5460 0.06652
5470 0.066279
5480 0.065304
5490 0.06544
5500 0.063709
5510 0.064035
5520 0.061818
5530 0.061583
5540 0.059428
5550 0.055888
5560 0.056211
5570 0.05421
5580 0.052507
5590 0.048549
5600 0.047532
5610 0.047182
5620 0.047609
5630 0.046491
5640 0.044618
5650 0.043536
5660 0.042531
5670 0.041249
5680 0.039076
5690 0.036788
5700 0.036319
5710 0.035255
5720 0.034432
5730 0.033934
5740 0.036507
5750 0.037787
5760 0.04009
5770 0.041144
5780 0.043025
5790 0.044436
5800 0.047406
5810 0.052568
5820 0.055461
5830 0.057343
5840 0.059015
5850 0.057238
5860 0.058376
5870 0.059872
5880 0.060332
5890 0.05993
5900 0.059561
5910 0.060994
5920 0.060021
5930 0.060986
5940 0.060861
5950 0.060636
5960 0.059485
5970 0.058415
5980 0.056818
5990 0.056399
6000 0.055867
6010 0.05469
6020 0.05363
6030 0.053219
6040 0.053509
6050 0.052301
6060 0.051846
6070 0.05225
6080 0.052902
6090 0.050843
6100 0.050253
6110 0.051268
6120 0.050589
6130 0.050663
6140 0.051871
6150 0.051113
6160 0.051261
6170 0.051971
6180 0.052587
6190 0.052778
6200 0.054106
6210 0.055405
6220 0.056923
6230 0.057107
6240 0.056631
6250 0.05619
6260 0.055514
6270 0.054902
6280 0.054606
6290 0.054164
6300 0.054151
6310 0.053931
6320 0.053938
6330 0.054284
6340 0.054026
6350 0.054286
6360 0.053493
6370 0.053911
6380 0.053883
6390 0.054376
6400 0.055057
6410 0.05539
6420 0.055985
6430 0.057022
6440 0.056866
6450 0.057385
6460 0.057485
6470 0.057392
6480 0.057261
6490 0.057345
6500 0.056437
6510 0.056326
6520 0.056191
6530 0.05661
6540 0.056945
6550 0.057239
6560 0.058103
6570 0.058726
6580 0.058227
6590 0.055408
6600 0.054225
6610 0.053344
6620 0.052659
6630 0.051672
6640 0.05062
6650 0.049589
6660 0.04941
6670 0.049195
6680 0.048037
6690 0.047164
6700 0.046929
6710 0.046545
6720 0.046172
6730 0.044214
6740 0.043772
6750 0.042842
6760 0.04188
6770 0.041624
6780 0.040843
6790 0.039433
6800 0.038696
6810 0.038189
6820 0.03816
6830 0.036738
6840 0.035097
6850 0.033762
6860 0.034021
6870 0.032697
6880 0.032464
6890 0.033395
6900 0.034251
6910 0.034496
6920 0.034663
6930 0.034503
6940 0.034286
6950 0.035095
6960 0.035371
6970 0.035811
6980 0.036458
6990 0.035704
7000 0.035055
7010 0.035358
7020 0.035029
7030 0.034565
7040 0.034339
7050 0.033722
7060 0.032816
7070 0.031988
7080 0.03217
7090 0.032086
7100 0.032143
7110 0.032715
7120 0.032918
7130 0.032741
7140 0.033093
7150 0.032978
7160 0.032443
7170 0.032803
7180 0.033276
7190 0.034667
7200 0.034979
7210 0.034856
7220 0.034747
7230 0.035615
7240 0.035596
7250 0.035777
7260 0.035767
7270 0.035675
7280 0.035353
7290 0.035465
7300 0.035455
7310 0.035021
7320 0.03425
7330 0.033484
7340 0.032808
7350 0.032448
7360 0.031735
7370 0.031232
7380 0.03091
7390 0.03072
7400 0.029779
7410 0.029249
7420 0.028609
7430 0.027924
7440 0.027874
7450 0.027672
7460 0.026683
7470 0.026022
7480 0.025465
7490 0.024504
7500 0.023958
7510 0.023563
7520 0.023613
7530 0.023301
7540 0.022737
7550 0.021104
7560 0.020449
7570 0.019955
7580 0.019959
7590 0.019881
7600 0.019777
7610 0.019962
7620 0.020066
7630 0.020485
7640 0.02106
7650 0.021847
7660 0.022611
7670 0.023326
7680 0.024058
7690 0.024431
7700 0.025755
7710 0.026387
7720 0.026513
7730 0.027323
7740 0.027943
7750 0.028078
7760 0.028073
7770 0.027856
7780 0.027971
7790 0.02783
7800 0.028001
7810 0.027486
7820 0.026567
7830 0.025755
7840 0.025328
7850 0.025184
7860 0.025402
7870 0.025201
7880 0.024678
7890 0.02418
7900 0.023671
7910 0.023189
7920 0.02307
7930 0.022391
7940 0.021881
7950 0.021471
7960 0.020769
7970 0.020042
7980 0.019533
7990 0.018935
8000 0.018202
8010 0.01779
8020 0.017047
8030 0.016307
8040 0.015654
8050 0.015387
8060 0.015452
8070 0.014582
8080 0.013601
8090 0.012551
8100 0.011216
8110 0.011061
8120 0.0099465
8130 0.0092784
8140 0.0086817
8150 0.0077073
8160 0.0074349
8170 0.0065484
8180 0.0062223
8190 0.0060329
8200 0.0055274
8210 0.0061665
8220 0.0059458
8230 0.0059198
8240 0.0061381
8250 0.0060933
8260 0.0064271
8270 0.0064282
8280 0.0069284
8290 0.0076977
8300 0.0079527
8310 0.0081593
8320 0.0089852
8330 0.0091563
8340 0.0091682
8350 0.0093837
8360 0.0096884
8370 0.010276
8380 0.01052
8390 0.010671
8400 0.01131
8410 0.012681
8420 0.013162
8430 0.013644
8440 0.014102
8450 0.015435
8460 0.016052
8470 0.018124
8480 0.01911
8490 0.019786
8500 0.02085
8510 0.023062
8520 0.024774
8530 0.027958
8540 0.028208
8550 0.028707
8560 0.029682
8570 0.030797
8580 0.030823
8590 0.031905
8600 0.032972
8610 0.034133
8620 0.033485
8630 0.032698
8640 0.031688
8650 0.029558
8660 0.028188
8670 0.027613
8680 0.027045
8690 0.026467
8700 0.0255
8710 0.025299
8720 0.025657
8730 0.02465
8740 0.024021
8750 0.022417
8760 0.021282
8770 0.021135
8780 0.01847
8790 0.017043
8800 0.01618
8810 0.014367
8820 0.013377
8830 0.011984
8840 0.010705
8850 0.010332
8860 0.0095035
8870 0.0086101
8880 0.0083678
8890 0.0075845
8900 0.0074327
8910 0.0078259
8920 0.0078718
8930 0.0075816
8940 0.0072308
8950 0.0076805
8960 0.0080677
8970 0.0076248
8980 0.0075806
8990 0.0074977
9000 0.0071646
9010 0.0067688
9020 0.0067132
9030 0.0065192
9040 0.0063786
9050 0.00728485
9060 0.007407091
9070 0.007529332
9080 0.007651573
9090 0.007773814
9100 0.007896056
9110 0.008018297
9120 0.008140538
9130 0.008262779
9140 0.00838502
9150 0.008507261
9160 0.008629502
9170 0.008751743
9180 0.008873984
9190 0.008996226
9200 0.009118467
9210 0.009240708
9220 0.009362949
9230 0.00948519
9240 0.009607431
9250 0.009729672
9260 0.009851913
9270 0.009974154
9280 0.0100964
9290 0.01021864
9300 0.01034088
9310 0.01046312
9320 0.01058536
9330 0.0107076
9340 0.01082984
9350 0.01095208
9360 0.01107432
9370 0.01119657
9380 0.01131881
9390 0.01144105
9400 0.01156329
9410 0.01168553
9420 0.01180777
9430 0.01193001
9440 0.01205225
9450 0.01217449
9460 0.01229674
9470 0.01241898
9480 0.01254122
9490 0.01266346
9500 0.0127857
9510 0.01290794
9520 0.01303018
9530 0.01315242
9540 0.01327466
9550 0.01339691
9560 0.01351915
9570 0.01364139
9580 0.01376363
9590 0.01388587
9600 0.01400811
9610 0.01413035
9620 0.01425259
9630 0.01437483
9640 0.01449708
9650 0.01461932
9660 0.01474156
9670 0.0148638
9680 0.01498604
9690 0.01510828
9700 0.01523052
9710 0.01535276
9720 0.015475
9730 0.01559725
9740 0.01571949
9750 0.01584173
9760 0.01596397
9770 0.01608621
9780 0.01620845
9790 0.01633069
9800 0.01645293
9810 0.01657517
9820 0.01669742
9830 0.01681966
9840 0.0169419
9850 0.01706414
9860 0.01718638
9870 0.01730862
9880 0.01743086
9890 0.0175531
9900 0.01767534
9910 0.01779759
9920 0.01791983
9930 0.01804207
9940 0.01816431
9950 0.01828655
9960 0.01840879
9970 0.01853103
9980 0.01865327
9990 0.01877551
10000 0.01889776
10010 0.01902
10020 0.01914224
10030 0.01926448
10040 0.01938672
10050 0.01950896
10060 0.0196312
10070 0.01975344
10080 0.01987568
10090 0.01999793
10100 0.02012017
10110 0.02024241
10120 0.02036465
10130 0.02048689
10140 0.02060913
10150 0.02073137
10160 0.02085361
10170 0.02097585
10180 0.0210981
10190 0.02122034
10200 0.02134258
10210 0.02146482
10220 0.02158706
10230 0.0217093
10240 0.02183154
10250 0.02195378
10260 0.02207602
10270 0.02219827
10280 0.02232051
10290 0.02244275
10300 0.02256499
10310 0.02268723
10320 0.02280947
10330 0.02293171
10340 0.02305395
10350 0.02317619
10360 0.02329844
10370 0.02342068
10380 0.02354292
10390 0.02366516
10400 0.0237874
10410 0.02390964
10420 0.02403188
10430 0.02415412
10440 0.02427636
10450 0.02439861
10460 0.02452085
10470 0.02464309
10480 0.02476533
10490 0.02488757
10500 0.02500981
10510 0.02513205
10520 0.02525429
10530 0.02537653
10540 0.02549878
10550 0.02562102
10560 0.02574326
10570 0.0258655
10580 0.02598774
10590 0.02610998
10600 0.02623222
10610 0.02635446
10620 0.0264767
10630 0.02659895
10640 0.02672119
10650 0.02684343
10660 0.02696567
10670 0.02708791
10680 0.02721015
10690 0.02733239
10700 0.02745463
10710 0.02757687
10720 0.02769912
10730 0.02782136
10740 0.0279436
10750 0.02806584
10760 0.02818808
10770 0.02831032
10780 0.02843256
10790 0.0285548
10800 0.02867704
10810 0.02879929
10820 0.02892153
10830 0.02904377
10840 0.02916601
10850 0.02928825
10860 0.02941049
10870 0.02953273
10880 0.02965497
10890 0.02977721
10900 0.02989946
10910 0.0300217
10920 0.03014394
10930 0.03026618
10940 0.03038842
10950 0.03051066
10960 0.0306329
10970 0.03075514
10980 0.03087738
10990 0.03099963
11000 0.03112187
11010 0.03124411
11020 0.03136635
11030 0.03148859
11040 0.03161083
11050 0.03173307
11060 0.03185531
11070 0.03197755
11080 0.0320998
11090 0.03222204
11100 0.03234428
11110 0.03246652
11120 0.03258876
11130 0.032711
11140 0.03283324
11150 0.03295548
11160 0.03307772
11170 0.03319997
11180 0.03332221
11190 0.03344445
11200 0.03356669
11210 0.03368893
11220 0.03381117
11230 0.03393341
11240 0.03405565
11250 0.03417789
11260 0.03430014
11270 0.03442238
11280 0.03454462
11290 0.03466686
11300 0.0347891
11310 0.03491134
11320 0.03503358
11330 0.03515582
11340 0.03527806
11350 0.03540031
11360 0.03552255
11370 0.03564479
11380 0.03576703
11390 0.03588927
11400 0.03601151
11410 0.03613375
11420 0.03625599
11430 0.03637823
11440 0.03650048
11450 0.03662272
11460 0.03674496
11470 0.0368672
11480 0.03698944
11490 0.03711168
11500 0.03723392
11510 0.03735616
11520 0.0374784
11530 0.03760065
11540 0.03772289
11550 0.03784513
11560 0.03796737
11570 0.03808961
11580 0.03821185
11590 0.03833409
11600 0.03845633
11610 0.03857857
11620 0.03870082
11630 0.03882306
11640 0.0389453
11650 0.03906754
11660 0.03918978
11670 0.03931202
11680 0.03943426
11690 0.0395565
11700 0.03967874
11710 0.03980099
11720 0.03992323
11730 0.04004547
11740 0.04016771
11750 0.04028995
11760 0.04041219
11770 0.04053443
11780 0.04065667
11790 0.04077891
11800 0.04090116
11810 0.0410234
11820 0.04114564
11830 0.04126788
11840 0.04139012
11850 0.04151236
11860 0.0416346
11870 0.04175684
11880 0.04187908
11890 0.04200133
11900 0.04212357
11910 0.04224581
11920 0.04236805
11930 0.04235821
11940 0.04234838
11950 0.04233855
11960 0.04232871
11970 0.04231888
11980 0.04230904
11990 0.04229921
