#lamb flux
2370 3.6359e-11
2380 3.6157e-11
2390 3.5943e-11
2400 3.5716e-11
2410 3.5477e-11
2420 3.5226e-11
2430 3.4962e-11
2440 3.4685e-11
2450 3.4396e-11
2460 3.4094e-11
2470 3.3779e-11
2480 3.3452e-11
2490 3.3112e-11
2500 3.2758e-11
2510 3.2392e-11
2520 3.2013e-11
2530 3.1621e-11
2540 3.1216e-11
2550 3.0798e-11
2560 3.0367e-11
2570 2.9922e-11
2580 2.9465e-11
2590 2.8995e-11
2600 2.8511e-11
2610 2.8014e-11
2620 2.7532e-11
2630 2.7074e-11
2640 2.6601e-11
2650 2.6113e-11
2660 2.5611e-11
2670 2.5093e-11
2680 2.4928e-11
2690 2.4764e-11
2700 2.4603e-11
2710 2.4444e-11
2720 2.4287e-11
2730 2.4132e-11
2740 2.3979e-11
2750 2.3828e-11
2760 2.368e-11
2770 2.3533e-11
2780 2.3389e-11
2790 2.3247e-11
2800 2.3107e-11
2810 2.2969e-11
2820 2.2833e-11
2830 2.2699e-11
2840 2.2568e-11
2850 2.2438e-11
2860 2.231e-11
2870 2.2185e-11
2880 2.2061e-11
2890 2.1939e-11
2900 2.1819e-11
2910 2.1701e-11
2920 2.1584e-11
2930 2.147e-11
2940 2.1357e-11
2950 2.1245e-11
2960 2.1136e-11
2970 2.1027e-11
2980 2.092e-11
2990 2.0815e-11
3000 2.071e-11
3010 2.0606e-11
3020 2.0503e-11
3030 2.0401e-11
3040 2.03e-11
3050 2.0199e-11
3060 2.01e-11
3070 2e-11
3080 1.9901e-11
3090 1.9802e-11
3100 1.9703e-11
3110 1.9603e-11
3120 1.9503e-11
3130 1.9402e-11
3140 1.93e-11
3150 1.9196e-11
3160 1.909e-11
3170 1.8982e-11
3180 1.8871e-11
3190 1.8757e-11
3200 1.864e-11
3210 1.8518e-11
3220 1.839e-11
3230 1.8248e-11
3240 1.8101e-11
3250 1.7949e-11
3260 1.7792e-11
3270 1.763e-11
3280 1.7462e-11
3290 1.7288e-11
3300 1.7108e-11
3310 1.6923e-11
3320 1.6733e-11
3330 1.654e-11
3340 1.6345e-11
3350 1.6152e-11
3360 1.5964e-11
3370 1.579e-11
3380 1.5637e-11
3390 1.5507e-11
3400 1.5389e-11
3410 1.5276e-11
3420 1.5163e-11
3430 1.5049e-11
3440 1.4931e-11
3450 1.4808e-11
3460 1.4681e-11
3470 1.455e-11
3480 1.4412e-11
3490 1.4264e-11
3500 1.411e-11
3510 1.3952e-11
3520 1.379e-11
3530 1.3625e-11
3540 1.3458e-11
3550 1.3289e-11
3560 1.3118e-11
3570 1.2946e-11
3580 1.2774e-11
3590 1.2603e-11
3600 1.2431e-11
3610 1.226e-11
3620 1.2091e-11
3630 1.1923e-11
3640 1.1756e-11
3650 1.1591e-11
3660 1.1428e-11
3670 1.1268e-11
3680 1.1109e-11
3690 1.0953e-11
3700 1.08e-11
3710 1.0649e-11
3720 1.05e-11
3730 1.0355e-11
3740 1.0212e-11
3750 1.0072e-11
3760 9.9346e-12
3770 9.8002e-12
3780 9.6686e-12
3790 9.5398e-12
3800 9.4139e-12
3810 9.2908e-12
3820 9.1705e-12
3830 9.053e-12
3840 8.9384e-12
3850 8.8265e-12
3860 8.7173e-12
3870 8.6108e-12
3880 8.507e-12
3890 8.4059e-12
3900 8.3074e-12
3910 8.2114e-12
3920 8.118e-12
3930 8.0271e-12
3940 7.9386e-12
3950 7.8525e-12
3960 7.7689e-12
3970 7.6875e-12
3980 7.6084e-12
3990 7.5315e-12
4000 7.4568e-12
4010 7.3841e-12
4020 7.3136e-12
4030 7.245e-12
4040 7.1784e-12
4050 7.1136e-12
4060 7.0506e-12
4070 6.9894e-12
4080 6.9298e-12
4090 6.8717e-12
4100 6.8152e-12
4110 6.7601e-12
4120 6.7063e-12
4130 6.6537e-12
4140 6.6022e-12
4150 6.5517e-12
4160 6.5021e-12
4170 6.4532e-12
4180 6.405e-12
4190 6.3572e-12
4200 6.3097e-12
4210 6.2624e-12
4220 6.215e-12
4230 6.1832e-12
4240 6.1686e-12
4250 6.155e-12
4260 6.1424e-12
4270 6.1306e-12
4280 6.1196e-12
4290 6.1094e-12
4300 6.0997e-12
4310 6.0843e-12
4320 6.0689e-12
4330 6.0543e-12
4340 6.0407e-12
4350 6.0277e-12
4360 6.0153e-12
4370 6.0034e-12
4380 5.9916e-12
4390 5.9796e-12
4400 5.9671e-12
4410 5.9535e-12
4420 5.9382e-12
4430 5.9202e-12
4440 5.8985e-12
4450 5.8714e-12
4460 5.8364e-12
4470 5.7886e-12
4480 5.7172e-12
4490 5.633e-12
4500 5.5419e-12
4510 5.4469e-12
4520 5.3497e-12
4530 5.2518e-12
4540 5.1539e-12
4550 5.0555e-12
4560 4.9558e-12
4570 4.8568e-12
4580 4.7587e-12
4590 4.6618e-12
4600 4.5662e-12
4610 4.4722e-12
4620 4.3798e-12
4630 4.2891e-12
4640 4.2003e-12
4650 4.1134e-12
4660 4.0283e-12
4670 3.9452e-12
4680 3.864e-12
4690 3.7847e-12
4700 3.7074e-12
4710 3.632e-12
4720 3.5584e-12
4730 3.4868e-12
4740 3.4169e-12
4750 3.3486e-12
4760 3.282e-12
4770 3.2171e-12
4780 3.1539e-12
4790 3.0923e-12
4800 3.0323e-12
4810 2.974e-12
4820 2.9172e-12
4830 2.8621e-12
4840 2.8084e-12
4850 2.7563e-12
4860 2.7056e-12
4870 2.6563e-12
4880 2.6085e-12
4890 2.562e-12
4900 2.5168e-12
4910 2.4729e-12
4920 2.4302e-12
4930 2.3888e-12
4940 2.3486e-12
4950 2.3095e-12
4960 2.2716e-12
4970 2.2348e-12
4980 2.199e-12
4990 2.1643e-12
5000 2.1306e-12
5010 2.0979e-12
5020 2.0662e-12
5030 2.0354e-12
5040 2.0055e-12
5050 1.9765e-12
5060 1.9483e-12
5070 1.921e-12
5080 1.8945e-12
5090 1.8689e-12
5100 1.8439e-12
5110 1.8198e-12
5120 1.7963e-12
5130 1.7736e-12
5140 1.7516e-12
5150 1.7302e-12
5160 1.7095e-12
5170 1.6894e-12
5180 1.6699e-12
5190 1.6511e-12
5200 1.6328e-12
5210 1.6151e-12
5220 1.5979e-12
5230 1.5813e-12
5240 1.5652e-12
5250 1.5496e-12
5260 1.5345e-12
5270 1.5199e-12
5280 1.5057e-12
5290 1.492e-12
5300 1.4788e-12
5310 1.4659e-12
5320 1.4535e-12
5330 1.4415e-12
5340 1.4298e-12
5350 1.4186e-12
5360 1.4077e-12
5370 1.3972e-12
5380 1.387e-12
5390 1.3771e-12
5400 1.3676e-12
5410 1.3584e-12
5420 1.3494e-12
5430 1.3408e-12
5440 1.3325e-12
5450 1.3244e-12
5460 1.3166e-12
5470 1.3091e-12
5480 1.3018e-12
5490 1.2947e-12
5500 1.2878e-12
5510 1.2812e-12
5520 1.2748e-12
5530 1.2686e-12
5540 1.2625e-12
5550 1.2567e-12
5560 1.251e-12
5570 1.2455e-12
5580 1.2401e-12
5590 1.2348e-12
5600 1.2297e-12
5610 1.2247e-12
5620 1.2197e-12
5630 1.2149e-12
5640 1.2101e-12
5650 1.2054e-12
5660 1.2007e-12
5670 1.196e-12
5680 1.1914e-12
5690 1.1867e-12
5700 1.182e-12
5710 1.1772e-12
5720 1.1723e-12
5730 1.1673e-12
5740 1.1621e-12
5750 1.1568e-12
5760 1.1512e-12
5770 1.1454e-12
5780 1.1394e-12
5790 1.1329e-12
5800 1.1261e-12
5810 1.1187e-12
5820 1.1108e-12
5830 1.1022e-12
5840 1.0927e-12
5850 1.0822e-12
5860 1.0701e-12
5870 1.0558e-12
5880 1.04e-12
5890 1.0234e-12
5900 1.0063e-12
5910 9.8879e-13
5920 9.7104e-13
5930 9.5318e-13
5940 9.353e-13
5950 9.1747e-13
5960 8.9974e-13
5970 8.8217e-13
5980 8.6479e-13
5990 8.4764e-13
6000 8.3074e-13
6010 8.1412e-13
6020 7.9779e-13
6030 7.8177e-13
6040 7.6607e-13
6050 7.5069e-13
6060 7.3564e-13
6070 7.2092e-13
6080 7.0652e-13
6090 6.924e-13
6100 6.786e-13
6110 6.6513e-13
6120 6.5199e-13
6130 6.3918e-13
6140 6.2669e-13
6150 6.1451e-13
6160 6.0265e-13
6170 5.911e-13
6180 5.7985e-13
6190 5.6889e-13
6200 5.5823e-13
6210 5.4785e-13
6220 5.3775e-13
6230 5.2793e-13
6240 5.1837e-13
6250 5.0908e-13
6260 5.0004e-13
6270 4.9126e-13
6280 4.8272e-13
6290 4.7441e-13
6300 4.6634e-13
6310 4.585e-13
6320 4.5087e-13
6330 4.4347e-13
6340 4.3627e-13
6350 4.2928e-13
6360 4.2249e-13
6370 4.1589e-13
6380 4.0949e-13
6390 4.0327e-13
6400 3.9723e-13
6410 3.9136e-13
6420 3.8567e-13
6430 3.8014e-13
6440 3.7477e-13
6450 3.6956e-13
6460 3.6451e-13
6470 3.596e-13
6480 3.5485e-13
6490 3.5023e-13
6500 3.4575e-13
6510 3.4141e-13
6520 3.3719e-13
6530 3.3311e-13
6540 3.2914e-13
6550 3.253e-13
6560 3.2158e-13
6570 3.1797e-13
6580 3.1447e-13
6590 3.1108e-13
6600 3.078e-13
6610 3.0462e-13
6620 3.0169e-13
6630 2.9908e-13
6640 2.9654e-13
6650 2.9409e-13
6660 2.9171e-13
6670 2.894e-13
6680 2.8716e-13
6690 2.8498e-13
6700 2.8287e-13
6710 2.8081e-13
6720 2.7881e-13
6730 2.7686e-13
6740 2.7495e-13
6750 2.7309e-13
6760 2.7126e-13
6770 2.6947e-13
6780 2.6771e-13
6790 2.6598e-13
6800 2.6426e-13
6810 2.6257e-13
6820 2.6088e-13
6830 2.592e-13
6840 2.5752e-13
6850 2.5584e-13
6860 2.5415e-13
6870 2.5244e-13
6880 2.507e-13
6890 2.4894e-13
6900 2.4713e-13
6910 2.4529e-13
6920 2.438e-13
6930 2.4264e-13
6940 2.415e-13
6950 2.4037e-13
6960 2.3924e-13
6970 2.3813e-13
6980 2.37e-13
6990 2.3586e-13
7000 2.3471e-13
7010 2.3354e-13
7020 2.3233e-13
7030 2.3108e-13
7040 2.2978e-13
7050 2.284e-13
7060 2.2694e-13
7070 2.2535e-13
7080 2.2364e-13
7090 2.2172e-13
7100 2.1954e-13
7110 2.1681e-13
7120 2.1351e-13
7130 2.0995e-13
7140 2.0626e-13
7150 2.0252e-13
7160 1.9876e-13
7170 1.9503e-13
7180 1.9135e-13
7190 1.8773e-13
7200 1.8445e-13
7210 1.8314e-13
7220 1.8174e-13
7230 1.8027e-13
7240 1.7873e-13
7250 1.7714e-13
7260 1.755e-13
7270 1.7383e-13
7280 1.7212e-13
7290 1.704e-13
7300 1.6864e-13
7310 1.6672e-13
7320 1.648e-13
7330 1.6288e-13
7340 1.6097e-13
7350 1.5907e-13
7360 1.5719e-13
7370 1.5532e-13
7380 1.5348e-13
7390 1.5166e-13
7400 1.4986e-13
7410 1.481e-13
7420 1.4636e-13
7430 1.4465e-13
7440 1.4298e-13
7450 1.4133e-13
7460 1.3972e-13
7470 1.3814e-13
7480 1.3659e-13
7490 1.3507e-13
7500 1.3359e-13
7510 1.3213e-13
7520 1.3071e-13
7530 1.2932e-13
7540 1.2795e-13
7550 1.2662e-13
7560 1.2532e-13
7570 1.2405e-13
7580 1.228e-13
7590 1.2159e-13
7600 1.204e-13
7610 1.1924e-13
7620 1.181e-13
7630 1.1699e-13
7640 1.1591e-13
7650 1.1485e-13
7660 1.1381e-13
7670 1.128e-13
7680 1.1182e-13
7690 1.1085e-13
7700 1.099e-13
7710 1.0898e-13
7720 1.0808e-13
7730 1.072e-13
7740 1.0634e-13
7750 1.0551e-13
7760 1.0469e-13
7770 1.0389e-13
7780 1.0312e-13
7790 1.0236e-13
7800 1.0162e-13
7810 1.009e-13
7820 1.002e-13
7830 9.9518e-14
7840 9.8854e-14
7850 9.8207e-14
7860 9.7578e-14
7870 9.6965e-14
7880 9.637e-14
7890 9.5792e-14
7900 9.5231e-14
7910 9.4686e-14
7920 9.4157e-14
7930 9.3644e-14
7940 9.3148e-14
7950 9.2667e-14
7960 9.2202e-14
7970 9.1753e-14
7980 9.1319e-14
7990 9.09e-14
8000 9.0496e-14
8010 9.0108e-14
8020 8.9734e-14
8030 8.9376e-14
8040 8.9032e-14
8050 8.8703e-14
8060 8.8389e-14
8070 8.8089e-14
8080 8.7804e-14
8090 8.7533e-14
8100 8.7276e-14
8110 8.7033e-14
8120 8.6805e-14
8130 8.6592e-14
8140 8.6562e-14
8150 8.6616e-14
8160 8.6684e-14
8170 8.6766e-14
8180 8.6864e-14
8190 8.6976e-14
8200 8.7104e-14
8210 8.7247e-14
8220 8.7406e-14
8230 8.758e-14
8240 8.777e-14
8250 8.7977e-14
8260 8.8199e-14
8270 8.8438e-14
8280 8.8693e-14
8290 8.8965e-14
8300 8.9254e-14
8310 8.9559e-14
8320 8.9882e-14
8330 9.022e-14
8340 9.0576e-14
8350 9.0949e-14
8360 9.1336e-14
8370 9.174e-14
8380 9.2158e-14
8390 9.259e-14
8400 9.3035e-14
8410 9.3492e-14
8420 9.3959e-14
8430 9.4434e-14
8440 9.4913e-14
8450 9.5392e-14
8460 9.5866e-14
8470 9.6325e-14
8480 9.6757e-14
8490 9.7138e-14
8500 9.7105e-14
8510 9.7079e-14
8520 9.707e-14
8530 9.7077e-14
8540 9.7101e-14
8550 9.714e-14
8560 9.7194e-14
8570 9.7263e-14
8580 9.7346e-14
8590 9.7444e-14
8600 9.7556e-14
8610 9.7681e-14
8620 9.7819e-14
8630 9.7969e-14
8640 9.8132e-14
8650 9.8307e-14
8660 9.8494e-14
8670 9.8692e-14
8680 9.8901e-14
8690 9.912e-14
8700 9.9351e-14
8710 9.9591e-14
8720 9.9935e-14
8730 1.0047e-13
8740 1.0101e-13
8750 1.0157e-13
8760 1.0213e-13
8770 1.0271e-13
8780 1.0329e-13
8790 1.0388e-13
8800 1.0448e-13
8810 1.0509e-13
8820 1.057e-13
8830 1.0633e-13
8840 1.0696e-13
8850 1.0759e-13
8860 1.0823e-13
8870 1.0888e-13
8880 1.0954e-13
8890 1.102e-13
8900 1.1086e-13
8910 1.1153e-13
8920 1.122e-13
8930 1.1288e-13
8940 1.1356e-13
8950 1.1424e-13
8960 1.1493e-13
8970 1.1562e-13
8980 1.1631e-13
8990 1.1701e-13
9000 1.1771e-13
9010 1.184e-13
9020 1.191e-13
9030 1.1981e-13
9040 1.2051e-13
9050 4.136855e-08
9060 0.0
9070 0.0
9080 0.0
9090 0.0
9100 0.0
9110 0.0
9120 0.0
9130 0.0
9140 0.0
9150 0.0
9160 0.0
9170 0.0
9180 0.0
9190 0.0
9200 0.0
9210 0.0
9220 0.0
9230 0.0
9240 0.0
9250 0.0
9260 0.0
9270 0.0
9280 0.0
9290 0.0
9300 0.0
9310 0.0
9320 0.0
9330 0.0
9340 0.0
9350 0.0
9360 0.0
9370 0.0
9380 0.0
9390 0.0
9400 0.0
9410 0.0
9420 0.0
9430 0.0
9440 0.0
9450 0.0
9460 0.0
9470 0.0
9480 0.0
9490 0.0
9500 0.0
9510 0.0
9520 0.0
9530 0.0
9540 0.0
9550 0.0
9560 0.0
9570 0.0
9580 0.0
9590 0.0
9600 0.0
9610 0.0
9620 0.0
9630 0.0
9640 0.0
9650 0.0
9660 0.0
9670 0.0
9680 0.0
9690 0.0
9700 0.0
9710 0.0
9720 0.0
9730 0.0
9740 0.0
9750 0.0
9760 0.0
9770 0.0
9780 0.0
9790 0.0
9800 0.0
9810 0.0
9820 0.0
9830 0.0
9840 0.0
9850 0.0
9860 0.0
9870 0.0
9880 0.0
9890 0.0
9900 0.0
9910 0.0
9920 0.0
9930 0.0
9940 0.0
9950 0.0
9960 0.0
9970 0.0
9980 0.0
9990 0.0
10000 0.0
10010 0.0
10020 0.0
10030 0.0
10040 0.0
10050 0.0
10060 0.0
10070 0.0
10080 0.0
10090 0.0
10100 0.0
10110 0.0
10120 0.0
10130 0.0
10140 0.0
10150 0.0
10160 0.0
10170 0.0
10180 0.0
10190 0.0
10200 0.0
10210 0.0
10220 0.0
10230 0.0
10240 0.0
10250 0.0
10260 0.0
10270 0.0
10280 0.0
10290 0.0
10300 0.0
10310 0.0
10320 0.0
10330 0.0
10340 0.0
10350 0.0
10360 0.0
10370 0.0
10380 0.0
10390 0.0
10400 0.0
10410 0.0
10420 0.0
10430 0.0
10440 0.0
10450 0.0
10460 0.0
10470 0.0
10480 0.0
10490 0.0
10500 0.0
10510 0.0
10520 0.0
10530 0.0
10540 0.0
10550 0.0
10560 0.0
10570 0.0
10580 0.0
10590 0.0
10600 0.0
10610 0.0
10620 0.0
10630 0.0
10640 0.0
10650 0.0
10660 0.0
10670 0.0
10680 0.0
10690 0.0
10700 0.0
10710 0.0
10720 0.0
10730 0.0
10740 0.0
10750 0.0
10760 0.0
10770 0.0
10780 0.0
10790 0.0
10800 0.0
10810 0.0
10820 0.0
10830 0.0
10840 0.0
10850 0.0
10860 0.0
10870 0.0
10880 0.0
10890 0.0
10900 0.0
10910 0.0
10920 0.0
10930 0.0
10940 0.0
10950 0.0
10960 0.0
10970 0.0
10980 0.0
10990 0.0
11000 0.0
11010 0.0
11020 0.0
11030 0.0
11040 0.0
11050 0.0
11060 0.0
11070 0.0
11080 0.0
11090 0.0
11100 0.0
11110 0.0
11120 0.0
11130 0.0
11140 0.0
11150 0.0
11160 0.0
11170 0.0
11180 0.0
11190 0.0
11200 0.0
11210 0.0
11220 0.0
11230 0.0
11240 0.0
11250 0.0
11260 0.0
11270 0.0
11280 0.0
11290 0.0
11300 0.0
11310 0.0
11320 0.0
11330 0.0
11340 0.0
11350 0.0
11360 0.0
11370 0.0
11380 0.0
11390 0.0
11400 0.0
11410 0.0
11420 0.0
11430 0.0
11440 0.0
11450 0.0
11460 0.0
11470 0.0
11480 0.0
11490 0.0
11500 0.0
11510 0.0
11520 0.0
11530 0.0
11540 0.0
11550 0.0
11560 0.0
11570 0.0
11580 0.0
11590 0.0
11600 0.0
11610 0.0
11620 0.0
11630 0.0
11640 0.0
11650 0.0
11660 0.0
11670 0.0
11680 0.0
11690 0.0
11700 0.0
11710 0.0
11720 0.0
11730 0.0
11740 0.0
11750 0.0
11760 0.0
11770 0.0
11780 0.0
11790 0.0
11800 0.0
11810 0.0
11820 0.0
11830 0.0
11840 0.0
11850 0.0
11860 0.0
11870 0.0
11880 0.0
11890 0.0
11900 0.0
11910 0.0
11920 0.0
11930 0.0
11940 0.0
11950 0.0
11960 0.0
11970 0.0
11980 0.0
11990 0.0
