#lamb flux
1000.0 9.78942485e-06
1010.0 1.1860994725000002e-05
1020.0 1.4417460699999999e-05
1030.0 1.7556798775e-05
1040.0 2.1400699175e-05
1050.0 2.6088125575000002e-05
1060.0 3.1774104274999996e-05
1070.0 3.86269344e-05
1080.0 4.682359620000001e-05
1090.0 5.654335837500001e-05
1100.0 6.795987765e-05
1110.0 8.12323049e-05
1120.0 9.64961295e-05
1130.0 0.00011385456850000002
1140.0 0.00013337113425
1150.0 0.000155063892
1160.0 0.00017890166925
1170.0 0.00020480211325
1180.0 0.00023263158925
1190.0 0.0002622067715
1200.0 0.00029329779750000005
1210.0 0.00032563293
1220.0 0.00035890470825
1230.0 0.00039277743125000004
1240.0 0.000426895751
1250.0 0.00046089421850000004
1260.0 0.00049440719975
1270.0 0.0005270788380000001
1280.0 0.00055857263675
1290.0 0.00058858013625
1300.0 0.0006168284522500001
1310.0 0.00064308631625
1320.0 0.0006671685895
1330.0 0.0006889391027500001
1340.0 0.0007083119327500001
1350.0 0.0007252512265000001
1360.0 0.0007397696842500001
1370.0 0.0007519258492500002
1380.0 0.00076182061125
1390.0 0.00076959275725
1400.0 0.00077541407825
1410.0 0.00077948387475
1420.0 0.0007820233420000001
1430.0 0.0007832696962500001
1440.0 0.0007834702085
1450.0 0.0007828764694999999
1460.0 0.00078173878425
1470.0 0.0007803009735
1480.0 0.0007787956285000001
1490.0 0.00077744006875
1500.0 0.0007764329195000001
1510.0 0.0007759516605000001
1520.0 0.0007761509055
1530.0 0.00077716182875
1540.0 0.00077909226675
1550.0 0.00078202792075
1560.0 0.000786034216
1570.0 0.00079115881775
1580.0 0.00079743460975
1590.0 0.000804882867
1600.0 0.00081351636375
1610.0 0.000823342278
1620.0 0.0008343646057500001
1630.0 0.00084658598325
1640.0 0.00086000869525
1650.0 0.0008746352762500001
1660.0 0.00089046820525
1670.0 0.00090750912875
1680.0 0.000925757575
1690.0 0.0009452093075000001
1700.0 0.00096585392
1710.0 0.00098767245
1720.0 0.00101063391
1730.0 0.0010346919575
1740.0 0.00105978101
1750.0 0.00108581273
1760.0 0.0011126729725000001
1770.0 0.00114022123
1780.0 0.0011682921125
1790.0 0.0011967012675000001
1800.0 0.001225255185
1810.0 0.0012537659975000001
1820.0 0.00128207035
1830.0 0.0013100498424999999
1840.0 0.001337651195
1850.0 0.00136490225
1860.0 0.0013919210375
1870.0 0.0014189141100000003
1880.0 0.0014461641475
1890.0 0.0014740064625
1900.0 0.0015027978274999999
1910.0 0.001532881695
1920.0 0.0015645560075000001
1930.0 0.0015980474825000002
1940.0 0.0016334978300000002
1950.0 0.0016709624575
1960.0 0.0017104203675
1970.0 0.0017517924725000001
1980.0 0.00179496176
1990.0 0.0018397916075000003
2000.0 0.0018861355875000004
2010.0 0.0019338383925000004
2020.0 0.0019827257525
2030.0 0.0020325873225
2040.0 0.00208315476
2050.0 0.0021340789700000002
2060.0 0.0021849115125000002
2070.0 0.002235091745
2080.0 0.0022839425675000003
2090.0 0.0023306769900000002
2100.0 0.002374416725
2110.0 0.0024142258575
2120.0 0.002449160425
2130.0 0.002478333815
2140.0 0.0025009943725
2150.0 0.0025166080025000002
2160.0 0.00252493476
2170.0 0.0025260857375000003
2180.0 0.0025205486875
2190.0 0.0025091722975000004
2200.0 0.0024931091175
2210.0 0.00247372084
2220.0 0.0024524603625
2230.0 0.00243074904
2240.0 0.002409867165
2250.0 0.002390873215
2260.0 0.002374563245
2270.0 0.00236146876
2280.0 0.002351890015
2290.0 0.0023459493875000004
2300.0 0.0023436524275
2310.0 0.0023449428025000005
2320.0 0.0023497382800000003
2330.0 0.00235794636
2340.0 0.00236945928
2350.0 0.0023841339425000004
2360.0 0.00240176842
2370.0 0.0024220833625
2380.0 0.002444717095
2390.0 0.0024692367175
2400.0 0.0024951652075
2410.0 0.0025220156450000003
2420.0 0.0025493234025000004
2430.0 0.00257666557
2440.0 0.002603658735
2450.0 0.0026299360425000003
2460.0 0.0026551056625000002
2470.0 0.0026787046325
2480.0 0.0027001647250000003
2490.0 0.002718805325
2500.0 0.00273386747
2510.0 0.002744588775
2520.0 0.0027503136925000004
2530.0 0.0027506176475
2540.0 0.0027454188700000003
2550.0 0.0027350519325
2560.0 0.0027202834750000003
2570.0 0.0027022614225
2580.0 0.00268240676
2590.0 0.0026622684
2600.0 0.0026433674125000005
2610.0 0.0026270580900000003
2620.0 0.0026144258275000005
2630.0 0.0026062304200000002
2640.0 0.00260289709
2650.0 0.0026052551
2660.0 0.002650486305
2670.0 0.0030834424524999998
2680.0 0.00416169525
2690.0 0.0052399461050000005
2700.0 0.00631884187
2710.0 0.0070604682975
2720.0 0.007379360012500002
2730.0 0.007877025367500002
2740.0 0.008427672595
2750.0 0.008706096115
2760.0 0.0087939282875
2770.0 0.008762773085000002
2780.0 0.008693291617500001
2790.0 0.00872673601
2800.0 0.00888315943
2810.0 0.009061797835
2820.0 0.0092973637
2830.0 0.00938422305
2840.0 0.00897917147
2850.0 0.008781911057500001
2860.0 0.0096898967
2870.0 0.011330772700000002
2880.0 0.01216838795
2890.0 0.011783908925
2900.0 0.012066199500000001
2910.0 0.0128828672
2920.0 0.013362956075000001
2930.0 0.0135393434
2940.0 0.0136610623
2950.0 0.013585529575000001
2960.0 0.013159404275000001
2970.0 0.012581790800000001
2980.0 0.012177094975
2990.0 0.011718193225000001
3000.0 0.010847053200000002
3010.0 0.010098560775
3020.0 0.0100153894
3030.0 0.010266616625
3040.0 0.009994279975
3050.0 0.009324298775
3060.0 0.009663442625
3070.0 0.011089671450000001
3080.0 0.012121387774999999
3090.0 0.012154700725000002
3100.0 0.011561722075
3110.0 0.010978959125000002
3120.0 0.010905823075000001
3130.0 0.011624131825000002
3140.0 0.0128666797
3150.0 0.013897988100000001
3160.0 0.014416198074999999
3170.0 0.0146647909
3180.0 0.015145301575000002
3190.0 0.016267914875
3200.0 0.017481226275
3210.0 0.017775036799999998
3220.0 0.01685871145
3230.0 0.015268409825
3240.0 0.014054967075
3250.0 0.01371127685
3260.0 0.013846119649999999
3270.0 0.0144930147
3280.0 0.015310060725
3290.0 0.015380175725
3300.0 0.015248962625000003
3310.0 0.015474549774999999
3320.0 0.015635486825
3330.0 0.015525915025
3340.0 0.015056605175000003
3350.0 0.01430943735
3360.0 0.013952391975
3370.0 0.014207900099999999
3380.0 0.01492555395
3390.0 0.01581704305
3400.0 0.0166146872
3410.0 0.01724014445
3420.0 0.017649674325000003
3430.0 0.017825685175
3440.0 0.017839892250000003
3450.0 0.017788755475
3460.0 0.017816695100000002
3470.0 0.01812386355
3480.0 0.018781623650000003
3490.0 0.019712660200000003
3500.0 0.020823355800000002
3510.0 0.022006580650000003
3520.0 0.02311305455
3530.0 0.023983154875000003
3540.0 0.024659999574999997
3550.0 0.025370314475
3560.0 0.026130583075
3570.0 0.026809705125
3580.0 0.027316762375
3590.0 0.027574928950000004
3600.0 0.027523557225000002
3610.0 0.0272104512
3620.0 0.027083645725
3630.0 0.027751003625000003
3640.0 0.029204443175000004
3650.0 0.031018166525000005
3660.0 0.032829788275
3670.0 0.034398419925
3680.0 0.0355086114
3690.0 0.035942133
3700.0 0.0355675265
3710.0 0.034424849025
3720.0 0.032723789749999996
3730.0 0.030703056950000005
3740.0 0.028492252375
3750.0 0.026170363625
3760.0 0.0239154569
3770.0 0.022015703
3780.0 0.020732605900000003
3790.0 0.020194197625
3800.0 0.0204169552
3810.0 0.021522066575000002
3820.0 0.023749094725
3830.0 0.027101959800000002
3840.0 0.031338836275
3850.0 0.036147012175
3860.0 0.041176638625000005
3870.0 0.046090969375
3880.0 0.05065143860000001
3890.0 0.0547511422
3900.0 0.05838105495000001
3910.0 0.061579840000000004
3920.0 0.06439867205000001
3930.0 0.06686805945
3940.0 0.06893730665
3950.0 0.070422396925
3960.0 0.07104900765000001
3970.0 0.07059669005
3980.0 0.06904039420000001
3990.0 0.06659038924999999
4000.0 0.06363131702500001
4010.0 0.060603715249999995
4020.0 0.057874866275
4030.0 0.055651998775
4040.0 0.053963000575
4050.0 0.0526952964
4060.0 0.051667502075
4070.0 0.0507111529
4080.0 0.04974793745
4090.0 0.04882154255
4100.0 0.04803462655000001
4110.0 0.04746319762500001
4120.0 0.047127839799999995
4130.0 0.047035172374999996
4140.0 0.04722597675
4150.0 0.047748799700000004
4160.0 0.0485773296
4170.0 0.049576809675
4180.0 0.05056530167500001
4190.0 0.0514073708
4200.0 0.052056723575000005
4210.0 0.05253139750000001
4220.0 0.052878495425000005
4230.0 0.05317093325
4240.0 0.0535046899
4250.0 0.053969649475000006
4260.0 0.05459969102500001
4270.0 0.055359660850000006
4280.0 0.0561668473
4290.0 0.056900205800000006
4300.0 0.0573721223
4310.0 0.057318389974999995
4320.0 0.056480761775000006
4330.0 0.054750898925000006
4340.0 0.05225129455
4350.0 0.049278781150000006
4360.0 0.046167193075
4370.0 0.043182071924999996
4380.0 0.040502727100000004
4390.0 0.038259845375000004
4400.0 0.036563191875000005
4410.0 0.035488883000000006
4420.0 0.035060692175000005
4430.0 0.0352571335
4440.0 0.0360324685
4450.0 0.03734692495
4460.0 0.039189276125
4470.0 0.041577535475
4480.0 0.044550875825
4490.0 0.048176219075
4500.0 0.05255671845
4510.0 0.0578003085
4520.0 0.063948395
4530.0 0.070919982175
4540.0 0.078496536
4550.0 0.086323035
4560.0 0.09393297300000002
4570.0 0.100828256
4580.0 0.10657911975000002
4590.0 0.11087374675000002
4600.0 0.11351761875000001
4610.0 0.11441834675
4620.0 0.1135365905
4630.0 0.11084956725
4640.0 0.10636829375000001
4650.0 0.10025953825
4660.0 0.09297976975
4670.0 0.08519106255
4680.0 0.07750404152500001
4690.0 0.070357717225
4700.0 0.064050715725
4710.0 0.058768636425000007
4720.0 0.054600641925000006
4730.0 0.0515769825
4740.0 0.049712363800000006
4750.0 0.04901540035
4760.0 0.0494415571
4770.0 0.050826221974999995
4780.0 0.05286096205
4790.0 0.055143176625000005
4800.0 0.05728095985
4810.0 0.059004223749999994
4820.0 0.060259688325
4830.0 0.06124683815
4840.0 0.06232174550000001
4850.0 0.06380544365
4860.0 0.06591905015
4870.0 0.068862858025
4880.0 0.072780819475
4890.0 0.07760451872500002
4900.0 0.082967122975
4910.0 0.08823349300000001
4920.0 0.09261259100000001
4930.0 0.095334237
4940.0 0.0958539945
4950.0 0.09401488175000002
4960.0 0.090098908125
4970.0 0.084758829475
4980.0 0.07887037937500001
4990.0 0.073326501025
5000.0 0.06873401200000001
5010.0 0.0651359396
5020.0 0.06218791002500001
5030.0 0.05964415077500001
5040.0 0.05747605160000001
5050.0 0.055663908150000004
5060.0 0.054119482825
5070.0 0.05275835920000001
5080.0 0.051552825200000006
5090.0 0.050529264600000005
5100.0 0.049744324400000005
5110.0 0.04926320137500001
5120.0 0.049143184475000004
5130.0 0.049420891674999995
5140.0 0.050109753050000004
5150.0 0.051212440000000005
5160.0 0.05273506215
5170.0 0.05468436645
5180.0 0.057049818075
5190.0 0.05978766545
5200.0 0.0628275133
5210.0 0.066087373325
5220.0 0.06947966004999999
5230.0 0.07291500275000001
5240.0 0.07631256105
5250.0 0.079609746675
5260.0 0.0827552656
5270.0 0.0856859579
5280.0 0.08830952800000001
5290.0 0.090513700325
5300.0 0.09220217959999999
5310.0 0.09334142625000001
5320.0 0.0939970755
5330.0 0.09434017650000001
5340.0 0.094615031
5350.0 0.0950835435
5360.0 0.09597575225
5370.0 0.0974663435
5380.0 0.099673338
5390.0 0.102661643
5400.0 0.10644355175000002
5410.0 0.110962112
5420.0 0.11607788000000001
5430.0 0.1215756175
5440.0 0.12718614025000002
5450.0 0.132618767
5460.0 0.13760180675
5470.0 0.1419241005
5480.0 0.14546008875000002
5490.0 0.14816340125000002
5500.0 0.15003258575
5510.0 0.1510736825
5520.0 0.15128775525000002
5530.0 0.1506848865
5540.0 0.14930227975000002
5550.0 0.14720828325
5560.0 0.1444907535
5570.0 0.141235512
5580.0 0.13750698500000003
5590.0 0.133345262
5600.0 0.128777982
5610.0 0.12385071975
5620.0 0.11864717849999999
5630.0 0.11329023525
5640.0 0.10793217275
5650.0 0.10274251575
5660.0 0.09789718075
5670.0 0.0935679125
5680.0 0.0899113357
5690.0 0.087059939025
5700.0 0.08511626335
5710.0 0.0841466284
5720.0 0.08416992082500001
5730.0 0.08514366000000001
5740.0 0.08695642690000001
5750.0 0.089434251225
5760.0 0.09236084300000001
5770.0 0.09550445549999999
5780.0 0.09864175025
5790.0 0.10157201149999999
5800.0 0.10412331875000001
5810.0 0.1061586795
5820.0 0.10758733275
5830.0 0.10837485925
5840.0 0.10854232124999999
5850.0 0.10814297100000002
5860.0 0.10722850675000001
5870.0 0.10583332000000001
5880.0 0.10398002700000002
5890.0 0.10169191
5900.0 0.098996645
5910.0 0.09592337875000001
5920.0 0.092508695
5930.0 0.08881620415
5940.0 0.0849557703
5950.0 0.081082762925
5960.0 0.077373109625
5970.0 0.073987230375
5980.0 0.07104026455
5990.0 0.06858801
6000.0 0.06662851497500001
6010.0 0.06511500037500001
6020.0 0.06397443375
6030.0 0.06312518014999999
6040.0 0.06248803922500001
6050.0 0.06198962887500001
6060.0 0.061562796875
6070.0 0.061148883425
6080.0 0.060705944399999996
6090.0 0.060218350999999996
6100.0 0.05969961192499999
6110.0 0.05918893977500001
6120.0 0.0587445263
6130.0 0.05843505645000001
6140.0 0.05832766302500001
6150.0 0.0584708225
6160.0 0.058875862425
6170.0 0.059505103850000005
6180.0 0.06027378810000001
6190.0 0.061067553724999994
6200.0 0.061771177175
6210.0 0.062299030275
6220.0 0.06261502137500001
6230.0 0.06273475985
6240.0 0.06271573815
6250.0 0.06264829455
6260.0 0.06264961915000002
6270.0 0.06285177605000002
6280.0 0.063380386725
6290.0 0.064331904625
6300.0 0.0657587199
6310.0 0.06766648152500002
6320.0 0.07002378297500002
6330.0 0.072780294075
6340.0 0.07588562545
6350.0 0.07929902345
6360.0 0.082987123325
6370.0 0.08691243945
6380.0 0.09102026362500001
6390.0 0.095231969
6400.0 0.099448304
6410.0 0.10356040999999999
6420.0 0.107463096
6430.0 0.11106550850000001
6440.0 0.11429746775
6450.0 0.11711218724999999
6460.0 0.11948564475
6470.0 0.12141222550000003
6480.0 0.12289706325000001
6490.0 0.12394780775000001
6500.0 0.12456906550000002
6510.0 0.12476177075
6520.0 0.12452659875000001
6530.0 0.12386815600000001
6540.0 0.122796118
6550.0 0.12132165875000002
6560.0 0.11945186374999998
6570.0 0.11718697350000001
6580.0 0.1145223075
6590.0 0.11145551625000001
6600.0 0.1079973575
6610.0 0.10418170475
6620.0 0.10007104175000002
6630.0 0.09575586125000002
6640.0 0.09134823995000001
6650.0 0.08697102525
6660.0 0.082745011975
6670.0 0.07877650667500001
6680.0 0.07514771225000001
6690.0 0.0719114388
6700.0 0.0690904848
6710.0 0.0666806415
6720.0 0.06465553715000001
6730.0 0.062971854925
6740.0 0.06157451847499999
6750.0 0.060402426925
6760.0 0.059395557025
6770.0 0.058503305725
6780.0 0.0576919799
6790.0 0.056947538975
6800.0 0.056271289050000006
6810.0 0.055671358100000005
6820.0 0.055155270075
6830.0 0.05472531805
6840.0 0.054375012225
6850.0 0.054087344625000006
6860.0 0.053837959075
6870.0 0.0536019333
6880.0 0.053360030075
6890.0 0.053101166049999995
6900.0 0.052821145425
6910.0 0.052519432624999994
6920.0 0.052195567925000005
6930.0 0.051846232425
6940.0 0.05146390865
6950.0 0.051037874925
6960.0 0.0505574216
6970.0 0.050015994125
6980.0 0.049414525825
6990.0 0.04876283465
7000.0 0.048079046900000005
7010.0 0.047387676925
7020.0 0.046716927974999996
7030.0 0.0460956286
7040.0 0.045550346650000004
7050.0 0.0451033996
7060.0 0.04477225515
7070.0 0.044570229600000004
7080.0 0.044508032600000004
7090.0 0.044595473775000005
7100.0 0.044842244350000005
7110.0 0.045256389050000005
7120.0 0.0458398365
7130.0 0.0465824117
7140.0 0.0474573581
7150.0 0.048421335749999996
7160.0 0.0494199047
7170.0 0.050396195025
7180.0 0.0512991421
7190.0 0.052088805349999996
7200.0 0.05273870295000001
7210.0 0.05323674145
7220.0 0.0535859345
7230.0 0.053804575825000006
7240.0 0.05392466765000001
7250.0 0.05398822810000001
7260.0 0.054042539475
7270.0 0.054135870125000006
7280.0 0.0543140094
7290.0 0.054616733225000005
7300.0 0.05507349175
7310.0 0.055699279225
7320.0 0.056492779374999996
7330.0 0.0574378491
7340.0 0.058507161125
7350.0 0.05966556175
7360.0 0.0608713714
7370.0 0.06207567607500001
7380.0 0.063221064725
7390.0 0.06424175505
7400.0 0.0650666756
7410.0 0.065626233075
7420.0 0.06586196377499999
7430.0 0.06573833475000002
7440.0 0.06525278005
7450.0 0.06443951912500001
7460.0 0.063366002975
7470.0 0.062123456025
7480.0 0.06081468925
7490.0 0.059541570125
7500.0 0.0583932927
7510.0 0.057437587325000004
7520.0 0.0567191981
7530.0 0.056268181975000005
7540.0 0.05611291887500001
7550.0 0.056286262025
7560.0 0.056816949325
7570.0 0.057710876725
7580.0 0.058936352799999994
7590.0 0.060424605650000004
7600.0 0.062084938099999994
7610.0 0.06382459115
7620.0 0.06556348570000001
7630.0 0.067240204525
7640.0 0.06881112369999999
7650.0 0.07024629357500001
7660.0 0.071524643575
7670.0 0.07262980212500002
7680.0 0.07354719862499999
7690.0 0.074263122725
7700.0 0.074765954575
7710.0 0.075048791825
7720.0 0.075111749175
7730.0 0.07496226177500001
7740.0 0.074612822675
7750.0 0.074077626
7760.0 0.07336986872500001
7770.0 0.07250084972500001
7780.0 0.07148072920000001
7790.0 0.07032001885
7800.0 0.0690308741
7810.0 0.06762777305
7820.0 0.066127542375
7830.0 0.06454879122500001
7840.0 0.062910832675
7850.0 0.061232346174999994
7860.0 0.059530189850000005
7870.0 0.05781885752500001
7880.0 0.056110799700000005
7890.0 0.054417517825000004
7900.0 0.052750986949999995
7910.0 0.051124832325
7920.0 0.04955467165000001
7930.0 0.04805710775
7940.0 0.0466473282
7950.0 0.045336103700000005
7960.0 0.044127806725
7970.0 0.0430208102
7980.0 0.04200980555
7990.0 0.04108760460000001
8000.0 0.04024452075
8010.0 0.03946675485
8020.0 0.038735143675
8030.0 0.0380252071
8040.0 0.037309159050000006
8050.0 0.0365572099
8060.0 0.035737577575
8070.0 0.034816432975000006
8080.0 0.033759501149999996
8090.0 0.0325362497
8100.0 0.031126190800000005
8110.0 0.0295255005
8120.0 0.027751634475
8130.0 0.025844138325000002
8140.0 0.02386116495
8150.0 0.021872664700000002
8160.0 0.0199520502
8170.0 0.018168146075
8180.0 0.016578611275000002
8190.0 0.015225343675000003
8200.0 0.014132048250000001
8210.0 0.0133040863
8220.0 0.012730532650000001
8230.0 0.012388123550000001
8240.0 0.012246312725
8250.0 0.012272430099999999
8260.0 0.012435998775
8270.0 0.012711572
8280.0 0.013079904225000001
8290.0 0.013527730024999999
8300.0 0.014046767875
8310.0 0.014632786825
8320.0 0.015285477924999999
8330.0 0.0160094634
8340.0 0.01681609115
8350.0 0.017724976725
8360.0 0.018763860875
8370.0 0.019965683775000003
8380.0 0.02136276955
8390.0 0.022979431825000004
8400.0 0.024825226775
8410.0 0.026890536250000003
8420.0 0.029148560225
8430.0 0.031561587375
8440.0 0.034088753975
8450.0 0.036692350549999996
8460.0 0.039340052050000004
8470.0 0.042002541525
8480.0 0.04464847905
8490.0 0.047240267075
8500.0 0.049733735
8510.0 0.052082798400000005
8520.0 0.0542475315
8530.0 0.05620237655
8540.0 0.0579412748
8550.0 0.059477959725
8560.0 0.060841742724999995
8570.0 0.06207079762500001
8580.0 0.06320551825000001
8590.0 0.06428382960000001
8600.0 0.06533866167499999
8610.0 0.066396375125
8620.0 0.06747493715000001
8630.0 0.0685818495
8640.0 0.06971303755000001
8650.0 0.070853805825
8660.0 0.071981978375
8670.0 0.073072298075
8680.0 0.074100755625
8690.0 0.075047583775
8700.0 0.07589829795
8710.0 0.07664466565
8720.0 0.0772812858
8730.0 0.07780142532499999
8740.0 0.07819608027500001
8750.0 0.078455069175
8760.0 0.07856928540000001
8770.0 0.078532582325
8780.0 0.07834219512500001
8790.0 0.0779977353
8800.0 0.077499812425
8810.0 0.07684945602500001
8820.0 0.0760487418
8830.0 0.07510208477500001
8840.0 0.07401724755
8850.0 0.07280552344999999
8860.0 0.07148125275
8870.0 0.070061188125
8880.0 0.06856408580000001
8890.0 0.067010434525
8900.0 0.06542196255
8910.0 0.06382065065
8920.0 0.06235735707500001
8930.0 0.060958398175000005
8940.0 0.059599809975
8950.0 0.05828956505
8960.0 0.057030727
8970.0 0.0558232209
8980.0 0.054667618400000006
8990.0 0.05356978215000001
9000.0 0.05254353257500001
9010.0 0.05160846025000001
9020.0 0.050782876475
9030.0 0.05007573155
9040.0 0.049482511475000004
9050.0 0.048987346025
9060.0 0.048569271000000004
9070.0 0.0482084766
9080.0 0.047889491275
9090.0 0.04760084965000001
9100.0 0.047332647750000005
9110.0 0.047073937275
9120.0 0.046811413950000005
9130.0 0.046530055774999995
9140.0 0.046215422575000005
9150.0 0.045856499450000004
9160.0 0.04544754955
9170.0 0.0449878671
9180.0 0.044479706325
9190.0 0.043926225175
9200.0 0.04333163887500001
9210.0 0.0427042678
9220.0 0.04206091735
9230.0 0.04142993785
9240.0 0.04085087952500001
9250.0 0.04036963625
9260.0 0.040028880125
9270.0 0.039855464825
9280.0 0.03984961975
9290.0 0.039982385925
