#lamb flux
1000.0 1.4690278350000001e-06
1010.0 1.7800325559999998e-06
1020.0 2.163885578e-06
1030.0 2.6353261839999997e-06
1040.0 3.2126660070000002e-06
1050.0 3.91682592e-06
1060.0 4.7711592499999995e-06
1070.0 5.80103834e-06
1080.0 7.0331683099999995e-06
1090.0 8.494635379999999e-06
1100.0 1.021172324e-05
1110.0 1.2208582899999999e-05
1120.0 1.4505860359999999e-05
1130.0 1.711940272e-05
1140.0 2.0059146700000003e-05
1150.0 2.332825284e-05
1160.0 2.692253089e-05
1170.0 3.083014677e-05
1180.0 3.503160333e-05
1190.0 3.94999716e-05
1200.0 4.420136179999999e-05
1210.0 4.909561079999999e-05
1220.0 5.4137204899999996e-05
1230.0 5.92763902e-05
1240.0 6.44604676e-05
1250.0 6.96351988e-05
1260.0 7.47463085e-05
1270.0 7.97409607e-05
1280.0 8.45692054e-05
1290.0 8.91852662e-05
1300.0 9.354867249999999e-05
1310.0 9.762516229999999e-05
1320.0 0.0001013873778
1330.0 0.0001048152687
1340.0 0.0001078963105
1350.0 0.0001106254638
1360.0 0.00011300498930000001
1370.0 0.00011504402230000001
1380.0 0.00011675807690000001
1390.0 0.0001181683985
1400.0 0.00011930123489999999
1410.0 0.00012018705929999999
1420.0 0.0001208597267
1430.0 0.0001213556044
1440.0 0.00012171271730000001
1450.0 0.00012196987099999999
1460.0 0.0001221658267
1470.0 0.0001223384909
1480.0 0.00012252418279999999
1490.0 0.0001227569572
1500.0 0.0001230680347
1510.0 0.0001234853318
1520.0 0.00012403312419999999
1530.0 0.0001247318396
1540.0 0.0001255980318
1550.0 0.0001266444954
1560.0 0.0001278805581
1570.0 0.0001293125099
1580.0 0.0001309441618
1590.0 0.00013277746
1600.0 0.0001348131075
1610.0 0.00013705117089999998
1620.0 0.000139491554
1630.0 0.00014213437149999998
1640.0 0.0001449801266
1650.0 0.0001480297665
1660.0 0.0001512845899
1670.0 0.00015474605090000002
1680.0 0.00015841551479999999
1690.0 0.0001622939695
1700.0 0.00016638178869999998
1710.0 0.000170678484
1720.0 0.00017518247550000002
1730.0 0.0001798909771
1740.0 0.000184799793
1750.0 0.0001899032511
1760.0 0.00019519408459999998
1770.0 0.00020066337279999998
1780.0 0.00020630053000000002
1790.0 0.0002120933129
1800.0 0.0002180278872
1810.0 0.00022408893860000002
1820.0 0.0002302598245
1830.0 0.0002365227368
1840.0 0.00024285886839999998
1850.0 0.0002492485649
1860.0 0.0002556714504
1870.0 0.0002621065089
1880.0 0.0002685321139
1890.0 0.0002749261024
1900.0 0.0002812657453
1910.0 0.0002875278436
1920.0 0.0002936887913
1930.0 0.00029972473079999996
1940.0 0.0003056117675
1950.0 0.0003113262658
1960.0 0.0003168452117
1970.0 0.0003221465717
1980.0 0.00032720974790000003
1990.0 0.000332015985
2000.0 0.000336548781
2010.0 0.0003407941536
2020.0 0.0003447409991
2030.0 0.00034838125519999995
2040.0 0.00035170995650000004
2050.0 0.00035472515680000003
2060.0 0.00035742806230000003
2070.0 0.0003598226394
2080.0 0.0003619154852
2090.0 0.0003637156277
2100.0 0.0003652342002
2110.0 0.00036648423409999995
2120.0 0.00036748030740000004
2130.0 0.00036823837819999997
2140.0 0.0003687755997
2150.0 0.00036911005380000007
2160.0 0.00036926057350000004
2170.0 0.00036924667629999994
2180.0 0.00036908845319999994
2190.0 0.0003688063948
2200.0 0.00036842131360000004
2210.0 0.0003679543736
2220.0 0.000367426983
2230.0 0.00036686079420000003
2240.0 0.0003662776409
2250.0 0.00036569947150000005
2260.0 0.0003651484379
2270.0 0.00036464670680000003
2280.0 0.00036421643009999994
2290.0 0.0003638797227
2300.0 0.00036365855889999995
2310.0 0.00036357477240000005
2320.0 0.00036365029310000003
2330.0 0.0003639074024
2340.0 0.0003643696656
2350.0 0.0003650631418
2360.0 0.0003660185558
2370.0 0.00036727439130000006
2380.0 0.0003688808351
2390.0 0.000370904872
2400.0 0.000373435635
2410.0 0.00037658958899999996
2420.0 0.00038051399399999995
2430.0 0.00038538752299999997
2440.0 0.00039141545200000003
2450.0 0.000398818782
2460.0 0.000407815702
2470.0 0.00041859520799999994
2480.0 0.000431285986
2490.0 0.000445922076
2500.0 0.000462412125
2510.0 0.000480517261
2520.0 0.000499844026
2530.0 0.000519856031
2540.0 0.000539906553
2550.0 0.0005592883
2560.0 0.0005772952379999999
2570.0 0.0005932860829999999
2580.0 0.000606739986
2590.0 0.000617296197
2600.0 0.000624772269
2610.0 0.0006291610240000001
2620.0 0.000630608871
2630.0 0.000629382321
2640.0 0.000625828878
2650.0 0.0006202678519999999
2660.0 0.0006095154669999999
2670.0 0.000566558726
2680.0 0.000538465884
2690.0 0.000738695565
2700.0 0.0011767706440000002
2710.0 0.0016931939999999999
2720.0 0.0020507212259999997
2730.0 0.002171659167
2740.0 0.002209394061
2750.0 0.0022578450430000003
2760.0 0.002276495892
2770.0 0.002276028804
2780.0 0.002335094457
2790.0 0.002506226302
2800.0 0.002584966631
2810.0 0.00257558887
2820.0 0.0025337141200000002
2830.0 0.002418746425
2840.0 0.0023156163989999996
2850.0 0.0023129888069999996
2860.0 0.002326925782
2870.0 0.0023346893810000002
2880.0 0.002364772416
2890.0 0.0025104676859999996
2900.0 0.002768141939
2910.0 0.003035208457
2920.0 0.0032820391199999996
2930.0 0.0034495572490000005
2940.0 0.00342052383
2950.0 0.0031710769340000003
2960.0 0.002979446016
2970.0 0.002900947926
2980.0 0.002842448595
2990.0 0.0027161587889999997
3000.0 0.002511811785
3010.0 0.002329639177
3020.0 0.002220236023
3030.0 0.0022062079169999998
3040.0 0.0021639160660000003
3050.0 0.00202601566
3060.0 0.001952786851
3070.0 0.0019441070209999997
3080.0 0.001961065194
3090.0 0.001962550411
3100.0 0.001954992828
3110.0 0.002026835025
3120.0 0.00216731866
3130.0 0.0022788976360000003
3140.0 0.002319784338
3150.0 0.0023213257209999997
3160.0 0.002383621067
3170.0 0.002543568811
3180.0 0.002739521736
3190.0 0.002891786023
3200.0 0.0029802650109999997
3210.0 0.00298138267
3220.0 0.002896783465
3230.0 0.002738876345
3240.0 0.002562403624
3250.0 0.0023976602359999997
3260.0 0.002278442092
3270.0 0.0022428432819999997
3280.0 0.00224644908
3290.0 0.002231569752
3300.0 0.0022240381060000002
3310.0 0.0022554477390000004
3320.0 0.002315757591
3330.0 0.0023700347409999997
3340.0 0.0024041518859999997
3350.0 0.00243669013
3360.0 0.0025015091719999996
3370.0 0.002600752348
3380.0 0.002710256882
3390.0 0.002809789694
3400.0 0.002892570608
3410.0 0.0029863120319999995
3420.0 0.003102542352
3430.0 0.00321073013
3440.0 0.003292059312
3450.0 0.003341086088
3460.0 0.0033602112029999997
3470.0 0.0033770547869999995
3480.0 0.003411125941
3490.0 0.0034747600210000003
3500.0 0.003591189919
3510.0 0.00377556843
3520.0 0.00400157405
3530.0 0.00423737653
3540.0 0.00446255594
3550.0 0.00466022955
3560.0 0.00482783363
3570.0 0.00497774209
3580.0 0.005102055059999999
3590.0 0.005174680510000001
3600.0 0.00518728715
3610.0 0.005147432969999999
3620.0 0.005095153450000001
3630.0 0.00507794697
3640.0 0.00513751993
3650.0 0.0053033247
3660.0 0.005592676170000001
3670.0 0.00599637651
3680.0 0.00646066139
3690.0 0.006932349600000001
3700.0 0.0073878011
3710.0 0.00782489024
3720.0 0.008173383250000001
3730.0 0.00828319518
3740.0 0.00812528473
3750.0 0.007775506340000001
3760.0 0.0072698636
3770.0 0.006619069490000001
3780.0 0.00587823773
3790.0 0.0051500189
3800.0 0.00453236569
3810.0 0.00410326781
3820.0 0.00394205474
3830.0 0.00411106704
3840.0 0.00462991656
3850.0 0.00545732906
3860.0 0.006498678150000001
3870.0 0.00764787854
3880.0 0.00882498803
3890.0 0.00998867318
3900.0 0.01112074775
3910.0 0.01219430386
3920.0 0.01315925498
3930.0 0.01396370824
3940.0 0.014582048539999998
3950.0 0.01501307782
3960.0 0.01526556064
3970.0 0.01534802624
3980.0 0.015260050970000001
3990.0 0.014984110519999998
4000.0 0.0144960339
4010.0 0.013801525399999999
4020.0 0.01296597179
4030.0 0.012096714879999998
4040.0 0.01129502626
4050.0 0.01062885643
4060.0 0.01012696179
4070.0 0.00976906708
4080.0 0.00949078638
4090.0 0.00922619642
4100.0 0.008956851589999999
4110.0 0.0087152205
4120.0 0.00854263437
4130.0 0.00845208797
4140.0 0.00842558524
4150.0 0.00843646065
4160.0 0.00847414256
4170.0 0.00855030965
4180.0 0.00867972011
4190.0 0.00885353464
4200.0 0.00903491234
4210.0 0.00918396869
4220.0 0.009284911350000001
4230.0 0.009350062800000001
4240.0 0.00940421267
4250.0 0.00946673564
4260.0 0.00954526851
4270.0 0.009644003379999998
4280.0 0.009772149919999999
4290.0 0.00993627637
4300.0 0.01012427781
4310.0 0.01030117444
4320.0 0.01041731152
4330.0 0.010417015149999998
4340.0 0.010249988639999999
4350.0 0.00989201771
4360.0 0.00936298135
4370.0 0.00872300863
4380.0 0.00804735792
4390.0 0.00740142783
4400.0 0.00683258058
4410.0 0.006373781319999999
4420.0 0.00604717788
4430.0 0.005865796109999999
4440.0 0.0058348223000000005
4450.0 0.0059519458
4460.0 0.00620681919
4470.0 0.0065819910499999995
4480.0 0.00705840416
4490.0 0.00762416339
4500.0 0.00827953625
4510.0 0.009033063079999999
4520.0 0.00989188044
4530.0 0.010853284
4540.0 0.011901612030000001
4550.0 0.01300898281
4560.0 0.01413588071
4570.0 0.015233026169999999
4580.0 0.016249960810000002
4590.0 0.017146592170000002
4600.0 0.01789580332
4610.0 0.018475830859999997
4620.0 0.01886237393
4630.0 0.01902795189
4640.0 0.018943744699999997
4650.0 0.01858140888
4660.0 0.017923735729999998
4670.0 0.01698565216
4680.0 0.0158279636
4690.0 0.01454790198
4700.0 0.013253363
4710.0 0.01203846911
4720.0 0.01096780529
4730.0 0.010068607240000001
4740.0 0.00933417056
4750.0 0.00874219461
4760.0 0.00827951183
4770.0 0.00795414271
4780.0 0.0077854068
4790.0 0.00778278461
4800.0 0.00792920508
4810.0 0.008177888000000001
4820.0 0.008460805169999999
4830.0 0.00870624948
4840.0 0.008864800769999999
4850.0 0.00893505341
4860.0 0.00897041912
4870.0 0.00905638159
4880.0 0.00927157914
4890.0 0.00965830092
4900.0 0.01021490006
4910.0 0.01090302051
4920.0 0.01165734025
4930.0 0.012393087469999998
4940.0 0.013013948210000001
4950.0 0.01342428487
4960.0 0.01354652177
4970.0 0.01334112404
4980.0 0.012823906220000002
4990.0 0.012069139889999999
5000.0 0.011194405130000001
5010.0 0.0103281023
5020.0 0.00957300815
5030.0 0.00898396186
5040.0 0.008567749599999999
5050.0 0.00829944484
5060.0 0.008142883410000001
5070.0 0.00806500729
5080.0 0.00804078709
5090.0 0.008051969970000001
5100.0 0.0080845703
5110.0 0.00812748475
5120.0 0.00817254261
5130.0 0.008216269949999999
5140.0 0.00826265537
5150.0 0.00832400507
5160.0 0.008417470770000001
5170.0 0.00855898948
5180.0 0.00875904848
5190.0 0.00902181656
5200.0 0.0093458263
5210.0 0.00972340834
5220.0 0.010140110479999999
5230.0 0.0105776599
5240.0 0.01102033234
5250.0 0.01145999335
5260.0 0.01189525987
5270.0 0.01232542779
5280.0 0.012744683300000002
5290.0 0.01314139286
5300.0 0.01350156677
5310.0 0.013811529460000001
5320.0 0.014059674030000002
5330.0 0.014244419099999999
5340.0 0.01438314061
5350.0 0.01450101632
5360.0 0.014606290199999998
5370.0 0.01468557787
5380.0 0.01472156814
5390.0 0.01470846015
5400.0 0.01465796218
5410.0 0.01459880288
5420.0 0.014569508129999999
5430.0 0.014606910320000001
5440.0 0.014735261469999998
5450.0 0.01496003018
5460.0 0.015267528300000001
5470.0 0.01562934316
5480.0 0.01600921106
5490.0 0.0163692107
5500.0 0.01667313832
5510.0 0.0168878693
5520.0 0.01698542165
5530.0 0.01694660458
5540.0 0.01676381718
5550.0 0.0164403617
5560.0 0.01598681977
5570.0 0.015417443050000002
5580.0 0.01474850525
5590.0 0.01399906063
5600.0 0.013190624319999998
5610.0 0.01234506369
5620.0 0.011484133629999999
5630.0 0.010630146620000001
5640.0 0.00980757631
5650.0 0.00904457082
5660.0 0.00837311702
5670.0 0.00782710025
5680.0 0.00743848518
5690.0 0.007232791820000001
5700.0 0.00722541624
5710.0 0.00741986641
5720.0 0.00780792537
5730.0 0.00837099692
5740.0 0.00908186534
5750.0 0.00990649026
5760.0 0.01080577785
5770.0 0.011737566239999999
5780.0 0.012659049759999999
5790.0 0.013529307150000001
5800.0 0.014311349509999998
5810.0 0.014973781229999998
5820.0 0.01549288827
5830.0 0.01585528033
5840.0 0.01605970533
5850.0 0.01611600638
5860.0 0.01604198936
5870.0 0.01586023944
5880.0 0.015594330799999999
5890.0 0.01526505189
5900.0 0.014886977010000002
5910.0 0.01446660632
5920.0 0.014003434399999999
5930.0 0.01349399731
5940.0 0.0129372276
5950.0 0.01233876111
5960.0 0.011712589019999999
5970.0 0.01107979615
5980.0 0.010465203210000001
5990.0 0.009893188760000001
6000.0 0.00938396109
6010.0 0.008951152479999998
6020.0 0.00860101001
6030.0 0.00833289691
6040.0 0.00814046805
6050.0 0.00801300934
6060.0 0.00793706758
6070.0 0.00789892872
6080.0 0.00788779431
6090.0 0.007898306749999999
6100.0 0.007930715789999999
6110.0 0.00798830111
6120.0 0.00807371376
6130.0 0.00818650345
6140.0 0.00832281145
6150.0 0.008476440629999998
6160.0 0.008639724590000002
6170.0 0.00880323203
6180.0 0.00895457276
6190.0 0.00907751895
6200.0 0.00915279693
6210.0 0.00916111453
6220.0 0.00908767952
6230.0 0.008926530089999999
6240.0 0.00868303087
6250.0 0.008373840740000001
6260.0 0.008024643619999999
6270.0 0.00766639889
6280.0 0.007331047909999999
6290.0 0.00704777184
6300.0 0.00684079939
6310.0 0.00672847331
6320.0 0.00672138337
6330.0 0.0068186227000000005
6340.0 0.00700648909
6350.0 0.00726453042
6360.0 0.00757547694
6370.0 0.007929782279999999
6380.0 0.008322527659999999
6390.0 0.00874851014
6400.0 0.00919964448
6410.0 0.00966419317
6420.0 0.010127119779999999
6430.0 0.01057202147
6440.0 0.010983802610000001
6450.0 0.01135002306
6460.0 0.011660386089999999
6470.0 0.01190578045
6480.0 0.01207809981
6490.0 0.012170879159999998
6500.0 0.01218016949
6510.0 0.012105104999999998
6520.0 0.011947900879999999
6530.0 0.011713370090000001
6540.0 0.011408254770000001
6550.0 0.01104059169
6560.0 0.010619333370000001
6570.0 0.010153843769999999
6580.0 0.00965356344
6590.0 0.009128176390000001
6600.0 0.00858790387
6610.0 0.008043531750000001
6620.0 0.007505931739999999
6630.0 0.006985177089999999
6640.0 0.00648960908
6650.0 0.00602524835
6660.0 0.00559575309
6670.0 0.00520289079
6680.0 0.00484724087
6690.0 0.00452880222
6700.0 0.004247267
6710.0 0.00400195885
6720.0 0.0037916201399999998
6730.0 0.0036142943099999993
6740.0 0.0034674517809999998
6750.0 0.003348314778
6760.0 0.003254196361
6770.0 0.003182688718
6780.0 0.0031316883249999997
6790.0 0.003099364274
6800.0 0.003084150873
6810.0 0.0030847279989999997
6820.0 0.003099920236
6830.0 0.003128531559
6840.0 0.003169233224
6850.0 0.0032206097220000003
6860.0 0.0032812845049999995
6870.0 0.003349859602
6880.0 0.0034246156969999996
6890.0 0.0035030771200000002
6900.0 0.0035817808559999997
6910.0 0.003656558966
6920.0 0.00372334108
6930.0 0.00377912931
6940.0 0.0038226901500000004
6950.0 0.00385467517
6960.0 0.00387722149
6970.0 0.00389332093
6980.0 0.00390625391
6990.0 0.00391921464
7000.0 0.0039350721
7010.0 0.00395618541
7020.0 0.00398426952
7030.0 0.004020383
7040.0 0.00406506753
7050.0 0.0041185595399999995
7060.0 0.00418095745
7070.0 0.00425226052
7080.0 0.004332312610000001
7090.0 0.0044207415
7100.0 0.00451697665
7110.0 0.00462036279
7120.0 0.00473031088
7130.0 0.004846383209999999
7140.0 0.00496813245
7150.0 0.00509491998
7160.0 0.00522583671
7170.0 0.0053595321400000005
7180.0 0.00549409115
7190.0 0.0056269677700000005
7200.0 0.00575498666
7210.0 0.00587444449
7220.0 0.00598133009
7230.0 0.0060716789099999995
7240.0 0.006142059940000001
7250.0 0.006190146620000001
7260.0 0.006215291079999999
7270.0 0.006218934100000001
7280.0 0.006204652839999999
7290.0 0.006177769379999999
7300.0 0.00614458482
7310.0 0.006111078730000001
7320.0 0.00608263868
7330.0 0.0060642482
7340.0 0.006058629750000001
7350.0 0.006066731639999999
7360.0 0.00608776355
7370.0 0.00611939929
7380.0 0.0061581072099999995
7390.0 0.006199537959999999
7400.0 0.0062388475
7410.0 0.00627094833
7420.0 0.00629079735
7430.0 0.0062934698599999995
7440.0 0.0062745158700000005
7450.0 0.00623053656
7460.0 0.006159855830000001
7470.0 0.00606325956
7480.0 0.005944792220000001
7490.0 0.0058123729199999995
7500.0 0.00567756379
7510.0 0.00555367373
7520.0 0.00545223416
7530.0 0.0053794618200000005
7540.0 0.00533513841
7550.0 0.00531474327
7560.0 0.00531280262
7570.0 0.00532464262
7580.0 0.00534618698
7590.0 0.005373722010000001
7600.0 0.00540487157
7610.0 0.0054398817099999995
7620.0 0.00548170503
7630.0 0.00553448331
7640.0 0.00560122613
7650.0 0.00568187577
7660.0 0.00577258201
7670.0 0.0058663093
7680.0 0.00595431121
7690.0 0.006027844270000001
7700.0 0.00607963132
7710.0 0.00610479058
7720.0 0.006101077999999999
7730.0 0.0060686711800000005
7740.0 0.00600987374
7750.0 0.0059287438399999995
7760.0 0.005830664239999999
7770.0 0.00572163856
7780.0 0.0056072464
7790.0 0.005491489309999999
7800.0 0.00537599714
7810.0 0.005260002139999999
7820.0 0.0051411285400000005
7830.0 0.00501663316
7840.0 0.0048845209599999995
7850.0 0.00474408635
7860.0 0.00459580071
7870.0 0.00444081807
7880.0 0.00428050854
7890.0 0.00411628145
7900.0 0.00394971855
7910.0 0.00378282783
7920.0 0.0036170630940000003
7930.0 0.0034567284039999997
7940.0 0.003304891023
7950.0 0.0031641109069999998
7960.0 0.00303602094
7970.0 0.0029211689439999997
7980.0 0.0028191945020000003
7990.0 0.002729235403
8000.0 0.0026503448909999997
8010.0 0.002581705562
8020.0 0.0025225454110000003
8030.0 0.002471828179
8040.0 0.0024279094749999996
8050.0 0.0023883604339999995
8060.0 0.002350067025
8070.0 0.002309569415
8080.0 0.002263499568
8090.0 0.0022089559069999997
8100.0 0.0021437364509999998
8110.0 0.00206646924
8120.0 0.001976753675
8130.0 0.0018753929890000002
8140.0 0.001764670674
8150.0 0.001648486271
8160.0 0.0015321233429999997
8170.0 0.0014215370770000002
8180.0 0.001322283615
8190.0 0.001238430256
8200.0 0.0011718504949999999
8210.0 0.001122164786
8220.0 0.001087321331
8230.0 0.0010645581170000001
8240.0 0.001051368875
8250.0 0.001046143661
8260.0 0.001048317707
8270.0 0.0010580673549999999
8280.0 0.0010757616060000001
8290.0 0.0011014604
8300.0 0.001134701422
8310.0 0.001174653097
8320.0 0.001220522589
8330.0 0.001272002021
8340.0 0.001329556557
8350.0 0.0013944599960000002
8360.0 0.0014685960819999999
8370.0 0.001554097236
8380.0 0.001652905847
8390.0 0.001766336303
8400.0 0.001894718607
8410.0 0.0020371903629999998
8420.0 0.002191664549
8430.0 0.0023549461780000003
8440.0 0.002522939498
8450.0 0.002690904143
8460.0 0.0028537593099999996
8470.0 0.003006473591
8480.0 0.00314456377
8490.0 0.0032646685080000007
8500.0 0.0033650816979999996
8510.0 0.003446081913
8520.0 0.0035099123889999998
8530.0 0.0035603447950000003
8540.0 0.0036019027509999997
8550.0 0.0036389526640000004
8560.0 0.003674928615
8570.0 0.00371191992
8580.0 0.00375070813
8590.0 0.0037911839099999995
8600.0 0.003832941
8610.0 0.00387579033
8620.0 0.00391998942
8630.0 0.00396609808
8640.0 0.00401455402
8650.0 0.00406519333
8660.0 0.00411699111
8670.0 0.00416820392
8680.0 0.00421690517
8690.0 0.0042616799799999995
8700.0 0.004302128749999999
8710.0 0.0043389012
8720.0 0.0043731854
8730.0 0.00440588193
8740.0 0.004436857220000001
8750.0 0.00446464348
8760.0 0.004486727669999999
8770.0 0.004500264489999999
8780.0 0.0045028704
8790.0 0.00449316604
8800.0 0.00447090943
8810.0 0.00443679136
8820.0 0.00439207205
8830.0 0.00433825703
8840.0 0.00427689697
8850.0 0.00420951035
8860.0 0.00413755312
8870.0 0.004062378
8880.0 0.00398515826
8890.0 0.0039068115
8900.0 0.00382795858
8910.0 0.00374897061
8920.0 0.0036700892369999996
8930.0 0.0035915822669999996
8940.0 0.0035138844499999996
8950.0 0.0034376776219999998
8960.0 0.0033638948120000003
8970.0 0.003293655344
8980.0 0.0032281495820000003
8990.0 0.0031685032510000003
9000.0 0.0031156637359999995
9010.0 0.0030703492440000003
9020.0 0.003033083214
9030.0 0.003004297103
9040.0 0.002984442681
9050.0 0.002974042647
9060.0 0.002973634759
9070.0 0.002983615028
9080.0 0.00300403407
9090.0 0.0030344211340000006
9100.0 0.0030737036269999998
9110.0 0.0031202644640000005
9120.0 0.003172144865
9130.0 0.0032273670690000002
9140.0 0.0032843129919999997
9150.0 0.0033420613339999994
9160.0 0.003400563773
9170.0 0.003460561271
9180.0 0.00352320512
9190.0 0.0035894651639999994
9200.0 0.0036595066819999997
9210.0 0.00373227917
9220.0 0.00380551623
9230.0 0.0038762102799999995
9240.0 0.00394142907
9250.0 0.00399916054
9260.0 0.00404879197
9270.0 0.00409096901
9280.0 0.00412689416
9290.0 0.00415748687
9300.0 0.00418292659
9310.0 0.00420281557
