#lamb flux
1000.0 1.184697953e-05
1010.0 1.4366786215e-05
1020.0 1.7483423875e-05
1030.0 2.13207132e-05
1040.0 2.6033467405e-05
1050.0 3.180044718000001e-05
1060.0 3.88238468e-05
1070.0 4.732701445e-05
1080.0 5.75501056e-05
1090.0 6.97436634e-05
1100.0 8.416029125000001e-05
1110.0 0.00010104505505
1120.0 0.00012062530255
1130.0 0.00014310082105000002
1140.0 0.00016863500010000002
1150.0 0.00019734758210000004
1160.0 0.00022930911805
1170.0 0.0002645372055
1180.0 0.0003029942943
1190.0 0.0003445868960000001
1200.0 0.00038916625050000006
1210.0 0.00043653002450000003
1220.0 0.00048642579550000004
1230.0 0.0005385557485000001
1240.0 0.0005925826390000001
1250.0 0.0006481371295000002
1260.0 0.0007048261980000002
1270.0 0.0007622421160000001
1280.0 0.0008199717280000001
1290.0 0.000877605798
1300.0 0.000934747887
1310.0 0.000991022594
1320.0 0.0010460828255
1330.0 0.0010996162945
1340.0 0.0011513504115
1350.0 0.001201056539
1360.0 0.0012485528725
1370.0 0.0012937059145
1380.0 0.0013364313454999998
1390.0 0.0013766933540000001
1400.0 0.0014145029615
1410.0 0.0014499157110000002
1420.0 0.0014830275800000001
1430.0 0.001513970726
1440.0 0.0015429079255
1450.0 0.0015700262424999999
1460.0 0.0015955300605000001
1470.0 0.0016196337794999998
1480.0 0.0016425536755
1490.0 0.001664499693
1500.0 0.0016856667015000002
1510.0 0.0017062257855000001
1520.0 0.0017263150990000002
1530.0 0.0017460308540000003
1540.0 0.0017654190125
1550.0 0.0017844682850000002
1560.0 0.001803105742
1570.0 0.0018211967805
1580.0 0.0018385517570000001
1590.0 0.0018549401245
1600.0 0.0018701146530000002
1610.0 0.001883844561
1620.0 0.0018959561510000001
1630.0 0.0019063767615000002
1640.0 0.0019151751680000003
1650.0 0.001922590996
1660.0 0.0019290452065000002
1670.0 0.001935124552
1680.0 0.0019415384955
1690.0 0.0019490501670000001
1700.0 0.0019583908715
1710.0 0.0019701711800000003
1720.0 0.0019848059230000003
1730.0 0.002002469401
1740.0 0.002023092805
1750.0 0.0020464081685
1760.0 0.002072033558
1770.0 0.002099583556
1780.0 0.0021287840655
1790.0 0.0021595657415000003
1800.0 0.0021921160164999997
1810.0 0.002226876856
1820.0 0.002264488043
1830.0 0.002305687482
1840.0 0.0023511909340000006
1850.0 0.0024015755035000004
1860.0 0.0024571917345
1870.0 0.0025181173135
1880.0 0.002584156366
1890.0 0.0026548743635000003
1900.0 0.0027296497135
1910.0 0.0028077221335
1920.0 0.0028882198865
1930.0 0.0029701604845000004
1940.0 0.003052429885
1950.0 0.0031337569305
1960.0 0.0032127043705000003
1970.0 0.0032876954605
1980.0 0.00335708525
1990.0 0.00341927197
2000.0 0.0034728287550000003
2010.0 0.0035166293350000002
2020.0 0.00354994274
2030.0 0.003572471155
2040.0 0.0035843335050000005
2050.0 0.00358600013
2060.0 0.0035782063550000003
2070.0 0.00356187343
2080.0 0.0035380592850000002
2090.0 0.0035079525
2100.0 0.0034729101600000003
2110.0 0.0034345154750000002
2120.0 0.0033946300400000003
2130.0 0.003355416615
2140.0 0.003319305156
2150.0 0.0032889010920000004
2160.0 0.0032668395330000006
2170.0 0.0032556085910000004
2180.0 0.0032573705570000003
2190.0 0.0032738085380000005
2200.0 0.0033060226405
2210.0 0.00335448498
2220.0 0.003419053215
2230.0 0.0034990291050000003
2240.0 0.003593239815
2250.0 0.0037001242450000003
2260.0 0.0038178013700000003
2270.0 0.00394411781
2280.0 0.00407667262
2290.0 0.004212837055000001
2300.0 0.0043497874
2310.0 0.004484570965
2320.0 0.00461422568
2330.0 0.004735952285
2340.0 0.004847337105
2350.0 0.00494659727
2360.0 0.00503281823
2370.0 0.0051061437
2380.0 0.00516787549
2390.0 0.005220458765
2400.0 0.0052673302899999995
2410.0 0.0053126333450000006
2420.0 0.005360819075
2430.0 0.005416177825
2440.0 0.0054823493699999995
2450.0 0.00556187837
2460.0 0.0056558770250000005
2470.0 0.005763844175
2480.0 0.0058836783650000005
2490.0 0.006011891910000001
2500.0 0.0061440025100000005
2510.0 0.006275059200000001
2520.0 0.006400223910000001
2530.0 0.00651532924
2540.0 0.006617327695
2550.0 0.006704568395000001
2560.0 0.006776869435000001
2570.0 0.00683538623
2580.0 0.006882320735000001
2590.0 0.0069205331800000006
2600.0 0.006953131695000001
2610.0 0.0069831095050000005
2620.0 0.007013067215000001
2630.0 0.007045046650000001
2640.0 0.00708047558
2650.0 0.0071219499200000005
2660.0 0.007262134020000001
2670.0 0.008366754310000002
2680.0 0.011160135395
2690.0 0.013661803505
2700.0 0.01518947352
2710.0 0.016319887470000002
2720.0 0.017309528055000002
2730.0 0.018271063815
2740.0 0.01936829769
2750.0 0.02045640985
2760.0 0.021265101190000003
2770.0 0.021768970000000002
2780.0 0.021688813545
2790.0 0.021278823795000002
2800.0 0.021385638545000002
2810.0 0.02240292266
2820.0 0.023499446334999997
2830.0 0.024526229040000003
2840.0 0.025962077230000002
2850.0 0.027987825915000004
2860.0 0.030400027585000003
2870.0 0.03259699075
2880.0 0.03487434085
2890.0 0.0373639637
2900.0 0.03948733105
2910.0 0.04072683105
2920.0 0.04121043705
2930.0 0.04186294
2940.0 0.0427186908
2950.0 0.04287659975000001
2960.0 0.04224436765000001
2970.0 0.0412388618
2980.0 0.0400098339
2990.0 0.0384556751
3000.0 0.03661167765
3010.0 0.03470637185
3020.0 0.03269605427
3030.0 0.030913638530000002
3040.0 0.029872060550000003
3050.0 0.030121700205
3060.0 0.031323308355
3070.0 0.03251180293
3080.0 0.033426867825000005
3090.0 0.03462154315
3100.0 0.036377449000000006
3110.0 0.0384516149
3120.0 0.040718757550000005
3130.0 0.04324053370000001
3140.0 0.04604843670000001
3150.0 0.048810307350000005
3160.0 0.05095254525000001
3170.0 0.05226719245
3180.0 0.05256516825
3190.0 0.05149964715
3200.0 0.04913612835
3210.0 0.045902564300000004
3220.0 0.04234043895
3230.0 0.039140998
3240.0 0.036934641100000005
3250.0 0.03564698485
3260.0 0.03488954315000001
3270.0 0.0347036349
3280.0 0.0354092387
3290.0 0.036831581700000005
3300.0 0.0383146267
3310.0 0.0395053775
3320.0 0.040374535
3330.0 0.0408412302
3340.0 0.0410822761
3350.0 0.041488386550000006
3360.0 0.0417806908
3370.0 0.04199438395
3380.0 0.0431822169
3390.0 0.044873789350000005
3400.0 0.0462124594
3410.0 0.047327356150000006
3420.0 0.0485032832
3430.0 0.049714087100000005
3440.0 0.05088810465000001
3450.0 0.052141533950000006
3460.0 0.05372405385
3470.0 0.055916816450000004
3480.0 0.058961370150000005
3490.0 0.06301576460000001
3500.0 0.06801707005
3510.0 0.07343558115000001
3520.0 0.07909564065000001
3530.0 0.0854203636
3540.0 0.09187123080000001
3550.0 0.09725289860000001
3560.0 0.10075671385000001
3570.0 0.10239436135
3580.0 0.1025468232
3590.0 0.10163765665
3600.0 0.10027115815000001
3610.0 0.09938469455
3620.0 0.10002672540000002
3630.0 0.10231924430000001
3640.0 0.10576865890000002
3650.0 0.1093326904
3660.0 0.1118937185
3670.0 0.1128335543
3680.0 0.11133212785
3690.0 0.10702350525
3700.0 0.10070047070000002
3710.0 0.0937216837
3720.0 0.0872559559
3730.0 0.08191522845
3740.0 0.0777599186
3750.0 0.07457756265000001
3760.0 0.0721968818
3770.0 0.07069669485
3780.0 0.07042813205000001
3790.0 0.07182737680000001
3800.0 0.07519798600000001
3810.0 0.08067769155
3820.0 0.0883664943
3830.0 0.09838431755
3840.0 0.11067993645
3850.0 0.12457786705
3860.0 0.1387282503
3870.0 0.15260606415000003
3880.0 0.1665697251
3890.0 0.17956161135
3900.0 0.1900368503
3910.0 0.19764639205000004
3920.0 0.20267543215000003
3930.0 0.20522121440000002
3940.0 0.20488600335
3950.0 0.20098124335
3960.0 0.19320529705
3970.0 0.18231580715
3980.0 0.1700493299
3990.0 0.1583232177
4000.0 0.148543288
4010.0 0.14146631585
4020.0 0.13729060785000002
4030.0 0.13566245425
4040.0 0.13573629830000003
4050.0 0.13647454450000002
4060.0 0.13706015130000002
4070.0 0.13711403605000003
4080.0 0.1366190568
4090.0 0.13577795555000002
4100.0 0.13490806105
4110.0 0.1343647949
4120.0 0.13447633985000002
4130.0 0.135429311
4140.0 0.13713026344999998
4150.0 0.1391908786
4160.0 0.1410897189
4170.0 0.1423957499
4180.0 0.14289316794999998
4190.0 0.14253997745000002
4200.0 0.14136844225
4210.0 0.13945743140000003
4220.0 0.13695211045000003
4230.0 0.13406320110000003
4240.0 0.13102495545
4250.0 0.12798858915000003
4260.0 0.12493569395000001
4270.0 0.1217321392
4280.0 0.11826404835000001
4290.0 0.1145102159
4300.0 0.1105129088
4310.0 0.10632367685
4320.0 0.10198985555000001
4330.0 0.09758362400000001
4340.0 0.0932289791
4350.0 0.08908688165
4360.0 0.0853166878
4370.0 0.0820616603
4380.0 0.07947322585000001
4390.0 0.07773610010000001
4400.0 0.07704494485
4410.0 0.07754234615000001
4420.0 0.0792661858
4430.0 0.0821379666
4440.0 0.0859807382
4450.0 0.0905807304
4460.0 0.09576985025000001
4470.0 0.1014582608
4480.0 0.10760677710000002
4490.0 0.11420554010000002
4500.0 0.12127202340000001
4510.0 0.1288055637
4520.0 0.13669733290000002
4530.0 0.14467889215000002
4540.0 0.15235294150000003
4550.0 0.15927555235000002
4560.0 0.16505049675
4570.0 0.1694024516
4580.0 0.17218835850000003
4590.0 0.17333038019999997
4600.0 0.17273132315
4610.0 0.1702441056
4620.0 0.16578227745000002
4630.0 0.1594824517
4640.0 0.1517642862
4650.0 0.14324464995
4660.0 0.13457503085000003
4670.0 0.12627806240000003
4680.0 0.11863400895000001
4690.0 0.11166712115
4700.0 0.1052425414
4710.0 0.0992221358
4720.0 0.0936008157
4730.0 0.0885541613
4740.0 0.08437403130000001
4750.0 0.08133074725
4760.0 0.0795259917
4770.0 0.078799102
4780.0 0.07874216875000001
4790.0 0.0788482532
4800.0 0.0787125983
4810.0 0.07817286975
4820.0 0.07732586244999999
4830.0 0.0764460084
4840.0 0.0758734465
4850.0 0.07591683235
4860.0 0.0767858324
4870.0 0.0785556575
4880.0 0.08114807175000001
4890.0 0.0843041905
4900.0 0.08756678565
4910.0 0.09034581835000001
4920.0 0.09209267920000001
4930.0 0.0924804551
4940.0 0.0914845269
4950.0 0.08935900885
4960.0 0.08653477795000002
4970.0 0.0834812563
4980.0 0.08060149915
4990.0 0.0781894288
5000.0 0.07643004230000001
5010.0 0.07541109625
5020.0 0.0751362522
5030.0 0.0755418233
5040.0 0.07651709875000001
5050.0 0.07792588095000001
5060.0 0.07962892045
5070.0 0.08150855855
5080.0 0.08349301815
5090.0 0.08557111695000001
5100.0 0.08778765115000002
5110.0 0.09022129884999999
5120.0 0.092956872
5130.0 0.09605903565
5140.0 0.09954394685000001
5150.0 0.1033544412
5160.0 0.10736502100000002
5170.0 0.1114206516
5180.0 0.11536222475
5190.0 0.1190189742
5200.0 0.12220648915000001
5210.0 0.12474296175
5220.0 0.12645845320000001
5230.0 0.1272021733
5240.0 0.12687695864999998
5250.0 0.12550258095
5260.0 0.12326599365000002
5270.0 0.1205082033
5280.0 0.11763877755000002
5290.0 0.11501933215000001
5300.0 0.11287111785000001
5310.0 0.11124106480000001
5320.0 0.11003388895000002
5330.0 0.1090910549
5340.0 0.10827372525000001
5350.0 0.10750608280000001
5360.0 0.10676700915000002
5370.0 0.10605307725
5380.0 0.10534339315
5390.0 0.1045834959
5400.0 0.10369432550000002
5410.0 0.10258931125000001
5420.0 0.1011928269
5430.0 0.09946307785000001
5440.0 0.09742866975
5450.0 0.09522185055000001
5460.0 0.09306386095000002
5470.0 0.09119722755000001
5480.0 0.0898119121
5490.0 0.08899977160000001
5500.0 0.08874739265000002
5510.0 0.08895972570000002
5520.0 0.0894739909
5530.0 0.09004474380000001
5540.0 0.09036313450000001
5550.0 0.09017018454999999
5560.0 0.0893845258
5570.0 0.08810862805
5580.0 0.08652190055
5590.0 0.08477577335
5600.0 0.0829529479
5610.0 0.0810769747
5620.0 0.07914215540000001
5630.0 0.0771469825
5640.0 0.07511107025000001
5650.0 0.0730744009
5660.0 0.07109033325000001
5670.0 0.06922213205000001
5680.0 0.06754256935000001
5690.0 0.066130742
5700.0 0.0650629563
5710.0 0.0644014653
5720.0 0.06418760130000001
5730.0 0.06444251285000001
5740.0 0.06517316795000001
5750.0 0.06637880950000001
5760.0 0.0680533137
5770.0 0.07018028565000001
5780.0 0.072720326
5790.0 0.07559524910000001
5800.0 0.07867834455000002
5810.0 0.0817985446
5820.0 0.08476012215
5830.0 0.08737253254999999
5840.0 0.08948025205000001
5850.0 0.09098095825000001
5860.0 0.09183338585000002
5870.0 0.09205401015
5880.0 0.09170602890000001
5890.0 0.09088448495
5900.0 0.08969737895
5910.0 0.08824619915
5920.0 0.08661403560000001
5930.0 0.08486585149999999
5940.0 0.0830544663
5950.0 0.08122130945
5960.0 0.07938980080000001
5970.0 0.0775605333
5980.0 0.0757165392
5990.0 0.07383494805000002
6000.0 0.07189271520000001
6010.0 0.06985926185
6020.0 0.06768148715000001
6030.0 0.0652748974
6040.0 0.0625332574
6050.0 0.05936091460000001
6060.0 0.05572037245000001
6070.0 0.05167694255000001
6080.0 0.0474163824
6090.0 0.043219328200000004
6100.0 0.03939765155
6110.0 0.03622032395000001
6120.0 0.03386293565
6130.0 0.03239897828
6140.0 0.031824769185
6150.0 0.032093497474999996
6160.0 0.033136558499999996
6170.0 0.034866063
6180.0 0.0371670306
6190.0 0.039892908850000006
6200.0 0.04287362495
6210.0 0.04593618155
6220.0 0.04892882365
6230.0 0.05173710520000001
6240.0 0.05428615035
6250.0 0.05653369215
6260.0 0.05846306435000001
6270.0 0.06007989495
6280.0 0.061408196750000005
6290.0 0.06248089690000001
6300.0 0.06332629954999999
6310.0 0.06395669585000001
6320.0 0.06436668895
6330.0 0.06454866095
6340.0 0.0645214891
6350.0 0.06434668945000001
6360.0 0.0641072348
6370.0 0.06386583380000001
6380.0 0.0636462815
6390.0 0.063447191
6400.0 0.063260596
6410.0 0.06307701600000001
6420.0 0.06288251835
6430.0 0.06265809515000001
6440.0 0.0623841087
6450.0 0.0620463349
6460.0 0.06163938025
6470.0 0.061165338500000006
6480.0 0.060628155950000005
6490.0 0.0600265596
6500.0 0.05935065690000001
6510.0 0.058586059600000004
6520.0 0.057723427900000006
6530.0 0.05676601130000001
6540.0 0.055729528
6550.0 0.054635548650000004
6560.0 0.0535044379
6570.0 0.052351394700000005
6580.0 0.051186211100000004
6590.0 0.050013208600000005
6600.0 0.048831040500000006
6610.0 0.047635167549999996
6620.0 0.0464237908
6630.0 0.0452039017
6640.0 0.043992417750000005
6650.0 0.0428104875
6660.0 0.041674599650000005
6670.0 0.040591048850000006
6680.0 0.039557714550000005
6690.0 0.0385714645
6700.0 0.03763559845
6710.0 0.03676228360000001
6720.0 0.03596874565000001
6730.0 0.0352695705
6740.0 0.034668449850000005
6750.0 0.034152563250000004
6760.0 0.03369198180000001
6770.0 0.033246328955
6780.0 0.032778661585
6790.0 0.03227197978
6800.0 0.031738039695000005
6810.0 0.031209273014999997
6820.0 0.030717127195000003
6830.0 0.030273892045
6840.0 0.02987232185
6850.0 0.029498667205000002
6860.0 0.029144633510000004
6870.0 0.028810809360000002
6880.0 0.02850250685
6890.0 0.028223279325
6900.0 0.027970476935000002
6910.0 0.027734982655
6920.0 0.027504785395000002
6930.0 0.027269992605000005
6940.0 0.027026393000000003
6950.0 0.026775976145
6960.0 0.026524836025000005
6970.0 0.026280175475000004
6980.0 0.026048110925000003
6990.0 0.025832966890000003
7000.0 0.025637662225
7010.0 0.025464213965
7020.0 0.0253136653
7030.0 0.025185470850000002
7040.0 0.025076970045
7050.0 0.024983455130000002
7060.0 0.024898832455000002
7070.0 0.02481655076
7080.0 0.024730497634999998
7090.0 0.024635661145000005
7100.0 0.024528593470000006
7110.0 0.024407858465
7120.0 0.024274238355
7130.0 0.02413021884
7140.0 0.02397964907
7150.0 0.023826691755000004
7160.0 0.023675225190000003
7170.0 0.023529243245
7180.0 0.023393551830000005
7190.0 0.023273529705
7200.0 0.0231734173
7210.0 0.023093939890000005
7220.0 0.023030736779999998
7230.0 0.022974520430000003
7240.0 0.02291281745
7250.0 0.022832713925
7260.0 0.022724119320000003
7270.0 0.022582599910000004
7280.0 0.022409932200000003
7290.0 0.022211291270000003
7300.0 0.021990753735
7310.0 0.0217484479
7320.0 0.021480975525
7330.0 0.021183975245
7340.0 0.020854901395000004
7350.0 0.020494919105000002
7360.0 0.020109485525
7370.0 0.019707330755000002
7380.0 0.019297999950000002
7390.0 0.018888927765
7400.0 0.018483579775
7410.0 0.018081891995000002
7420.0 0.017682299305
7430.0 0.017284946090000003
7440.0 0.01689456992
7450.0 0.016521482765
7460.0 0.016179916430000003
7470.0 0.01588436402
7480.0 0.01564568389
7490.0 0.015468717460000002
7500.0 0.015352082185
7510.0 0.01528968609
7520.0 0.015272978300000002
7530.0 0.015292984164999999
7540.0 0.015341534375
7550.0 0.01541157651
7560.0 0.015496900675000001
7570.0 0.015591738170000001
7580.0 0.015690551445000003
7590.0 0.01578809641
7600.0 0.015879760785
7610.0 0.01597573259
7620.0 0.016072706715000003
7630.0 0.016163028410000002
7640.0 0.01625146439
7650.0 0.01634487311
7660.0 0.016450440320000002
7670.0 0.01657378866
7680.0 0.01671771806
7690.0 0.016881960520000003
7700.0 0.017063847765
7710.0 0.017259479055000002
7720.0 0.017464867890000003
7730.0 0.017676652545
7740.0 0.01789224749
7750.0 0.01810964373
7760.0 0.01832715387
7770.0 0.01854313775
7780.0 0.018755520715
7790.0 0.018961100835
7800.0 0.019154994145
7810.0 0.019330655750000002
7820.0 0.019480628215000004
7830.0 0.019597761635000002
7840.0 0.01967641796
7850.0 0.01971321101
7860.0 0.019707081850000002
7870.0 0.019658850895000003
7880.0 0.019570610555000003
7890.0 0.019445350035
7900.0 0.019286978115
7910.0 0.019100580765000003
7920.0 0.018892503555
7930.0 0.018669911465
7940.0 0.018439838155000002
7950.0 0.018208200060000002
7960.0 0.017979332415
7970.0 0.017756081045
7980.0 0.017539718615
7990.0 0.01732898184
8000.0 0.017118760964999997
8010.0 0.01690019189
8020.0 0.016663157615
8030.0 0.016399818805
8040.0 0.016106532
8050.0 0.01578290994
8060.0 0.01542919416
8070.0 0.015044077155
8080.0 0.014624360345
8090.0 0.014166509145000002
8100.0 0.01366912493
8110.0 0.013135027394999998
8120.0 0.012572039125
8130.0 0.01199239298
8140.0 0.011411274175000001
8150.0 0.010845146620000001
8160.0 0.010310289305
8170.0 0.00982170018
8180.0 0.009392335035000001
8190.0 0.0090325782
8200.0 0.0087498248
8210.0 0.008548103545
8220.0 0.008427733355
8230.0 0.008385116330000001
8240.0 0.008412848635000001
8250.0 0.008500364035000001
8260.0 0.008635208905
8270.0 0.008804829790000001
8280.0 0.008998520090000002
8290.0 0.009209051175
8300.0 0.00943357052
8310.0 0.00967362482
8320.0 0.009934453475
8330.0 0.010223937695000001
8340.0 0.01055156602
8350.0 0.01092760352
8360.0 0.011362355130000001
8370.0 0.011865265840000002
8380.0 0.012443642335000001
8390.0 0.013101031595000001
8400.0 0.01383562194
8410.0 0.014639252770000001
8420.0 0.015497560625000002
8430.0 0.01639144749
8440.0 0.017299566495
8450.0 0.018201119165
8460.0 0.019078169265
8470.0 0.019916939584999998
8480.0 0.020708012270000003
8490.0 0.021445764345
8500.0 0.022127540935
8510.0 0.022752965165000003
8520.0 0.0233235241
8530.0 0.023842348985000004
8540.0 0.024313992135000004
8550.0 0.02474402594
8560.0 0.025138425125000002
8570.0 0.025502785865
8580.0 0.025841538535
8590.0 0.026157304845
8600.0 0.026450528669999997
8610.0 0.02671946399
8620.0 0.02696056148
8630.0 0.027169246045
8640.0 0.02734096738
8650.0 0.027472293075
8660.0 0.027561718645
8670.0 0.027609955965000002
8680.0 0.027619644835000002
8690.0 0.02759464881
8700.0 0.02753917951
8710.0 0.02745695309
8720.0 0.027350507175
8730.0 0.027220742915000005
8740.0 0.027066731355000005
8750.0 0.026885820300000002
8760.0 0.026674080535000002
8770.0 0.026427064935
8780.0 0.02614077762
8790.0 0.025812652490000004
8800.0 0.025442318700000004
8810.0 0.025031994285
8820.0 0.024586475439999998
8830.0 0.024112760650000002
8840.0 0.023619405815000005
8850.0 0.023115695460000005
8860.0 0.022610744600000003
8870.0 0.022112672295
8880.0 0.021628015400000002
8890.0 0.021161509140000003
8900.0 0.020716238865000004
8910.0 0.020294069855000003
8920.0 0.01989614513
8930.0 0.019523282425
8940.0 0.019176134320000003
8950.0 0.018855096115000004
8960.0 0.01856001639
8970.0 0.018289800365
8980.0 0.01804203805
8990.0 0.017812813965000004
9000.0 0.01759685052
9010.0 0.017388080195
9020.0 0.017180592584999998
9030.0 0.016969744255000002
9040.0 0.01675310813
9050.0 0.016530959580000004
9060.0 0.016306144430000002
9070.0 0.016083361725000002
9080.0 0.01586806024
9090.0 0.015665298475000002
9100.0 0.015478944675000002
9110.0 0.015311432615
9120.0 0.0151639827
9130.0 0.015036937300000002
9140.0 0.01492988001
9150.0 0.014841445370000001
9160.0 0.014768968790000002
9170.0 0.014708202135
9180.0 0.01465327319
9190.0 0.01459699252
9200.0 0.014531511075000001
9210.0 0.014449192195
9220.0 0.01434338211
9230.0 0.01420881864
9240.0 0.014041707240000001
