#lamb flux
1000.0 1.6118815050000002e-07
1010.0 1.9406384375000003e-07
1020.0 2.3562278025000002e-07
1030.0 2.8795944675e-07
1040.0 3.5378357525e-07
1050.0 4.3640183725000004e-07
1060.0 5.398043867500001e-07
1070.0 6.68746732e-07
1080.0 8.288216265000001e-07
1090.0 1.0265168074999999e-06
1100.0 1.2692557700000001e-06
1110.0 1.565422085e-06
1120.0 1.924367595e-06
1130.0 2.35640938e-06
1140.0 2.8728157899999997e-06
1150.0 3.4857815625e-06
1160.0 4.2083874925e-06
1170.0 5.054537255000001e-06
1180.0 6.038863517500001e-06
1190.0 7.176590485e-06
1200.0 8.483350379999999e-06
1210.0 9.974947475e-06
1220.0 1.1667072175000001e-05
1230.0 1.357496515e-05
1240.0 1.57130564e-05
1250.0 1.8094556775e-05
1260.0 2.0731063925e-05
1270.0 2.36321294e-05
1280.0 2.6804891424999998e-05
1290.0 3.025372525e-05
1300.0 3.397994437500001e-05
1310.0 3.798155635e-05
1320.0 4.2253098125e-05
1330.0 4.6785546324999996e-05
1340.0 5.1566323725e-05
1350.0 5.6579382500000005e-05
1360.0 6.1805389225e-05
1370.0 6.722198942500002e-05
1380.0 7.280415445e-05
1390.0 7.85245968e-05
1400.0 8.4354247425e-05
1410.0 9.0262764475e-05
1420.0 9.621908275e-05
1430.0 0.000102191965
1440.0 0.0001081505375
1450.0 0.0001140648025
1460.0 0.00011990609424999999
1470.0 0.00012564749525
1480.0 0.00013126416925
1490.0 0.0001367335925
1500.0 0.0001420357665
1510.0 0.00014715326425000002
1520.0 0.00015207141525
1530.0 0.00015677811124999998
1540.0 0.00016126371375
1550.0 0.00016552085975
1560.0 0.00016954429525
1570.0 0.00017333068100000004
1580.0 0.00017687836125
1590.0 0.00018018720650000004
1600.0 0.00018325837299999997
1610.0 0.00018609415475
1620.0 0.00018869786325000003
1630.0 0.00019107367025
1640.0 0.0001932264875
1650.0 0.0001951619205
1660.0 0.000196886176
1670.0 0.00019840601575000003
1680.0 0.00019972871025
1690.0 0.00020086200175000002
1700.0 0.00020181411349999998
1710.0 0.00020259373125000002
1720.0 0.000203210031
1730.0 0.00020367271600000005
1740.0 0.00020399216475000003
1750.0 0.00020417962525000002
1760.0 0.000204247585
1770.0 0.00020421040000000003
1780.0 0.00020408530300000002
1790.0 0.00020389391125
1800.0 0.00020366447425
1810.0 0.00020343500949999998
1820.0 0.00020325746500000002
1830.0 0.0002032029455
1840.0 0.00020336791
1850.0 0.00020388087800000002
1860.0 0.00020490900625
1870.0 0.000206663685
1880.0 0.00020940388650000002
1890.0 0.00021343635
1900.0 0.00021911195575
1910.0 0.00022681798275000006
1920.0 0.00023696734175
1930.0 0.00024998627275000005
1940.0 0.00026630316175
1950.0 0.00028634051175
1960.0 0.00031051216775
1970.0 0.00033922541650000004
1980.0 0.00037288578725000004
1990.0 0.00041189973425
2000.0 0.00045666842074999997
2010.0 0.0005075657964999999
2020.0 0.0005648956685
2030.0 0.0006288267012500001
2040.0 0.0006993095737499999
2050.0 0.000775986829
2060.0 0.00085811116875
2070.0 0.0009444903975000001
2080.0 0.0010334763225
2090.0 0.0011230095700000002
2100.0 0.0012107235275
2110.0 0.0012941017325
2120.0 0.001370670735
2130.0 0.001438206465
2140.0 0.0014949248749999999
2150.0 0.0015396354900000001
2160.0 0.0015718339075000002
2170.0 0.0015917280675
2180.0 0.0016001945000000003
2190.0 0.0015986759275000001
2200.0 0.0015890346525
2210.0 0.0015733809700000001
2220.0 0.0015538964925000001
2230.0 0.0015326692225000002
2240.0 0.0015115546175
2250.0 0.0014920722675000001
2260.0 0.0014753416075
2270.0 0.0014620584225
2280.0 0.00145250863
2290.0 0.00144661231
2300.0 0.0014439900275000001
2310.0 0.0014440425674999999
2320.0 0.001446034185
2330.0 0.00144917123
2340.0 0.0014526697650000002
2350.0 0.001455807735
2360.0 0.0014579602100000001
2370.0 0.0014586174225000002
2380.0 0.0014573893000000002
2390.0 0.00145400047
2400.0 0.0014482821200000001
2410.0 0.0014401660775000002
2420.0 0.001429687585
2430.0 0.001416998805
2440.0 0.0014023939800000002
2450.0 0.0013863414375000001
2460.0 0.0013695158725000002
2470.0 0.0013528177724999998
2480.0 0.001337371845
2490.0 0.0013244922375000002
2500.0 0.0013156106650000002
2510.0 0.001312169295
2520.0 0.0013154881950000002
2530.0 0.0013266239925
2540.0 0.0013462424100000002
2550.0 0.0013745282625000001
2560.0 0.0014111491975000003
2570.0 0.0014552822425000001
2580.0 0.0015056978875
2590.0 0.00156088681
2600.0 0.0016192075975000001
2610.0 0.00167903077
2620.0 0.0017388600475000003
2630.0 0.0017974179125000002
2640.0 0.00185369334
2650.0 0.0019072088450000002
2660.0 0.0019708234999999998
2670.0 0.0021651370475
2680.0 0.00256668408
2690.0 0.0030461092675
2700.0 0.0037292860550000007
2710.0 0.00428058365
2720.0 0.0047542316575
2730.0 0.005180467310000001
2740.0 0.0055326552325
2750.0 0.005951810102500001
2760.0 0.0065442278325
2770.0 0.007234386242500001
2780.0 0.007907629825000002
2790.0 0.008497523045
2800.0 0.00916000971
2810.0 0.010022827325
2820.0 0.010927212775000002
2830.0 0.011521134
2840.0 0.01170688695
2850.0 0.01183661635
2860.0 0.0120979677
2870.0 0.012313563000000001
2880.0 0.012418803950000001
2890.0 0.01251144085
2900.0 0.012699969725000001
2910.0 0.012796237250000002
2920.0 0.012843113475000001
2930.0 0.013115179099999999
2940.0 0.013679918425
2950.0 0.014481896200000002
2960.0 0.015533994899999999
2970.0 0.016891622025000004
2980.0 0.018515507625
2990.0 0.020987379575000003
3000.0 0.024329195525
3010.0 0.026261243025
3020.0 0.026582640750000004
3030.0 0.026341563550000002
3040.0 0.026087735225000002
3050.0 0.025883145575
3060.0 0.025499273350000004
3070.0 0.024753570725
3080.0 0.023836900350000002
3090.0 0.023112094400000005
3100.0 0.022425177375
3110.0 0.021471395075
3120.0 0.020511583625
3130.0 0.019538808300000002
3140.0 0.018108886875
3150.0 0.016362616375
3160.0 0.01504460515
3170.0 0.014372899750000001
3180.0 0.013606567775000002
3190.0 0.012352983725
3200.0 0.0111684389
3210.0 0.010434953674999999
3220.0 0.009984384325
3230.0 0.0096473134
3240.0 0.0093155196
3250.0 0.0089280878825
3260.0 0.008591628382500001
3270.0 0.0084714958575
3280.0 0.008656836535
3290.0 0.00910654064
3300.0 0.009664317675
3310.0 0.01017889795
3320.0 0.010601969825000002
3330.0 0.0109866986
3340.0 0.0114274352
3350.0 0.011988151699999998
3360.0 0.012701390525000002
3370.0 0.013620106075
3380.0 0.014793195700000001
3390.0 0.01620454035
3400.0 0.017837472450000003
3410.0 0.019843925100000003
3420.0 0.022306672850000004
3430.0 0.024794548225
3440.0 0.026761220325
3450.0 0.027912520649999998
3460.0 0.028172631575000003
3470.0 0.027669350175
3480.0 0.026708856075
3490.0 0.0256197472
3500.0 0.024569317200000003
3510.0 0.023537589775000003
3520.0 0.022441903224999997
3530.0 0.021235606100000002
3540.0 0.0199148689
3550.0 0.018517163375000003
3560.0 0.01712614375
3570.0 0.015814478025
3580.0 0.014594025625
3590.0 0.013467037075
3600.0 0.01248712815
3610.0 0.0117347054
3620.0 0.011258559800000002
3630.0 0.0110561735
3640.0 0.011097429425
3650.0 0.0113643909
3660.0 0.01185527915
3670.0 0.012553195349999999
3680.0 0.013399248450000002
3690.0 0.014108534750000002
3700.0 0.01405428165
3710.0 0.0133705087
3720.0 0.01323560855
3730.0 0.013934571850000002
3740.0 0.014957436849999999
3750.0 0.01603270865
3760.0 0.017119921275
3770.0 0.01823713905
3780.0 0.019457370375
3790.0 0.020777499850000002
3800.0 0.021709288424999997
3810.0 0.021979378249999997
3820.0 0.022275645575
3830.0 0.022929130325
3840.0 0.02367195065
3850.0 0.024354308350000003
3860.0 0.024980788650000002
3870.0 0.025566934325
3880.0 0.0260955487
3890.0 0.02652252315
3900.0 0.026813371825
3910.0 0.026975751875
3920.0 0.027043221375000003
3930.0 0.027036043375
3940.0 0.026957353625
3950.0 0.02682690365
3960.0 0.026692820275000004
3970.0 0.026590489375000005
3980.0 0.02650670935
3990.0 0.026395636275000002
4000.0 0.026212010825
4010.0 0.0259291634
4020.0 0.025548060625000004
4030.0 0.025091823800000003
4040.0 0.024582692700000002
4050.0 0.024031883875
4060.0 0.023458037
4070.0 0.022896046775
4080.0 0.022369563600000003
4090.0 0.021866494950000002
4100.0 0.0213546092
4110.0 0.0208103133
4120.0 0.020223897525
4130.0 0.019589706425
4140.0 0.018907459725
4150.0 0.018192926825
4160.0 0.017474703175000002
4170.0 0.0167743607
4180.0 0.0160965503
4190.0 0.015441862124999999
4200.0 0.014821888274999999
4210.0 0.014259948925
4220.0 0.01378437405
4230.0 0.013420327350000002
4240.0 0.013177353900000001
4250.0 0.013039618625
4260.0 0.012972900225
4270.0 0.012946757875
4280.0 0.012951621525000002
4290.0 0.012992519475
4300.0 0.013064539049999999
4310.0 0.0131337975
4320.0 0.013143359225
4330.0 0.013043037425
4340.0 0.012822915175000001
4350.0 0.012525636824999999
4360.0 0.012226900675000001
4370.0 0.01199848765
4380.0 0.011878369925
4390.0 0.01186297145
4400.0 0.0119194094
4410.0 0.012004730475
4420.0 0.012080718300000001
4430.0 0.012122244325000002
4440.0 0.0121219326
4450.0 0.01209115415
4460.0 0.01205358065
4470.0 0.012031045800000001
4480.0 0.012031327000000001
4490.0 0.012047184275
4500.0 0.012064013725000001
4510.0 0.012068953224999998
4520.0 0.012057130800000001
4530.0 0.0120312234
4540.0 0.011994067075000002
4550.0 0.011940751
4560.0 0.01185700705
4570.0 0.011725991900000001
4580.0 0.0115395711
4590.0 0.01130588465
4600.0 0.011048044600000001
4610.0 0.01079552515
4620.0 0.010572693575
4630.0 0.010388959900000001
4640.0 0.010236171175000001
4650.0 0.010097016025
4660.0 0.009959007875
4670.0 0.0098218794
4680.0 0.009692833575
4690.0 0.009576812675
4700.0 0.009472521700000002
4710.0 0.00937659365
4720.0 0.009288771375000001
4730.0 0.0092109837775
4740.0 0.0091417993275
4750.0 0.009073655040000001
4760.0 0.008996097675000002
4770.0 0.008901042455
4780.0 0.0087853163525
4790.0 0.008650478454999999
4800.0 0.0085022961375
4810.0 0.008349886755
4820.0 0.0082030734375
4830.0 0.008069206235000001
4840.0 0.007952276615
4850.0 0.007854133652500001
4860.0 0.007775314680000001
4870.0 0.0077151607275
4880.0 0.0076728856375000015
4890.0 0.007649705415
4900.0 0.007650121202500001
4910.0 0.007680935727500001
4920.0 0.0077484598949999995
4930.0 0.007855273622499999
4940.0 0.0079981278475
4950.0 0.008168382145
4960.0 0.00835463885
4970.0 0.008545333427500001
4980.0 0.008730389390000001
4990.0 0.00890520699
5000.0 0.009076162530000001
5010.0 0.009256002324999998
5020.0 0.00944907295
5030.0 0.009645475425000001
5040.0 0.009829198925000001
5050.0 0.009986657975000002
5060.0 0.010108529500000001
5070.0 0.0101888824
5080.0 0.010226216325
5090.0 0.010225694625
5100.0 0.01019902595
5110.0 0.010160919650000001
5120.0 0.010124010300000002
5130.0 0.010094146675000002
5140.0 0.01006751315
5150.0 0.010031143075
5160.0 0.009967013750000002
5170.0 0.009857959950000002
5180.0 0.009693748399999999
5190.0 0.009476368774999999
5200.0 0.009222365625000001
5210.0 0.008959383962500001
5220.0 0.008717363355
5230.0 0.0085190945075
5240.0 0.008375058502500001
5250.0 0.0082841106525
5260.0 0.0082381004125
5270.0 0.0082267055225
5280.0 0.008239431765000001
5290.0 0.008264875555
5300.0 0.00829024553
5310.0 0.0083032735075
5320.0 0.00829514655
5330.0 0.008261931465
5340.0 0.008204158925
5350.0 0.008125733725
5360.0 0.008032692507500001
5370.0 0.007932113095
5380.0 0.0078320009
5390.0 0.007741965470000001
5400.0 0.0076726197
5410.0 0.007632270737500001
5420.0 0.007622864135
5430.0 0.007638982075
5440.0 0.0076710356374999995
5450.0 0.007709764
5460.0 0.0077486930875
5470.0 0.0077841987500000005
5480.0 0.007815137965000002
5490.0 0.007843413919999999
5500.0 0.00787463341
5510.0 0.007916503627499998
5520.0 0.0079739152325
5530.0 0.0080436271175
5540.0 0.008114038857499999
5550.0 0.0081720243325
5560.0 0.0082115329325
5570.0 0.008236309335
5580.0 0.008255073607500002
5590.0 0.00827445245
5600.0 0.008295249595
5610.0 0.008313169342500001
5620.0 0.008321946482500002
5630.0 0.0083166362425
5640.0 0.008295593972500001
5650.0 0.0082604637675
5660.0 0.008214572575
5670.0 0.0081611122925
5680.0 0.0081023903325
5690.0 0.008040254937500001
5700.0 0.00797676155
5710.0 0.007914272897500001
5720.0 0.0078551171125
5730.0 0.007801410225000001
5740.0 0.007755158652499999
5750.0 0.007718105187499999
5760.0 0.0076909544025
5770.0 0.0076723983475000005
5780.0 0.00765875062
5790.0 0.007644544285000001
5800.0 0.0076237702650000004
5810.0 0.0075912238625000005
5820.0 0.0075436281725000005
5830.0 0.007480304337500001
5840.0 0.0074030829325
5850.0 0.007315332900000001
5860.0 0.007220547965
5870.0 0.007121245700000001
5880.0 0.007018529445000001
5890.0 0.006912112912500001
5900.0 0.006800637647500001
5910.0 0.00668239055
5920.0 0.006556312032500001
5930.0 0.006422746010000001
5940.0 0.006283465892500001
5950.0 0.00614105835
5960.0 0.005998102467500001
5970.0 0.0058565240025
5980.0 0.00571736839
5990.0 0.005581108489999999
6000.0 0.00544833917
6010.0 0.0053204519075
6020.0 0.0051998651150000005
6030.0 0.0050896079825
6040.0 0.0049923734625
6050.0 0.0049096052025
6060.0 0.0048415092
6070.0 0.004788430665
6080.0 0.00475274213
6090.0 0.004739498535
6100.0 0.0047548969175
6110.0 0.0048034418425
6120.0 0.00488571495
6130.0 0.004997902095
6140.0 0.0051328154725
6150.0 0.005281510332499999
6160.0 0.0054348231625000005
6170.0 0.0055845103625
6180.0 0.0057238124025
6190.0 0.005847481295000001
6200.0 0.0059516470249999995
6210.0 0.006033969065
6220.0 0.0060940973025000005
6230.0 0.0061339279875
6240.0 0.006157096925000001
6250.0 0.0061677944575000004
6260.0 0.006169689505
6270.0 0.006165723752500001
6280.0 0.0061587309375
6290.0 0.0061520445750000005
6300.0 0.0061492747550000015
6310.0 0.00615321026
6320.0 0.00616457592
6330.0 0.006181502865000001
6340.0 0.0062000561450000005
6350.0 0.0062155242725
6360.0 0.006223852417500001
6370.0 0.0062226631450000005
6380.0 0.0062115563924999995
6390.0 0.006191677957500001
6400.0 0.006164855917500001
6410.0 0.0061328074425
6420.0 0.00609683854
6430.0 0.0060580827050000004
6440.0 0.00601793197
6450.0 0.005978191565
6460.0 0.005940700390000001
6470.0 0.005906581857500001
6480.0 0.005875590565
6490.0 0.005846020257500001
6500.0 0.0058153011925000005
6510.0 0.0057809944225000005
6520.0 0.0057416723025
6530.0 0.0056972889525
6540.0 0.0056489565925
6550.0 0.0055983339325
6560.0 0.005546951570000001
6570.0 0.0054957621625
6580.0 0.005445048945000001
6590.0 0.005394641532500001
6600.0 0.0053442358775
6610.0 0.005293602580000001
6620.0 0.005242597895
6630.0 0.00519107299
6640.0 0.0051388322275
6650.0 0.005085700135000001
6660.0 0.005031635365
6670.0 0.0049768153325000005
6680.0 0.00492166896
6690.0 0.0048668589175
6700.0 0.004813176727500001
6710.0 0.004761333992500001
6720.0 0.0047117312375
6730.0 0.004664344875
6740.0 0.004618746075
6750.0 0.004574069500000001
6760.0 0.004528797225000001
6770.0 0.0044806209125
6780.0 0.0044269439025
6790.0 0.004366221260000001
6800.0 0.004299435890000001
6810.0 0.0042305157125
6820.0 0.00416506965
6830.0 0.0041080782725
6840.0 0.0040619913499999995
6850.0 0.0040262783025
6860.0 0.003998308245
6870.0 0.003974698267500001
6880.0 0.0039524335175
6890.0 0.00392956206
6900.0 0.003905536202500001
6910.0 0.0038812617974999996
6920.0 0.0038588277725
6930.0 0.003840869360000001
6940.0 0.0038296547525
6950.0 0.0038262231874999996
6960.0 0.0038300053275
6970.0 0.0038391382225
6980.0 0.0038512710775000006
6990.0 0.0038643817500000005
7000.0 0.0038772027125
7010.0 0.0038891802600000006
7020.0 0.0039001620450000002
7030.0 0.0039100540875
7040.0 0.0039185626075
7050.0 0.0039250181825
7060.0 0.0039282708525000005
7070.0 0.0039267238825
7080.0 0.0039186040475000005
7090.0 0.0039024731575
7100.0 0.0038778102525000003
7110.0 0.0038453915000000003
7120.0 0.00380725967
7130.0 0.00376627403
7140.0 0.00372542381
7150.0 0.0036871721
7160.0 0.0036530517175000004
7170.0 0.003623594445
7180.0 0.0035985259275000004
7190.0 0.0035770788775000006
7200.0 0.0035582873175000005
7210.0 0.0035411962775
7220.0 0.0035249802875
7230.0 0.00350899305
7240.0 0.0034927612425
7250.0 0.003475936695
7260.0 0.0034582333050000003
7270.0 0.0034393947549999997
7280.0 0.0034192364149999996
7290.0 0.0033977575450000004
7300.0 0.0033752522025000003
7310.0 0.0033523087800000004
7320.0 0.0033296276875000004
7330.0 0.003307704355
7340.0 0.0032865385975000003
7350.0 0.00326555081
7360.0 0.00324377261
7370.0 0.0032202025000000003
7380.0 0.0031941223100000003
7390.0 0.00316522494
7400.0 0.0031335794875000005
7410.0 0.0030995929525000003
7420.0 0.003064104495
7430.0 0.0030285647925
7440.0 0.0029950843250000003
7450.0 0.00296613719
7460.0 0.00294390537
7470.0 0.0029295100574999997
7480.0 0.0029224941175
7490.0 0.0029208269900000004
7500.0 0.0029214862375
7510.0 0.0029214378600000003
7520.0 0.00291868025
7530.0 0.0029129453425000003
7540.0 0.0029057203525
7550.0 0.0028995368200000005
7560.0 0.0028968691200000002
7570.0 0.00289922417
7580.0 0.0029068556050000005
7590.0 0.0029190872500000006
7600.0 0.002934856465
7610.0 0.0029530569500000005
7620.0 0.0029725547475
7630.0 0.0029920552274999997
7640.0 0.0030100749675000004
7650.0 0.0030251106575000003
7660.0 0.003035902725
7670.0 0.0030416261625000004
7680.0 0.0030419188325
7690.0 0.0030367632525000006
7700.0 0.003026296415
7710.0 0.0030106183125000003
7720.0 0.0029896613275000004
7730.0 0.0029631685875
7740.0 0.002930800155
7750.0 0.0028923320875
7760.0 0.0028478484675
7770.0 0.0027978206750000002
7780.0 0.00274302349
7790.0 0.0026843315000000005
7800.0 0.002622512455
7810.0 0.0025581347675000003
7820.0 0.002491646045
7830.0 0.0024235790875000002
7840.0 0.00235477028
7850.0 0.0022864626375000002
7860.0 0.002220228845
7870.0 0.0021577504600000003
7880.0 0.0021005622425000004
7890.0 0.0020498792725000005
7900.0 0.0020065529199999998
7910.0 0.0019711106200000004
7920.0 0.0019437924099999998
7930.0 0.001924528175
7940.0 0.001912886495
7950.0 0.0019080852825
7960.0 0.0019091404300000002
7970.0 0.0019151400725000002
7980.0 0.001925531985
7990.0 0.0019402763924999998
8000.0 0.00195975791
8010.0 0.0019844456050000002
8020.0 0.002014380455
8030.0 0.0020486565150000004
8040.0 0.0020851310225
8050.0 0.0021205958925
8060.0 0.0021514917250000003
8070.0 0.0021749625825
8080.0 0.0021897862625
8090.0 0.0021966880575
8100.0 0.0021978629
8110.0 0.0021960022625
8120.0 0.0021933922825
8130.0 0.0021915026925
8140.0 0.0021911074400000003
8150.0 0.0021926693025
8160.0 0.00219667224
8170.0 0.0022037250875
8180.0 0.0022144518499999997
8190.0 0.002229293475
8200.0 0.0022483520825
8210.0 0.0022713477675
8220.0 0.0022976767825
8230.0 0.0023265266075
8240.0 0.00235700323
8250.0 0.0023882521350000003
8260.0 0.0024195743925000002
8270.0 0.0024505354375
8280.0 0.002481047395
8290.0 0.0025113810125
8300.0 0.0025420652975
8310.0 0.002573663205
8320.0 0.0026064785975
8330.0 0.002640303535
8340.0 0.0026743245725
8350.0 0.0027072527225000006
8360.0 0.0027376450775000003
8370.0 0.0027643008025
8380.0 0.0027865785025000004
8390.0 0.002804520265
8400.0 0.0028187457475000004
8410.0 0.0028301780075000007
8420.0 0.002839719845
8430.0 0.00284800618
8440.0 0.0028553086850000003
8450.0 0.0028615964650000004
8460.0 0.00286669081
8470.0 0.0028704271625
8480.0 0.002872752705
8490.0 0.0028737294125
8500.0 0.0028734633825
8510.0 0.0028720140925000003
8520.0 0.0028693388075
8530.0 0.0028653071025
8540.0 0.0028597779150000002
8550.0 0.0028526994449999997
8560.0 0.0028441782525000002
8570.0 0.00283448009
8580.0 0.0028239589549999998
8590.0 0.00281294646
8600.0 0.002801651655
8610.0 0.0027901140375
8620.0 0.00277822936
8630.0 0.0027658339900000005
8640.0 0.0027528132275
8650.0 0.0027391861275000004
8660.0 0.00272513251
8670.0 0.0027109516125
8680.0 0.0026969702375000005
8690.0 0.0026834371175
8700.0 0.0026704410525000004
8710.0 0.0026578786275
8720.0 0.0026454763200000004
8730.0 0.00263285673
8740.0 0.0026196300625000004
8750.0 0.0026054818174999998
8760.0 0.0025902285674999997
8770.0 0.0025738162925
8780.0 0.002556258405
8790.0 0.00253753215
8800.0 0.0025174771325000003
8810.0 0.0024957420375
8820.0 0.002471811825
8830.0 0.0024451217825
8840.0 0.0024152331825
8850.0 0.0023820251275000004
8860.0 0.00234584847
8870.0 0.0023075909325
8880.0 0.0022686251225
8890.0 0.0022306390725
8900.0 0.002195383345
8910.0 0.002164387705
8920.0 0.0021387097975
8930.0 0.0021187692025000002
8940.0 0.0021043073825
8950.0 0.0020944876750000002
8960.0 0.0020881204375
