#lamb flux
1000.0 6.070775555000001e-06
1010.0 7.355550254999999e-06
1020.0 8.941140870000001e-06
1030.0 1.088837028e-05
1040.0 1.3272799544999999e-05
1050.0 1.6180739265e-05
1060.0 1.9708516745e-05
1070.0 2.3960759095e-05
1080.0 2.9047559375e-05
1090.0 3.5080539365e-05
1100.0 4.2167958825e-05
1110.0 5.04092219e-05
1120.0 5.988921135e-05
1130.0 7.067294869999999e-05
1140.0 8.28009945e-05
1150.0 9.628588114999999e-05
1160.0 0.00011110973154999998
1170.0 0.00012722304175
1180.0 0.0001445445791
1190.0 0.0001629623086
1200.0 0.00018233532319999996
1210.0 0.00020249664225
1220.0 0.00022325697995
1230.0 0.0002444092995
1240.0 0.0002657341093
1250.0 0.0002870052684
1260.0 0.0003079961266
1270.0 0.00032848565484999996
1280.0 0.00034826436225
1290.0 0.0003671396553
1300.0 0.0003849405521
1310.0 0.00040152145565
1320.0 0.00041676497169999995
1330.0 0.00043058377115
1340.0 0.00044292142424999997
1350.0 0.0004537523812
1360.0 0.00046308111854999996
1370.0 0.0004709404805
1380.0 0.00047738969525
1390.0 0.00048251155714999994
1400.0 0.0004864095069999999
1410.0 0.000489204271
1420.0 0.0004910303445000001
1430.0 0.0004920323060000001
1440.0 0.0004923612815
1450.0 0.00049217121
1460.0 0.0004916154
1470.0 0.0004908434255000001
1480.0 0.000489997828
1490.0 0.000489212225
1500.0 0.0004886087395
1510.0 0.0004882969329999999
1520.0 0.0004883726415
1530.0 0.0004889180239999999
1540.0 0.0004900013684999999
1550.0 0.0004916782559999999
1560.0 0.0004939922879999999
1570.0 0.0004969767355
1580.0 0.000500656091
1590.0 0.0005050476689999999
1600.0 0.000510163255
1610.0 0.000516010415
1620.0 0.000522593902
1630.0 0.0005299163835
1640.0 0.0005379791205
1650.0 0.000546782016
1660.0 0.000556323712
1670.0 0.0005666008135
1680.0 0.0005776066275
1690.0 0.0005893296109999999
1700.0 0.0006017508975000001
1710.0 0.000614840805
1720.0 0.0006285545195
1730.0 0.000642827342
1740.0 0.0006575688200000001
1750.0 0.0006726576065000001
1760.0 0.00068793758
1770.0 0.000703216244
1780.0 0.0007182684130000001
1790.0 0.0007328451849999999
1800.0 0.0007466905285
1810.0 0.0007595651445
1820.0 0.0007712765849999999
1830.0 0.0007817126695000001
1840.0 0.0007908739314999998
1850.0 0.0007988994205000001
1860.0 0.0008060803789999999
1870.0 0.0008128575264999999
1880.0 0.0008197989435
1890.0 0.000827560447
1900.0 0.0008368318525
1910.0 0.0008482772219999999
1920.0 0.000862477731
1930.0 0.0008798860785000001
1940.0 0.0009007993754999999
1950.0 0.0009253538099999999
1960.0 0.000953539682
1970.0 0.0009852316675
1980.0 0.0010202263089999998
1990.0 0.001058277663
2000.0 0.0010991229565
2010.0 0.0011424933055
2020.0 0.0011881080404999998
2030.0 0.0012356548214999998
2040.0 0.0012847599075
2050.0 0.0013349550794999998
2060.0 0.0013856472795
2070.0 0.0014360956214999998
2080.0 0.0014854010609999999
2090.0 0.0015325113904999998
2100.0 0.001576245441
2110.0 0.0016153388174999998
2120.0 0.001648512963
2130.0 0.0016745662899999999
2140.0 0.0016924813169999998
2150.0 0.0017015386434999999
2160.0 0.0017014202065
2170.0 0.0016922859105
2180.0 0.00167480588
2190.0 0.0016501371795
2200.0 0.0016198424305
2210.0 0.0015857596374999998
2220.0 0.0015498396159999998
2230.0 0.0015139773094999997
2240.0 0.0014798610515
2250.0 0.001448861937
2260.0 0.0014219757195
2270.0 0.0013998198525000001
2280.0 0.001382676412
2290.0 0.0013705656225
2300.0 0.001363330441
2310.0 0.0013607128475
2320.0 0.0013624084075
2330.0 0.0013680916375
2340.0 0.0013774138224999998
2350.0 0.0013899806575
2360.0 0.001405322905
2370.0 0.0014228736969999999
2380.0 0.0014419639275
2390.0 0.001461842283
2400.0 0.0014817197654999998
2410.0 0.0015008311904999999
2420.0 0.001518501244
2430.0 0.0015342005969999999
2440.0 0.0015475794675000002
2450.0 0.0015584706759999996
2460.0 0.0015668620004999998
2470.0 0.0015728446209999998
2480.0 0.0015765508939999998
2490.0 0.001578097947
2500.0 0.0015775500425
2510.0 0.0015749110120000002
2520.0 0.001570146469
2530.0 0.0015632299810000002
2540.0 0.001554200639
2550.0 0.001543214322
2560.0 0.0015305761435000001
2570.0 0.0015167437495
2580.0 0.0015023006919999999
2590.0 0.0014879059405
2600.0 0.0014742314140000002
2610.0 0.001461898931
2620.0 0.0014514293329999997
2630.0 0.0014432086799999997
2640.0 0.0014374757375
2650.0 0.0014345732065
2660.0 0.0014474281315
2670.0 0.0015962687145
2680.0 0.0019758007599999998
2690.0 0.0023608380889999997
2700.0 0.002723515366
2710.0 0.002970892623
2720.0 0.0031410557945
2730.0 0.0033915585854999994
2740.0 0.003619967444
2750.0 0.0037016043899999996
2760.0 0.0036948944635000003
2770.0 0.003687959497
2780.0 0.003710477853
2790.0 0.0037685718805
2800.0 0.0038961994849999993
2810.0 0.0040449249774999994
2820.0 0.0041495347245
2830.0 0.004172204933999999
2840.0 0.004087285702
2850.0 0.0041514851035
2860.0 0.004674459682
2870.0 0.00549040952
2880.0 0.005986663945
2890.0 0.00599434586
2900.0 0.006225151054999999
2910.0 0.006692692995
2920.0 0.007003975210000001
2930.0 0.007125941069999999
2940.0 0.007188587064999999
2950.0 0.0071128237599999995
2960.0 0.006812229005
2970.0 0.006408437404999999
2980.0 0.006082092545
2990.0 0.005716598485
3000.0 0.0051417299250000005
3010.0 0.0046815655625
3020.0 0.0046128677375
3030.0 0.004781682172499999
3040.0 0.004832793073
3050.0 0.0047994179435
3060.0 0.00503705383
3070.0 0.0053939696950000005
3080.0 0.0055141575449999996
3090.0 0.005520058055
3100.0 0.00559568653
3110.0 0.005718507445
3120.0 0.00590249171
3130.0 0.006336655949999999
3140.0 0.006947958195
3150.0 0.007275480635
3160.0 0.0071378900149999995
3170.0 0.006810808439999999
3180.0 0.006673039339999999
3190.0 0.00705930304
3200.0 0.008053170375
3210.0 0.00918906123
3220.0 0.009617063544999999
3230.0 0.00910929425
3240.0 0.00827353449
3250.0 0.007671915754999999
3260.0 0.007426761835
3270.0 0.00756327042
3280.0 0.00787083414
3290.0 0.00794035889
3300.0 0.007877057659999999
3310.0 0.00796464575
3320.0 0.00809137819
3330.0 0.008142948725
3340.0 0.008041003665
3350.0 0.00781390969
3360.0 0.00772998529
3370.0 0.007905315214999998
3380.0 0.008310060809999999
3390.0 0.008862743529999998
3400.0 0.009429563515
3410.0 0.00985869782
3420.0 0.010084920734999999
3430.0 0.010158736764999999
3440.0 0.01019632087
3450.0 0.010280370884999999
3460.0 0.01044435763
3470.0 0.010730623059999998
3480.0 0.01116378917
3490.0 0.011750841415
3500.0 0.01246427787
3510.0 0.01323568492
3520.0 0.013994027039999999
3530.0 0.014655406505
3540.0 0.015197900829999998
3550.0 0.015697694785
3560.0 0.016194213050000003
3570.0 0.016658891065
3580.0 0.017030242955
3590.0 0.017247075299999998
3600.0 0.01726723384
3610.0 0.01710462983
3620.0 0.017051556765
3630.0 0.017532876099999997
3640.0 0.01855792651
3650.0 0.019830782334999998
3660.0 0.021074863109999998
3670.0 0.02207627365
3680.0 0.022658028724999994
3690.0 0.02269429266
3700.0 0.022156748245
3710.0 0.021141828029999997
3720.0 0.019839429399999997
3730.0 0.01842601718
3740.0 0.01697862489
3750.0 0.015521926419999998
3760.0 0.014131998869999999
3770.0 0.01295564495
3780.0 0.01215048772
3790.0 0.011830723825
3800.0 0.01205101422
3810.0 0.012852940864999997
3820.0 0.01427692851
3830.0 0.016281571735
3840.0 0.018745686015000002
3850.0 0.021515256689999998
3860.0 0.024402096485
3870.0 0.027200376249999998
3880.0 0.029754248025
3890.0 0.032004977824999996
3900.0 0.033969405335
3910.0 0.035696400610000005
3920.0 0.037239759365
3930.0 0.03863128741500001
3940.0 0.03983326922
3950.0 0.040705109584999996
3960.0 0.041053782875
3970.0 0.04074996238499999
3980.0 0.03980281801
3990.0 0.038354465904999996
4000.0 0.036639562650000006
4010.0 0.034927610619999994
4020.0 0.033443187125
4030.0 0.03229838876
4040.0 0.031478474435
4050.0 0.030880139149999996
4060.0 0.030371527409999998
4070.0 0.029851185945
4080.0 0.029291818469999998
4090.0 0.028739912234999998
4100.0 0.028264361005
4110.0 0.027908253635
4120.0 0.02768422874
4130.0 0.027603689155
4140.0 0.027700208520000002
4150.0 0.028009816030000002
4160.0 0.028517436429999998
4170.0 0.02912819887
4180.0 0.0297082579
4190.0 0.030164659875000003
4200.0 0.030484834565
4210.0 0.030707515525
4220.0 0.030879487795000004
4230.0 0.031046725495
4240.0 0.031263125705
4250.0 0.03158467537
4260.0 0.03204579494
4270.0 0.032639249669999995
4280.0 0.033308689350000004
4290.0 0.033948394165
4300.0 0.034407103285
4310.0 0.0345084387
4320.0 0.034102534925
4330.0 0.033134893965
4340.0 0.03168332825
4350.0 0.029926045695000004
4360.0 0.02806572683
4370.0 0.026268939569999997
4380.0 0.02465146942
4390.0 0.023294508289999998
4400.0 0.022260237545
4410.0 0.021591319724999995
4420.0 0.021302969765
4430.0 0.021380937395
4440.0 0.021790543175
4450.0 0.02249784341
4460.0 0.023490596699999998
4470.0 0.02478340785
4480.0 0.026411746849999997
4490.0 0.028430831434999998
4500.0 0.030913754984999996
4510.0 0.033925195645
4520.0 0.037475511075
4530.0 0.04149325398499999
4540.0 0.04582788959
4550.0 0.05026113685
4560.0 0.054530557900000005
4570.0 0.05838246185
4580.0 0.06162466259999999
4590.0 0.06413213685
4600.0 0.06581165789999999
4610.0 0.06656877685000001
4620.0 0.06629780735
4630.0 0.06488973595
4640.0 0.0622679472
4650.0 0.058505981650000004
4660.0 0.05396730315000001
4670.0 0.0492057138
4680.0 0.044668386994999996
4690.0 0.040592125925
4700.0 0.03709247602
4710.0 0.034224161285000006
4720.0 0.03200276768
4730.0 0.030429438835
4740.0 0.029510720310000002
4750.0 0.029256564305
4760.0 0.029648294439999997
4770.0 0.030595091555
4780.0 0.031915853254999994
4790.0 0.0333655556
4800.0 0.0346959979
4810.0 0.035731021365
4820.0 0.03643292258
4830.0 0.036925730595
4840.0 0.037442192060000004
4850.0 0.038218408370000005
4860.0 0.039430739105
4870.0 0.04119448477
4880.0 0.043541621415
4890.0 0.046371382045
4900.0 0.049430913849999994
4910.0 0.052341491000000004
4920.0 0.054664335450000004
4930.0 0.05599891964999999
4940.0 0.056087631
4950.0 0.0548874112
4960.0 0.052581178
4970.0 0.0495280545
4980.0 0.046173905565
4990.0 0.042945144165
5000.0 0.04013579864
5010.0 0.037831729509999995
5020.0 0.03596598786
5030.0 0.03445482777
5040.0 0.033244945315
5050.0 0.032279916565000004
5060.0 0.031493759695
5070.0 0.030835319330000003
5080.0 0.030282900449999997
5090.0 0.02984135936
5100.0 0.029532554524999997
5110.0 0.02938776408
5120.0 0.02944234986
5130.0 0.029728912110000002
5140.0 0.030270175990000002
5150.0 0.031077429875
5160.0 0.03215483652000001
5170.0 0.033501830415
5180.0 0.035107769205
5190.0 0.036943209995
5200.0 0.038958647864999994
5210.0 0.04109226423
5220.0 0.04328202565
5230.0 0.04547480765
5240.0 0.047628607775
5250.0 0.04970638415
5260.0 0.05166337855000001
5270.0 0.05343628635
5280.0 0.05494502434999999
5290.0 0.05611071215
5300.0 0.05688306979999999
5310.0 0.0572660452
5320.0 0.05733207795
5330.0 0.05721819995
5340.0 0.057102149149999996
5350.0 0.0571658054
5360.0 0.057560362600000005
5370.0 0.05838557069999999
5380.0 0.05968620975
5390.0 0.06145989355
5400.0 0.06366692970000001
5410.0 0.06623549455
5420.0 0.06906301544999999
5430.0 0.07202040965
5440.0 0.07496244875
5450.0 0.077743851
5460.0 0.0802382157
5470.0 0.0823546393
5480.0 0.08404538325000001
5490.0 0.08529946714999999
5500.0 0.0861232154
5510.0 0.0865205662
5520.0 0.0864903701
5530.0 0.08603868475
5540.0 0.0851864961
5550.0 0.0839664883
5560.0 0.08241702969999999
5570.0 0.08057614915
5580.0 0.07847501275
5590.0 0.07613552309999999
5600.0 0.07357517899999999
5610.0 0.0708189822
5620.0 0.06790936535
5630.0 0.0649091117
5640.0 0.0618980086
5650.0 0.058966372749999996
5660.0 0.056208352350000004
5670.0 0.053716393249999994
5680.0 0.0515773832
5690.0 0.0498702802
5700.0 0.048663086099999996
5710.0 0.04800581604
5720.0 0.047919312894999996
5730.0 0.048385509929999994
5740.0 0.049346649949999995
5750.0 0.0507150726
5760.0 0.0523877503
5770.0 0.0542577648
5780.0 0.05621910965
5790.0 0.0581667581
5800.0 0.05999754579999999
5810.0 0.061615947149999996
5820.0 0.06294405175
5830.0 0.0639297609
5840.0 0.0645478934
5850.0 0.0647921491
5860.0 0.06466319244999999
5870.0 0.0641637734
5880.0 0.06330095355000001
5890.0 0.06208835655
5900.0 0.0605441699
5910.0 0.05868993244999999
5920.0 0.056558493249999994
5930.0 0.05420992925
5940.0 0.0517422735
5950.0 0.04928399765
5960.0 0.046968193945
5970.0 0.04490178015
5980.0 0.043144777925
5990.0 0.041706865445
6000.0 0.04055866238
6010.0 0.039650462535
6020.0 0.038930245295000006
6030.0 0.038354356295
6040.0 0.037888112700000004
6050.0 0.037499174224999994
6060.0 0.037150597935
6070.0 0.03679967667
6080.0 0.036405544815
6090.0 0.035941542405
6100.0 0.03540593896
6110.0 0.034827209314999996
6120.0 0.034262184315
6130.0 0.0337867102
6140.0 0.03347917073
6150.0 0.033399359615
6160.0 0.033568806975
6170.0 0.033960557965
6180.0 0.03450358579
6190.0 0.03510104274
6200.0 0.035656242125
6210.0 0.036097665359999996
6220.0 0.03639483262
6230.0 0.036560880129999994
6240.0 0.036644036775
6250.0 0.036714401545
6260.0 0.03685086259999999
6270.0 0.037129255509999994
6280.0 0.037612026449999995
6290.0 0.03834064583
6300.0 0.039332015899999996
6310.0 0.040579582855000004
6320.0 0.042059120459999995
6330.0 0.043737582755000004
6340.0 0.045581761305
6350.0 0.047562828195000004
6360.0 0.049655560999999994
6370.0 0.05183348745
6380.0 0.0540632798
6390.0 0.0563020204
6400.0 0.058499084949999995
6410.0 0.060601598750000006
6420.0 0.0625610327
6430.0 0.0643384607
6440.0 0.0659073581
6450.0 0.0672539024
6460.0 0.06837489745
6470.0 0.06927384495
6480.0 0.06995626905
6490.0 0.07042595275
6500.0 0.07068340044999999
6510.0 0.07072663335
6520.0 0.0705532119
6530.0 0.0701619721
6540.0 0.06955314675
6550.0 0.06872698804999999
6560.0 0.06768201674999999
6570.0 0.06641467295
6580.0 0.06492106695
6590.0 0.06320092714999999
6600.0 0.06126293505
6610.0 0.059129352149999995
6620.0 0.05683812485
6630.0 0.05444178835
6640.0 0.0520032714
6650.0 0.049589615549999994
6660.0 0.04726489803
6670.0 0.045083683765
6680.0 0.04308629711
6690.0 0.041296512765
6700.0 0.039721667325
6710.0 0.038354642929999995
6720.0 0.03717712501
6730.0 0.036163728665
6740.0 0.035286461634999995
6750.0 0.034518669775
6760.0 0.033837773424999995
6770.0 0.033226834930000004
6780.0 0.032675396235
6790.0 0.032179357635
6800.0 0.031739285609999994
6810.0 0.03135759497499999
6820.0 0.03103602494
6830.0 0.03077389311
6840.0 0.03056659732
6850.0 0.03040468104
6860.0 0.030274650599999998
6870.0 0.030161416679999997
6880.0 0.030051085485
6890.0 0.029932853154999998
6900.0 0.029799607165000002
6910.0 0.029647365664999998
6920.0 0.029473852550000002
6930.0 0.029276776194999996
6940.0 0.0290527319
6950.0 0.028797543814999996
6960.0 0.028508042950000003
6970.0 0.028184306420000003
6980.0 0.027831051335
6990.0 0.02745749997
7000.0 0.027076026615
7010.0 0.026700453285
7020.0 0.026344702390000002
7030.0 0.026021980479999998
7040.0 0.025744365995
7050.0 0.025522581315
7060.0 0.025365826405000003
7070.0 0.025281605185
7080.0 0.02527557809
7090.0 0.02535155625
7100.0 0.025511515555
7110.0 0.025755199439999998
7120.0 0.026078939365
7130.0 0.026473975745
7140.0 0.02692503787
7150.0 0.027410141659999998
7160.0 0.027902546155000003
7170.0 0.028374319234999997
7180.0 0.028800288429999998
7190.0 0.029161192935
7200.0 0.029445566864999998
7210.0 0.029650616620000004
7220.0 0.029782427979999998
7230.0 0.029855328329999997
7240.0 0.029890034929999997
7250.0 0.029910768679999998
7260.0 0.02994221802
7270.0 0.030007285135
7280.0 0.030125753175000002
7290.0 0.030313308009999998
7300.0 0.030580335914999996
7310.0 0.030930659174999996
7320.0 0.031360950205
7330.0 0.031861321795
7340.0 0.03241674864500001
7350.0 0.03300835213
7360.0 0.03361380478999999
7370.0 0.034206908864999996
7380.0 0.03475715058000001
7390.0 0.035230239465
7400.0 0.035590267575
7410.0 0.03580355166
7420.0 0.03584332990499999
7430.0 0.035695456315
7440.0 0.035363079995
7450.0 0.03486823983
7460.0 0.03424987356
7470.0 0.033558659805
7480.0 0.03285010245
7490.0 0.032177353615
7500.0 0.03158485579
7510.0 0.031103865284999997
7520.0 0.030751587475
7530.0 0.030535527734999998
7540.0 0.030461929469999996
7550.0 0.030542764419999997
7560.0 0.030794478935
7570.0 0.031227342405000004
7580.0 0.031832894005
7590.0 0.032579453535
7600.0 0.033418760585
7610.0 0.0342982203
7620.0 0.035171181984999994
7630.0 0.03600169841
7640.0 0.03676467325
7650.0 0.037443836694999996
7660.0 0.038029337425000004
7670.0 0.038515691544999994
7680.0 0.038900252895
7690.0 0.039182258569999996
7700.0 0.039362471475
7710.0 0.039443260835
7720.0 0.039428774369999996
7730.0 0.039324788915
7740.0 0.039138049365
7750.0 0.038875471335
7760.0 0.03854352715
7770.0 0.038148007225
7780.0 0.03769404189
7790.0 0.03718620227
7800.0 0.03662861232
7810.0 0.03602517823
7820.0 0.035380026380000006
7830.0 0.03469798737
7840.0 0.03398481524
7850.0 0.033246896955
7860.0 0.032490530725
7870.0 0.031721181045
7880.0 0.030943198365
7890.0 0.030160246860000003
7900.0 0.029376262305
7910.0 0.028596402675
7920.0 0.027827312955
7930.0 0.027076215279999996
7940.0 0.026348934015000002
7950.0 0.025647899495
7960.0 0.02497184587
7970.0 0.02431820846
7980.0 0.0236868471
7990.0 0.02308171551
8000.0 0.02250838634
8010.0 0.02196961924
8020.0 0.02146216859
8030.0 0.020976728695
8040.0 0.02050052223
8050.0 0.020019399804999997
8060.0 0.01951836522
8070.0 0.0189813868
8080.0 0.01839183535
8090.0 0.01773421027
8100.0 0.016996924425
8110.0 0.016175311145
8120.0 0.015273887719999999
8130.0 0.014307158559999998
8140.0 0.013298753834999998
8150.0 0.012279160644999999
8160.0 0.011282612715
8170.0 0.01034368909
8180.0 0.009494080639999998
8190.0 0.008759820225000001
8200.0 0.008159226779999999
8210.0 0.0077017898149999995
8220.0 0.00738814565
8230.0 0.007211110465000001
8240.0 0.007157555310000001
8250.0 0.007210710339999999
8260.0 0.007352461774999999
8270.0 0.00756527056
8280.0 0.007833519695
8290.0 0.008144355709999999
8300.0 0.00848822459
8310.0 0.008859373265000001
8320.0 0.00925642967
8330.0 0.009682981834999998
8340.0 0.01014786355
8350.0 0.0106647911
8360.0 0.011251070255
8370.0 0.011925300764999999
8380.0 0.01270430534
8390.0 0.013599869964999999
8400.0 0.014615999285
8410.0 0.015747126955000003
8420.0 0.01697925248
8430.0 0.01829291669
8440.0 0.019666987165
8450.0 0.021082020255
8460.0 0.0225217995
8470.0 0.023972466025000003
8480.0 0.025419870924999997
8490.0 0.026846837925
8500.0 0.028232172525
8510.0 0.029552392964999997
8520.0 0.03078568152
8530.0 0.031916319825
8540.0 0.03293764689
8550.0 0.0338523501
8560.0 0.034670299205
8570.0 0.035405348715
8580.0 0.036072881859999996
8590.0 0.036689057385
8600.0 0.037271103459999996
8610.0 0.03783691901
8620.0 0.038402847565
8630.0 0.03898029681
8640.0 0.039573171964999994
8650.0 0.0401775746
8660.0 0.04078365387999999
8670.0 0.04137841423
8680.0 0.041948292624999994
8690.0 0.042480902165
8700.0 0.04296587355
8710.0 0.04339587164
8720.0 0.043765774835
8730.0 0.04407099746
8740.0 0.04430702853
8750.0 0.044469525355
8760.0 0.044554785444999995
8770.0 0.044560235389999994
8780.0 0.044484630195
8790.0 0.04432794464
8800.0 0.044091159394999996
8810.0 0.043776190209999996
8820.0 0.043386004315
8830.0 0.04292477659
8840.0 0.042397855615
8850.0 0.041811482855
8860.0 0.04117238817
8870.0 0.040487480869999995
8880.0 0.039763775995
8890.0 0.039008515565000006
8900.0 0.038229341725
8910.0 0.03743438841
8920.0 0.03668110193
8930.0 0.035944146855000005
8940.0 0.035216692929999995
8950.0 0.03450668009
8960.0 0.033821364905
8970.0 0.033167226005
8980.0 0.03255025702
8990.0 0.031976458369999995
9000.0 0.031451926505000005
9010.0 0.03098195617
9020.0 0.030569253664999994
9030.0 0.030212256805
9040.0 0.029904746919999996
9050.0 0.029637133620000002
9060.0 0.029398679489999996
9070.0 0.029179457065
9080.0 0.028971254809999996
9090.0 0.028767424344999997
9100.0 0.028562226665000003
9110.0 0.02835031125
9120.0 0.02812677572
9130.0 0.02788790934
9140.0 0.027632371084999996
9150.0 0.02736224403
9160.0 0.027083178910000002
9170.0 0.026803048245
9180.0 0.026529245859999998
9190.0 0.02626578222
9200.0 0.026011745524999998
9210.0 0.02576199914
9220.0 0.02550962745
9230.0 0.025248837129999997
9240.0 0.024977270595
9250.0 0.02469726312
