#lamb flux
1000.0 2.4871035520000005e-06
1010.0 3.0136462080000006e-06
1020.0 3.663525568e-06
1030.0 4.461696768e-06
1040.0 5.439163904e-06
1050.0 6.631349120000001e-06
1060.0 8.077793919999999e-06
1070.0 9.82145792e-06
1080.0 1.19075616e-05
1090.0 1.438196992e-05
1100.0 1.7289191679999997e-05
1110.0 2.0670128000000004e-05
1120.0 2.45597472e-05
1130.0 2.8984897279999998e-05
1140.0 3.396242112e-05
1150.0 3.949769152e-05
1160.0 4.5583640320000006e-05
1170.0 5.220025856e-05
1180.0 5.9314565120000005e-05
1190.0 6.68809984e-05
1200.0 7.484220800000001e-05
1210.0 8.313023359999999e-05
1220.0 9.16680384e-05
1230.0 0.0001003714176
1240.0 0.00010915116160000001
1250.0 0.00011791546880000003
1260.0 0.0001265724608
1270.0 0.0001350326912
1280.0 0.0001432115968
1290.0 0.0001510316672
1300.0 0.00015842437120000002
1310.0 0.00016533169920000002
1320.0 0.000171707296
1330.0 0.0001775171968
1340.0 0.0001827401664
1350.0 0.0001873676544
1360.0 0.00019140343040000002
1370.0 0.0001948629376
1380.0 0.00019777240960000003
1390.0 0.000200167776
1400.0 0.0002020934336
1410.0 0.00020360094079999999
1420.0 0.00020474756480000003
1430.0 0.0002055948288
1440.0 0.00020620705280000002
1450.0 0.0002066498688
1460.0 0.00020698880640000002
1470.0 0.00020728796800000002
1480.0 0.000207608736
1490.0 0.00020800865919999998
1500.0 0.0002085405312
1510.0 0.00020925153920000003
1520.0 0.0002101827712
1530.0 0.0002113688512
1540.0 0.0002128379136
1550.0 0.00021461181440000002
1560.0 0.00021670659839999998
1570.0 0.0002191332544
1580.0 0.000221898592
1590.0 0.0002250062656
1600.0 0.0002284578176
1610.0 0.0002322536256
1620.0 0.000236393728
1630.0 0.0002408783744
1640.0 0.00024570839040000006
1650.0 0.0002508852352
1660.0 0.000256410848
1670.0 0.0002622873984
1680.0 0.00026851683840000003
1690.0 0.0002751005056
1700.0 0.000282038688
1710.0 0.00028933024640000004
1720.0 0.0002969722816
1730.0 0.0003049598784
1740.0 0.0003132858368
1750.0 0.0003219405248
1760.0 0.0003309116864
1770.0 0.00034018435199999994
1780.0 0.00034974079360000003
1790.0 0.00035956054400000003
1800.0 0.00036962048639999995
1810.0 0.00037989502720000006
1820.0 0.0003903563264
1830.0 0.00040097452159999997
1840.0 0.000411718048
1850.0 0.00042255381119999996
1860.0 0.000433447424
1870.0 0.000444363328
1880.0 0.0004552648512
1890.0 0.0004661143168
1900.0 0.00047687304320000005
1910.0 0.000487501504
1920.0 0.0004979594496
1930.0 0.0005082062144
1940.0 0.000518201056
1950.0 0.0005279037184
1960.0 0.0005372749888
1970.0 0.0005462773888000001
1980.0 0.0005548758976
1990.0 0.0005630386496
2000.0 0.0005707376320000001
2010.0 0.0005779491392
2020.0 0.0005846543551999999
2030.0 0.0005908396416
2040.0 0.0005964966015999999
2050.0 0.0006016219904000001
2060.0 0.0006062178688
2070.0 0.0006102910080000001
2080.0 0.000613852608
2090.0 0.0006169179904
2100.0 0.0006195060288000001
2110.0 0.0006216388352
2120.0 0.0006233411072
2130.0 0.0006246398976
2140.0 0.0006255642688000001
2150.0 0.0006261448768
2160.0 0.0006264136320000001
2170.0 0.0006264036224
2180.0 0.0006261489024
2190.0 0.0006256842111999999
2200.0 0.0006250448512
2210.0 0.0006242666944
2220.0 0.0006233860416000001
2230.0 0.0006224396096
2240.0 0.0006214644096
2250.0 0.000620497664
2260.0 0.000619576896
2270.0 0.0006187396928000001
2280.0 0.0006180235904
2290.0 0.0006174660863999999
2300.0 0.0006171044352000001
2310.0 0.0006169757055999999
2320.0 0.00061711712
2330.0 0.0006175665408
2340.0 0.0006183640576
2350.0 0.0006195540032000001
2360.0 0.000621188672
2370.0 0.0006233335424
2380.0 0.0006260739968000001
2390.0 0.000629523936
2400.0 0.0006338349312000001
2410.0 0.0006392048959999999
2420.0 0.00064588416
2430.0 0.000654176192
2440.0 0.0006644298239999999
2450.0 0.000677020608
2460.0 0.000692319104
2470.0 0.000710646656
2480.0 0.00073222176
2490.0 0.000757102336
2500.0 0.0007851332479999999
2510.0 0.000815908864
2520.0 0.000848760768
2530.0 0.000882777792
2540.0 0.0009168611840000001
2550.0 0.000949809344
2560.0 0.0009804227199999998
2570.0 0.001007611648
2580.0 0.001030491008
2590.0 0.00104844768
2600.0 0.001061171264
2610.0 0.001068649344
2620.0 0.001071130432
2630.0 0.001069066944
2640.0 0.001063049024
2650.0 0.0010536192
2660.0 0.001035368512
2670.0 0.0009624071679999998
2680.0 0.000914704192
2690.0 0.001254935936
2700.0 0.0019993613439999998
2710.0 0.002877000064
2720.0 0.003484661952
2730.0 0.003690282368
2740.0 0.0037545223040000002
2750.0 0.0038369781119999996
2760.0 0.003868773952
2770.0 0.00386806016
2780.0 0.00396855232
2790.0 0.004259556096
2800.0 0.004393532416
2810.0 0.00437773664
2820.0 0.004306692928
2830.0 0.004111374592
2840.0 0.003936170176
2850.0 0.003931820032000001
2860.0 0.003955626047999999
2870.0 0.003968922752
2880.0 0.00402015616
2890.0 0.004267978816000001
2900.0 0.004706384064
2910.0 0.0051618431360000005
2920.0 0.005584208128
2930.0 0.005871901184000001
2940.0 0.005830720384
2950.0 0.005420105344
2960.0 0.005100028479999999
2970.0 0.0049662128
2980.0 0.004866057856
2990.0 0.004651089664
3000.0 0.004303572608
3010.0 0.003993069248
3020.0 0.0038057384320000004
3030.0 0.003783471168
3040.0 0.0037240148479999995
3050.0 0.003510853696
3060.0 0.0033960585600000003
3070.0 0.003383839744
3080.0 0.0034163123840000005
3090.0 0.003413940224
3100.0 0.0033885301120000003
3110.0 0.003504678784
3120.0 0.0037424115840000004
3130.0 0.003928476288
3140.0 0.003998156096000001
3150.0 0.004006115712
3160.0 0.0041157489279999996
3170.0 0.00438975808
3180.0 0.004730483392
3190.0 0.005000347392
3200.0 0.005157186304
3210.0 0.005155137216000001
3220.0 0.005001725952
3230.0 0.004725595392
3240.0 0.004424434816000001
3250.0 0.004146325184
3260.0 0.003942146816
3270.0 0.00387475456
3280.0 0.0038732372480000006
3290.0 0.003843583168
3300.0 0.0038271852160000003
3310.0 0.0038761987840000003
3320.0 0.003974151488
3330.0 0.004062309504
3340.0 0.0041185983999999995
3350.0 0.004174244287999999
3360.0 0.004285489408
3370.0 0.004456149312
3380.0 0.00464462112
3390.0 0.004817845247999999
3400.0 0.0049656508160000005
3410.0 0.005132659072
3420.0 0.005335903424
3430.0 0.005521479231999999
3440.0 0.005658296704
3450.0 0.00573942976
3460.0 0.005768992192
3470.0 0.0057933475199999996
3480.0 0.0058450865920000004
3490.0 0.005945044288
3500.0 0.006132910272
3510.0 0.00643604992
3520.0 0.00681192896
3530.0 0.0072071897600000006
3540.0 0.00758663808
3550.0 0.00792059776
3560.0 0.00820326976
3570.0 0.00845596672
3580.0 0.00866861696
3590.0 0.00879910656
3600.0 0.00883169408
3610.0 0.008777390080000001
3620.0 0.00870144
3630.0 0.008681250560000001
3640.0 0.00878510016
3650.0 0.009063666560000001
3660.0 0.009550400640000001
3670.0 0.01023377728
3680.0 0.01102252736
3690.0 0.0118257984
3700.0 0.01260591424
3710.0 0.01336134912
3720.0 0.013967339520000002
3730.0 0.01415697984
3740.0 0.013875255679999999
3750.0 0.013253782399999999
3760.0 0.012362487039999998
3770.0 0.011228817280000001
3780.0 0.00995064384
3790.0 0.0086982304
3800.0 0.007628134400000001
3810.0 0.00687334208
3820.0 0.00658206016
3830.0 0.00686457664
3840.0 0.0077507891200000005
3850.0 0.009165654399999999
3860.0 0.01093832704
3870.0 0.01287883392
3880.0 0.014851936000000001
3890.0 0.01680005184
3900.0 0.0187091872
3910.0 0.020542497920000003
3920.0 0.022207548800000004
3930.0 0.023597731200000003
3940.0 0.02465419968
3950.0 0.025372282240000002
3960.0 0.02577599808
3970.0 0.025894578560000003
3980.0 0.02573977472
3990.0 0.0252853088
4000.0 0.024484082560000002
4010.0 0.02333664896
4020.0 0.02194789696
4030.0 0.020496449920000003
4040.0 0.0191503904
4050.0 0.018022632960000003
4060.0 0.017164869760000003
4070.0 0.016550339200000003
4080.0 0.016076132479999998
4090.0 0.015631037440000002
4100.0 0.015181224960000001
4110.0 0.0147809376
4120.0 0.014501365760000001
4130.0 0.01436407552
4140.0 0.0143355808
4150.0 0.01436776576
4160.0 0.01444151936
4170.0 0.01457647424
4180.0 0.01479794432
4190.0 0.015092283520000001
4200.0 0.015399208959999999
4210.0 0.0156523744
4220.0 0.0158247968
4230.0 0.01593721792
4240.0 0.0160322688
4250.0 0.016142944
4260.0 0.01628144576
4270.0 0.016454335360000003
4280.0 0.01667762624
4290.0 0.01696302656
4300.0 0.0172896768
4310.0 0.01759720384
4320.0 0.017800573440000002
4330.0 0.01780498176
4340.0 0.01752474176
4350.0 0.01691854464
4360.0 0.01602057792
4370.0 0.014933598079999999
4380.0 0.013785167999999999
4390.0 0.012685310080000001
4400.0 0.01171408192
4410.0 0.010928566400000003
4420.0 0.010367955199999999
4430.0 0.01005519168
4440.0 0.009999498879999999
4450.0 0.0101980512
4460.0 0.010634717439999998
4470.0 0.01128007424
4480.0 0.012100216959999998
4490.0 0.013072869119999999
4500.0 0.01419721728
4510.0 0.015487364480000002
4520.0 0.016955159039999997
4530.0 0.01859559424
4540.0 0.02038188544
4550.0 0.02226702464
4560.0 0.024184604160000005
4570.0 0.0260516032
4580.0 0.0277826944
4590.0 0.02930973184
4600.0 0.03058630848
4610.0 0.03157521344
4620.0 0.03223561344
4630.0 0.03252190656
4640.0 0.032386352
4650.0 0.031781980159999994
4660.0 0.03068057344
4670.0 0.029107582719999997
4680.0 0.02716450048
4690.0 0.02501258112
4700.0 0.0228301504
4710.0 0.0207731456
4720.0 0.01895015808
4730.0 0.0174092736
4740.0 0.01614211456
4750.0 0.01511298944
4760.0 0.01430039808
4770.0 0.01371856768
4780.0 0.013401767039999998
4790.0 0.013368314239999998
4800.0 0.013591347200000001
4810.0 0.0139927456
4820.0 0.0144573856
4830.0 0.01486323328
4840.0 0.0151255808
4850.0 0.015240737280000001
4860.0 0.01529778048
4870.0 0.01544037696
4880.0 0.01580100416
4890.0 0.01645085056
4900.0 0.0173869632
4910.0 0.01854481024
4920.0 0.01981506176
4930.0 0.021056001919999998
4940.0 0.02210595584
4950.0 0.022803105920000004
4960.0 0.023014933120000004
4970.0 0.022672816000000002
4980.0 0.02180205376
4990.0 0.020527438079999998
5000.0 0.019047583360000002
5010.0 0.017579983360000002
5020.0 0.016299405439999998
5030.0 0.01529989376
5040.0 0.0145940704
5050.0 0.01414039872
5060.0 0.01387784256
5070.0 0.0137504608
5080.0 0.01371592
5090.0 0.01374318656
5100.0 0.013807960320000002
5110.0 0.013890329600000001
5120.0 0.0139752352
5130.0 0.01405587328
5140.0 0.014138611839999999
5150.0 0.014244428160000001
5160.0 0.0144028224
5170.0 0.01464124096
5180.0 0.014977632640000002
5190.0 0.01541896704
5200.0 0.01596264
5210.0 0.016595852159999997
5220.0 0.01729474688
5230.0 0.01802910208
5240.0 0.0187725984
5250.0 0.01951112704
5260.0 0.02024164736
5270.0 0.02096246656
5280.0 0.021663824
5290.0 0.022326638080000002
5300.0 0.02292803648
5310.0 0.023445712640000005
5320.0 0.023860825599999996
5330.0 0.024170710399999996
5340.0 0.024403028480000002
5350.0 0.02459782592
5360.0 0.024767984
5370.0 0.02489171968
5380.0 0.024940877440000002
5390.0 0.024905764480000002
5400.0 0.02480542912
5410.0 0.024687412479999997
5420.0 0.024616009600000002
5430.0 0.02465313664
5440.0 0.02484013376
5450.0 0.02518739968
5460.0 0.025673603200000002
5470.0 0.02625269184
5480.0 0.02686496192
5490.0 0.02744727552
5500.0 0.02793897088
5510.0 0.028284490880000002
5520.0 0.028436897920000002
5530.0 0.0283637152
5540.0 0.028051443840000002
5550.0 0.02750464576
5560.0 0.0267403552
5570.0 0.02578230976
5580.0 0.02465806976
5590.0 0.02339997056
5600.0 0.02204430784
5610.0 0.020627750400000002
5620.0 0.019186596480000002
5630.0 0.01775796736
5640.0 0.016382565760000002
5650.0 0.015107256320000002
5660.0 0.01398535232
5670.0 0.013073405440000001
5680.0 0.01242489792
5690.0 0.01208275072
5700.0 0.01207315008
5710.0 0.0124025024
5720.0 0.01305761664
5730.0 0.01400786176
5740.0 0.015208009599999999
5750.0 0.016601126400000003
5760.0 0.018121488
5770.0 0.019697944319999997
5780.0 0.02125808128
5790.0 0.022732632959999995
5800.0 0.024059088639999997
5810.0 0.025184565760000003
5820.0 0.02606926144
5830.0 0.02669076032
5840.0 0.02704697344
5850.0 0.02715433472
5860.0 0.02704246912
5870.0 0.026748823680000002
5880.0 0.026312407040000003
5890.0 0.02576762688
5900.0 0.02513869952
5910.0 0.02443660928
5920.0 0.023660856320000003
5930.0 0.022806099200000002
5940.0 0.021870914560000003
5950.0 0.020864829440000003
5960.0 0.01981104896
5970.0 0.01874450496
5980.0 0.01770647168
5990.0 0.01673775232
6000.0 0.01587249792
6010.0 0.01513415424
6020.0 0.014534047999999999
6030.0 0.0140721312
6040.0 0.01373879936
6050.0 0.0135169536
6060.0 0.01338455936
6070.0 0.013318647040000001
6080.0 0.0133006048
6090.0 0.013320506880000001
6100.0 0.013377637760000002
6110.0 0.01347650624
6120.0 0.01362098112
6130.0 0.01381018944
6140.0 0.014037863040000001
6150.0 0.014293893120000001
6160.0 0.01456561856
6170.0 0.014837312640000001
6180.0 0.015088291839999999
6190.0 0.015291594240000001
6200.0 0.015415349759999999
6210.0 0.01542774144
6220.0 0.015304336640000001
6230.0 0.015035133440000003
6240.0 0.0146286816
6250.0 0.01411214848
6260.0 0.01352771776
6270.0 0.01292652224
6280.0 0.01236160064
6290.0 0.01188167488
6300.0 0.011527404160000001
6310.0 0.011329695360000001
6320.0 0.011306617599999999
6330.0 0.01145736256
6340.0 0.011760170240000001
6350.0 0.012182056960000002
6360.0 0.012694810240000002
6370.0 0.013282449280000002
6380.0 0.01393653888
6390.0 0.01464846656
6400.0 0.015404928640000003
6410.0 0.01618584
6420.0 0.0169644352
6430.0 0.01771122688
6440.0 0.01839980096
6450.0 0.01900954176
6460.0 0.01952411456
6470.0 0.019929071359999998
6480.0 0.020211320319999997
6490.0 0.020360354560000002
6500.0 0.020369868800000003
6510.0 0.02023872576
6520.0 0.01997088832
6530.0 0.01957455936
6540.0 0.01906106368
6550.0 0.018443843839999998
6560.0 0.01773783616
6570.0 0.01695867072
6580.0 0.01612211776
6590.0 0.015244336640000003
6600.0 0.01434235776
6610.0 0.013434147839999999
6620.0 0.01253782144
6630.0 0.01167016192
6640.0 0.010845039999999999
6650.0 0.0100724192
6660.0 0.00935828096
6670.0 0.008705418880000001
6680.0 0.00811463104
6690.0 0.00758575488
6700.0 0.0071181657600000005
6710.0 0.006710688
6720.0 0.006361246847999999
6730.0 0.006066657152
6740.0 0.005822806016000001
6750.0 0.005625167744
6760.0 0.005469345728
6770.0 0.005351372480000001
6780.0 0.005267751424
6790.0 0.0052154201599999995
6800.0 0.005191759552
6810.0 0.005194576512
6820.0 0.00522194144
6830.0 0.005271913727999999
6840.0 0.005342352000000001
6850.0 0.0054309814400000005
6860.0 0.005535596544
6870.0 0.005653923776
6880.0 0.00578308384
6890.0 0.005918838656
6900.0 0.006055193087999999
6910.0 0.006184881472
6920.0 0.006300754303999999
6930.0 0.006397476096
6940.0 0.0064727552
6950.0 0.00652760448
6960.0 0.006565692800000001
6970.0 0.00659227264
6980.0 0.00661316736
6990.0 0.00663405888
7000.0 0.00666000576
7010.0 0.00669508864
7020.0 0.0067421849600000005
7030.0 0.0068029792
7040.0 0.006878230400000001
7050.0 0.00696815616
7060.0 0.00707271936
7070.0 0.0071917184
7080.0 0.00732472256
7090.0 0.0074710092799999996
7100.0 0.0076296153600000005
7110.0 0.00779952768
7120.0 0.00797990208
7130.0 0.00817016384
7140.0 0.00836969472
7150.0 0.008577525119999999
7160.0 0.0087922112
7170.0 0.00901157248
7180.0 0.00923250624
7190.0 0.009450885760000001
7200.0 0.00966154496
7210.0 0.009858415360000001
7220.0 0.010034867840000001
7230.0 0.010184281600000001
7240.0 0.010300864000000002
7250.0 0.010380625919999999
7260.0 0.010422373759999999
7270.0 0.01042842496
7280.0 0.010404697600000002
7290.0 0.010360035840000002
7300.0 0.0103048832
7310.0 0.0102486816
7320.0 0.01019991744
7330.0 0.01016721216
7340.0 0.010154827520000001
7350.0 0.0101641728
7360.0 0.010193926399999999
7370.0 0.01024038912
7380.0 0.01029800576
7390.0 0.010359951999999999
7400.0 0.01041860032
7410.0 0.01046585664
7420.0 0.01049357632
7430.0 0.01049369664
7440.0 0.01045885312
7450.0 0.010383370239999998
7460.0 0.01026438912
7470.0 0.010103089919999999
7480.0 0.0099059968
7490.0 0.00968596224
7500.0 0.009461744
7510.0 0.00925489152
7520.0 0.009084028800000001
7530.0 0.00895917696
7540.0 0.008879995520000001
7550.0 0.00883926016
7560.0 0.00882827584
7570.0 0.008839737600000001
7580.0 0.00886741632
7590.0 0.008905751679999999
7600.0 0.00895130176
7610.0 0.009004684800000001
7620.0 0.00907065216
7630.0 0.00915571264
7640.0 0.00926453888
7650.0 0.009396936320000002
7660.0 0.00954662528
7670.0 0.009702084480000001
7680.0 0.00984884672
7690.0 0.00997230592
7700.0 0.010060190719999999
7710.0 0.01010416832
7720.0 0.01010027968
7730.0 0.010048591360000001
7740.0 0.009952701440000001
7750.0 0.00981913344
7760.0 0.009656654720000001
7770.0 0.00947516416
7780.0 0.00928401792
7790.0 0.009090138880000001
7800.0 0.008896666880000001
7810.0 0.00870281792
7820.0 0.008505067520000001
7830.0 0.00829909184
7840.0 0.00808156288
7850.0 0.007851064960000001
7860.0 0.00760798784
7870.0 0.00735382848
7880.0 0.0070905171200000006
7890.0 0.00682019328
7900.0 0.00654542976
7910.0 0.00626962016
7920.0 0.005995386752
7930.0 0.0057299036800000005
7940.0 0.005478377856
7950.0 0.0052451402240000005
7960.0 0.005032935808
7970.0 0.004842654016000001
7980.0 0.004673626816
7990.0 0.004524323968
8000.0 0.00439308
8010.0 0.004278486208000001
8020.0 0.004179275584
8030.0 0.004093810048
8040.0 0.004019487104
8050.0 0.00395241344
8060.0 0.003887539648
8070.0 0.0038192115200000004
8080.0 0.003741903104
8090.0 0.0036508556800000005
8100.0 0.0035424773120000005
8110.0 0.003414557312
8120.0 0.0032664807680000004
8130.0 0.003099583552
8140.0 0.002917585088
8150.0 0.002726807808
8160.0 0.0025358158720000003
8170.0 0.002354285248
8180.0 0.002191287232
8190.0 0.002053524224
8200.0 0.0019441639039999997
8210.0 0.0018627032320000004
8220.0 0.0018058683520000003
8230.0 0.001769149248
8240.0 0.0017483676800000001
8250.0 0.0017407419520000002
8260.0 0.0017451675520000001
8270.0 0.0017617640960000001
8280.0 0.001791017984
8290.0 0.0018329860479999998
8300.0 0.001886950784
8310.0 0.00195165152
8320.0 0.002025917696
8330.0 0.002109361856
8340.0 0.0022028240000000004
8350.0 0.0023084234879999998
8360.0 0.0024292435200000003
8370.0 0.002568759296
8380.0 0.0027301352320000002
8390.0 0.002915513728
8400.0 0.0031254285440000004
8410.0 0.0033584595839999997
8420.0 0.003611180672
8430.0 0.003878357632
8440.0 0.004153296256000001
8450.0 0.004428260608
8460.0 0.00469495712
8470.0 0.004945147584
8480.0 0.005171445312000001
8490.0 0.005368250432000001
8500.0 0.00553264512
8510.0 0.005664972608
8520.0 0.005768844928
8530.0 0.005850452032
8540.0 0.005917287808
8550.0 0.0059766327679999995
8560.0 0.006034242432
8570.0 0.006093629696
8580.0 0.006156096256
8590.0 0.0062214122880000005
8600.0 0.0062888097920000005
8610.0 0.006357867328
8620.0 0.00642893888
8630.0 0.00650295744
8640.0 0.00658075968
8650.0 0.0066622784
8660.0 0.006746072320000001
8670.0 0.00682950272
8680.0 0.006909546880000001
8690.0 0.00698389312
8700.0 0.007051761280000001
8710.0 0.00711398592
8720.0 0.00717224768
8730.0 0.007227811840000001
8740.0 0.007280372479999999
8750.0 0.00732759104
8760.0 0.007365522560000001
8770.0 0.00738968768
8780.0 0.0073962700800000005
8790.0 0.00738293376
8800.0 0.0073490438400000005
8810.0 0.00729540096
8820.0 0.00722375168
8830.0 0.007136356480000001
8840.0 0.007035716480000001
8850.0 0.0069244441599999994
8860.0 0.0068051577600000005
8870.0 0.0066803398400000005
8880.0 0.006552144639999999
8890.0 0.00642223168
8900.0 0.0062916970240000005
8910.0 0.0061611632640000006
8920.0 0.006031003904
8930.0 0.005901624192
8940.0 0.005773705728
8950.0 0.005648343936
8960.0 0.005527054528
8970.0 0.0054116660480000005
8980.0 0.005304131520000001
8990.0 0.0052063102080000005
9000.0 0.005119786624
9010.0 0.005045787328
9020.0 0.004985228992000001
9030.0 0.004938869184
9040.0 0.004907472320000001
9050.0 0.00489188096
9060.0 0.00489292928
9070.0 0.004911207552
9080.0 0.004946756288000001
9090.0 0.00499880064
9100.0 0.005065623168
9110.0 0.0051446405119999995
9120.0 0.005232704128
9130.0 0.005326597504
9140.0 0.005423638848
9150.0 0.005522236991999999
9160.0 0.0056222009600000004
9170.0 0.0057246298239999995
9180.0 0.005831312768
9190.0 0.005943767104
9200.0 0.006062212864000001
9210.0 0.006184890112
9220.0 0.006308054848
9230.0 0.00642676352
9240.0 0.00653622592
9250.0 0.006633195519999999
9260.0 0.00671675008
9270.0 0.0067880224000000005
9280.0 0.006849008
