#lamb flux
1000.0 8.879385504000002e-06
1010.0 1.0758107568e-05
1020.0 1.3076325030000003e-05
1030.0 1.592270247e-05
1040.0 1.9407321030000003e-05
1050.0 2.365579275e-05
1060.0 2.8808124150000006e-05
1070.0 3.501612993e-05
1080.0 4.243920387e-05
1090.0 5.123846136000001e-05
1100.0 6.156950442e-05
1110.0 7.357429983e-05
1120.0 8.737282305000001e-05
1130.0 0.00010305521495999999
1140.0 0.00012067504860000002
1150.0 0.00014024414880000003
1160.0 0.0001617291756
1170.0 0.00018505000920000003
1180.0 0.0002100797655
1190.0 0.00023664639450000005
1200.0 0.0002645357661
1210.0 0.0002934961323
1220.0 0.00032324392140000005
1230.0 0.0003534708198
1240.0 0.0003838518417
1250.0 0.0004140541314
1260.0 0.00044374623180000006
1270.0 0.000472607253
1280.0 0.0005003356413
1290.0 0.0005266571046
1300.0 0.0005513313723
1310.0 0.0005741576676
1320.0 0.0005949786258000001
1330.0 0.0006136828584
1340.0 0.0006302060964
1350.0 0.0006445311458999999
1360.0 0.0006566871
1370.0 0.0006667478292
1380.0 0.000674830494
1390.0 0.0006810942018000001
1400.0 0.0006857394741000001
1410.0 0.0006890086017000001
1420.0 0.0006911870211
1430.0 0.000692605479
1440.0 0.0006936421857
1450.0 0.0006947235032999999
1460.0 0.0006963211596000001
1470.0 0.0006989436567
1480.0 0.0007031194212000001
1490.0 0.0007093697424000001
1500.0 0.0007181712099
1510.0 0.0007299092601000001
1520.0 0.0007448272383000001
1530.0 0.0007629775809
1540.0 0.0007841841753000002
1550.0 0.0008080245999000002
1560.0 0.0008338399920000002
1570.0 0.0008607763398
1580.0 0.0008878560219000002
1590.0 0.0009140726235
1600.0 0.0009384972633000001
1610.0 0.0009603814128000002
1620.0 0.0009792417225
1630.0 0.0009949140012000001
1640.0 0.0010075702989
1650.0 0.0010176981054000002
1660.0 0.0010260475032
1670.0 0.0010335560982000001
1680.0 0.0010412633943000002
1690.0 0.0010502257785
1700.0 0.0010614407745
1710.0 0.0010757843499000002
1720.0 0.0010939635081
1730.0 0.0011164819560000002
1740.0 0.0011436176820000003
1750.0 0.0011754087480000002
1760.0 0.00121164936
1770.0 0.0012518948520000002
1780.0 0.0012954794460000002
1790.0 0.0013415474430000002
1800.0 0.001389100065
1810.0 0.0014370555060000002
1820.0 0.0014843187510000001
1830.0 0.001529855502
1840.0 0.0015727618860000001
1850.0 0.001612322619
1860.0 0.001648051521
1870.0 0.0016797093870000001
1880.0 0.001707299436
1890.0 0.0017310422250000003
1900.0 0.001751332803
1910.0 0.00176868954
1920.0 0.0017836976280000002
1930.0 0.0017969552460000004
1940.0 0.0018090266070000002
1950.0 0.001820404329
1960.0 0.001831484016
1970.0 0.001842550494
1980.0 0.0018537752580000003
1990.0 0.001865224242
2000.0 0.001876872138
2010.0 0.00188862393
2020.0 0.001900336983
2030.0 0.0019118451300000003
2040.0 0.0019229786519999999
2050.0 0.001933582482
2060.0 0.00194352786
2070.0 0.0019527203250000002
2080.0 0.0019611020460000004
2090.0 0.0019686509340000003
2100.0 0.0019753766460000005
2110.0 0.0019813157010000002
2120.0 0.001986524931
2130.0 0.001991074821
2140.0 0.0019950440700000002
2150.0 0.001998513264
2160.0 0.0020015602140000003
2170.0 0.0020042560710000004
2180.0 0.002006663439
2190.0 0.0020088360420000002
2200.0 0.002010821166
2210.0 0.002012664432
2220.0 0.002014416123
2230.0 0.002016138399
2240.0 0.002017911624
2250.0 0.0020198369190000003
2260.0 0.0020220357180000003
2270.0 0.0020246427750000005
2280.0 0.0020277940650000005
2290.0 0.002031610467
2300.0 0.002036181447
2310.0 0.0020415491850000003
2320.0 0.0020476996950000003
2330.0 0.0020545634910000003
2340.0 0.002062027131
2350.0 0.002069958081
2360.0 0.0020782393470000003
2370.0 0.002086811544
2380.0 0.0020957149650000003
2390.0 0.002105127321
2400.0 0.0021153846090000003
2410.0 0.002126982444
2420.0 0.002140549419
2430.0 0.002156790828
2440.0 0.002176406082
2450.0 0.0021999870330000003
2460.0 0.0022279099709999997
2470.0 0.0022602400530000004
2480.0 0.00229666548
2490.0 0.0023364809580000002
2500.0 0.0023786289899999998
2510.0 0.0024218022180000007
2520.0 0.002464596048
2530.0 0.00250568847
2540.0 0.0025440177690000004
2550.0 0.0025789252710000004
2560.0 0.0026102365950000004
2570.0 0.002638267203
2580.0 0.0026637540240000003
2590.0 0.0026877312450000004
2600.0 0.0027113752440000006
2610.0 0.0027358506330000002
2620.0 0.0027621811650000005
2630.0 0.002791160379
2640.0 0.002823313305
2650.0 0.002860254216
2660.0 0.002973192498
2670.0 0.00381556284
2680.0 0.0057954772770000005
2690.0 0.007293359118000001
2700.0 0.008098033305
2710.0 0.008549569095
2720.0 0.008841167094000001
2730.0 0.009094209132000002
2740.0 0.00928881411
2750.0 0.009527293725
2760.0 0.009837355685999999
2770.0 0.009957469119000001
2780.0 0.009876903099000002
2790.0 0.009750336903000001
2800.0 0.009598641084
2810.0 0.009547139304000002
2820.0 0.009742236123000002
2830.0 0.009926335617000001
2840.0 0.010000165491
2850.0 0.010305052965000002
2860.0 0.011035925028
2870.0 0.01220777112
2880.0 0.013383373230000002
2890.0 0.014261361030000001
2900.0 0.01480445295
2910.0 0.01470806055
2920.0 0.01392060102
2930.0 0.01343471184
2940.0 0.01328857701
2950.0 0.01300453023
2960.0 0.012580924260000001
2970.0 0.012211738260000002
2980.0 0.011914938690000001
2990.0 0.011650029420000001
3000.0 0.011350677960000001
3010.0 0.011019468612000002
3020.0 0.010833972072
3030.0 0.010901923497000001
3040.0 0.010823389887
3050.0 0.01051531416
3060.0 0.010690379142
3070.0 0.01141384695
3080.0 0.011945676810000002
3090.0 0.01200789342
3100.0 0.011843766600000001
3110.0 0.011785630350000001
3120.0 0.011953753170000001
3130.0 0.01207996239
3140.0 0.012081547470000002
3150.0 0.01230810735
3160.0 0.01271182323
3170.0 0.013095223890000002
3180.0 0.013518460230000001
3190.0 0.014042996280000001
3200.0 0.014337926610000003
3210.0 0.014041628760000001
3220.0 0.01329904542
3230.0 0.012445591950000003
3240.0 0.011709365580000002
3250.0 0.01127775318
3260.0 0.01116873342
3270.0 0.01128449865
3280.0 0.011403522840000001
3290.0 0.011267795370000002
3300.0 0.01118094675
3310.0 0.011371837890000002
3320.0 0.011617561920000002
3330.0 0.01178736306
3340.0 0.011829626310000002
3350.0 0.011859404280000003
3360.0 0.012126832140000002
3370.0 0.012547247970000001
3380.0 0.013052826330000001
3390.0 0.01366059684
3400.0 0.014296516950000001
3410.0 0.014880746580000003
3420.0 0.01532656143
3430.0 0.01560706842
3440.0 0.01580918832
3450.0 0.016046621759999997
3460.0 0.016349884860000004
3470.0 0.0167229159
3480.0 0.01724166996
3490.0 0.01800435984
3500.0 0.01897435221
3510.0 0.02000286822
3520.0 0.0209530038
3530.0 0.02164731657
3540.0 0.02206927308
3550.0 0.02247297564
3560.0 0.02297954634
3570.0 0.02356433763
3580.0 0.02414538156
3590.0 0.024566760870000003
3600.0 0.02455097445
3610.0 0.023916214290000005
3620.0 0.023199666000000004
3630.0 0.023232176790000003
3640.0 0.02423524272
3650.0 0.025957701870000002
3660.0 0.028055409840000003
3670.0 0.03017732469
3680.0 0.031962724170000005
3690.0 0.03309205926
3700.0 0.03337265505
3710.0 0.032779798500000006
3720.0 0.03148905609
3730.0 0.029795955330000005
3740.0 0.0279030246
3750.0 0.025828837530000006
3760.0 0.02361558411
3770.0 0.021487937220000003
3780.0 0.0197187171
3790.0 0.01850291523
3800.0 0.017987300250000005
3810.0 0.01833473136
3820.0 0.019779588390000002
3830.0 0.02255877531
3840.0 0.026633755140000007
3850.0 0.031561984200000004
3860.0 0.036741434010000004
3870.0 0.04175467353
3880.0 0.04646732838
3890.0 0.050855263830000004
3900.0 0.05483030259000001
3910.0 0.05828282217
3920.0 0.06121862898000001
3930.0 0.06373431411000001
3940.0 0.06586298775
3950.0 0.06748750716000002
3960.0 0.06837096948
3970.0 0.06826834998
3980.0 0.06704760195000001
3990.0 0.06475360380000002
4000.0 0.06162699798
4010.0 0.05806631778
4020.0 0.054534873870000014
4030.0 0.05144120952
4040.0 0.04901123082
4050.0 0.047219477700000005
4060.0 0.04584900621
4070.0 0.04463291685
4080.0 0.043400248530000005
4090.0 0.04216525143
4100.0 0.04108420134000001
4110.0 0.04030615128000001
4120.0 0.03986084259
4130.0 0.03970353783
4140.0 0.039817702440000005
4150.0 0.04021581615000001
4160.0 0.04087632720000001
4170.0 0.04171955757
4180.0 0.04261600800000001
4190.0 0.043417727700000006
4200.0 0.04402462797000001
4210.0 0.04442992005000001
4220.0 0.044691350580000004
4230.0 0.04487623107000001
4240.0 0.045049461000000006
4250.0 0.045286391610000004
4260.0 0.04563944709000001
4270.0 0.046114665840000006
4280.0 0.04669888104
4290.0 0.04736523957
4300.0 0.048000394890000006
4310.0 0.04834602336
4320.0 0.048067916190000004
4330.0 0.046926453240000006
4340.0 0.04492363806
4350.0 0.04231678641
4360.0 0.03948134469
4370.0 0.0367299333
4380.0 0.03423246549
4390.0 0.03206466213
4400.0 0.030286819530000005
4410.0 0.028970177490000002
4420.0 0.028188436680000005
4430.0 0.02799192672
4440.0 0.02837877726
4450.0 0.02929535532
4460.0 0.03067018578
4470.0 0.032451147480000005
4480.0 0.03462564414
4490.0 0.03722662611
4500.0 0.04032413439
4510.0 0.04399925115
4520.0 0.04831197855
4530.0 0.05327241648
4540.0 0.05880274062
4550.0 0.06469299225000001
4560.0 0.07060264890000001
4570.0 0.07613813898
4580.0 0.08095084257
4590.0 0.08479013721000002
4600.0 0.08751214470000002
4610.0 0.08906298009000001
4620.0 0.08939055663
4630.0 0.0883765683
4640.0 0.08587303101
4650.0 0.08184284079000001
4660.0 0.07649206248000001
4670.0 0.07027469385000001
4680.0 0.06376759080000001
4690.0 0.057513687630000004
4700.0 0.05191720416000001
4710.0 0.047204370600000004
4720.0 0.04343531121
4730.0 0.04056362688000001
4740.0 0.03852350904
4750.0 0.037289453220000005
4760.0 0.03687095658000001
4770.0 0.037261415730000004
4780.0 0.038377960290000006
4790.0 0.04002493722
4800.0 0.04189941531000001
4810.0 0.043647343410000004
4820.0 0.04497544731
4830.0 0.04577642886
4840.0 0.04618965633000001
4850.0 0.046547866650000005
4860.0 0.04724627088
4870.0 0.04861657476
4880.0 0.05085076833000001
4890.0 0.05396794914
4900.0 0.05780247078000001
4910.0 0.06200446458
4920.0 0.06606422964
4930.0 0.06938034687000001
4940.0 0.07137683505
4950.0 0.07164730098000001
4960.0 0.07008090672
4970.0 0.06691842792000001
4980.0 0.06269479911
4990.0 0.058071111870000004
5000.0 0.0536428368
5010.0 0.04980570888000001
5020.0 0.046723277730000005
5030.0 0.04437642138
5040.0 0.042642402690000004
5050.0 0.04136649876000001
5060.0 0.0404104491
5070.0 0.03967271424
5080.0 0.03908838915000001
5090.0 0.038623486740000004
5100.0 0.03827143026
5110.0 0.03804949797
5120.0 0.037990886640000006
5130.0 0.038134338600000005
5140.0 0.03851775813000001
5150.0 0.039178034970000004
5160.0 0.040151219700000004
5170.0 0.04146556626
5180.0 0.04312791447
5190.0 0.04511191071000001
5200.0 0.04735986939
5210.0 0.04979721738000001
5220.0 0.05234852574000001
5230.0 0.05494812243000001
5240.0 0.05754291282
5250.0 0.06008936493
5260.0 0.06254726457000001
5270.0 0.0648720519
5280.0 0.06700843782
5290.0 0.06889130862000001
5300.0 0.07045986738
5310.0 0.07168305297
5320.0 0.07258347609000002
5330.0 0.0732438162
5340.0 0.07378910481
5350.0 0.07435405596000001
5360.0 0.07505411187000002
5370.0 0.07597427744999999
5380.0 0.0771762243
5390.0 0.07871367975
5400.0 0.080644386
5410.0 0.08303034876000001
5420.0 0.0859233018
5430.0 0.08933738874000001
5440.0 0.09321905208000002
5450.0 0.09743264427000002
5460.0 0.10177619748
5470.0 0.10602139692000001
5480.0 0.10995496608000002
5490.0 0.11340420450000002
5500.0 0.11624574900000002
5510.0 0.11840045880000002
5520.0 0.1198141659
5530.0 0.12043939560000003
5540.0 0.12024527880000001
5550.0 0.1192442253
5560.0 0.11749247880000001
5570.0 0.11506243350000002
5580.0 0.1120221546
5590.0 0.10843721646
5600.0 0.10438198353
5610.0 0.09994342986
5620.0 0.09522164415
5630.0 0.0903348969
5640.0 0.08542862586
5650.0 0.08067823212000001
5660.0 0.07627777698
5670.0 0.07241778306
5680.0 0.06926212854
5690.0 0.06693239283
5700.0 0.06550290486000002
5710.0 0.06500404755
5720.0 0.06542660568
5730.0 0.06672009534000001
5740.0 0.06878470311000001
5750.0 0.0714646527
5760.0 0.07455291357
5770.0 0.07781038728
5780.0 0.080993148
5790.0 0.08387793921
5800.0 0.08628072513000001
5810.0 0.08806833018
5820.0 0.08916335184
5830.0 0.08954131350000001
5840.0 0.08922153138000002
5850.0 0.08825837994
5860.0 0.08673738579000001
5870.0 0.08477137377000002
5880.0 0.08248920489
5890.0 0.08001301023000001
5900.0 0.07743063075
5910.0 0.07477912713
5920.0 0.07205247651000002
5930.0 0.0692311218
5940.0 0.06631598541
5950.0 0.06334859355
5960.0 0.06041058672
5970.0 0.057607408260000006
5980.0 0.055044959940000006
5990.0 0.05280730983000002
6000.0 0.05094207027000001
6010.0 0.04945705788
6020.0 0.04832668272000001
6030.0 0.0475028385
6040.0 0.0469259271
6050.0 0.04653449448
6060.0 0.04627271097
6070.0 0.04609503771
6080.0 0.04596655077
6090.0 0.04586109522
6100.0 0.04576226748000001
6110.0 0.04566768882
6120.0 0.04559388603
6130.0 0.045576992940000005
6140.0 0.04566517911000001
6150.0 0.0459023073
6160.0 0.046306994430000005
6170.0 0.04685517126
6180.0 0.047475017460000005
6190.0 0.048060761130000004
6200.0 0.048505401600000005
6210.0 0.048738893430000006
6220.0 0.04874224896000001
6230.0 0.04852075401
6240.0 0.048073028850000005
6250.0 0.04741093494
6260.0 0.04661117439
6270.0 0.045823702650000006
6280.0 0.04522133895
6290.0 0.04494555168
6300.0 0.04508591229
6310.0 0.045682377450000006
6320.0 0.04673026074000001
6330.0 0.04818630435
6340.0 0.049988085210000005
6350.0 0.05208005448000001
6360.0 0.05442314460000001
6370.0 0.05698429755
6380.0 0.059720846040000004
6390.0 0.06257596695
6400.0 0.0654880575
6410.0 0.06840171537000002
6420.0 0.07126610922000001
6430.0 0.07402491099
6440.0 0.07661522142000002
6450.0 0.07897922394000001
6460.0 0.08107417467000001
6470.0 0.08287022903999999
6480.0 0.0843409857
6490.0 0.08545760241000001
6500.0 0.08619157437000001
6510.0 0.08652301038000001
6520.0 0.08644769244
6530.0 0.08597821239000002
6540.0 0.08513865723
6550.0 0.08395553154000002
6560.0 0.08244988536000002
6570.0 0.08063758614000001
6580.0 0.07852993701000001
6590.0 0.07613996271000001
6600.0 0.07349099877000001
6610.0 0.07062096057
6620.0 0.06758124777
6630.0 0.06443247636
6640.0 0.06123965682000001
6650.0 0.05806804161
6660.0 0.05497967085000001
6670.0 0.05203063839000001
6680.0 0.04926919926
6690.0 0.04673458308
6700.0 0.044455962870000004
6710.0 0.04245123294
6720.0 0.04072589001
6730.0 0.0392727879
6740.0 0.03807334632
6750.0 0.03710010942
6760.0 0.03632014017000001
6770.0 0.03569856903
6780.0 0.035201805180000004
6790.0 0.034800072870000004
6800.0 0.0344691519
6810.0 0.034191376620000005
6820.0 0.03395564037
6830.0 0.03375607236
6840.0 0.03358915389000001
6850.0 0.0334503384
6860.0 0.03333320898
6870.0 0.03322999008000001
6880.0 0.033133236930000004
6890.0 0.03303764706
6900.0 0.0329408706
6910.0 0.03284286648
6920.0 0.03274399545000001
6930.0 0.032642578080000005
6940.0 0.03253307214
6950.0 0.0324059727
6960.0 0.03224998884000001
6970.0 0.03205594308
6980.0 0.03182088837000001
6990.0 0.031550725470000006
7000.0 0.031260292860000004
7010.0 0.030971067930000002
7020.0 0.030707558370000006
7030.0 0.030493679130000003
7040.0 0.030350079540000005
7050.0 0.030292739160000002
7060.0 0.03033268029
7070.0 0.030476363130000007
7080.0 0.030726358440000004
7090.0 0.03108202686
7100.0 0.03154001286000001
7110.0 0.03209436684
7120.0 0.032736254310000004
7130.0 0.03345348303
7140.0 0.03423027213
7150.0 0.03504695685
7160.0 0.035880223860000005
7170.0 0.03670382832
7180.0 0.03748990257000001
7190.0 0.038211182790000006
7200.0 0.03884429904
7210.0 0.03937352484000001
7220.0 0.03979355550000001
7230.0 0.04010982225
7240.0 0.04033599807
7250.0 0.0404901915
7260.0 0.040592297070000005
7270.0 0.04066394202
7280.0 0.040729899330000006
7290.0 0.04081807884
7300.0 0.04095643368
7310.0 0.04116846588000001
7320.0 0.04147035147000001
7330.0 0.041870369940000006
7340.0 0.042368758830000006
7350.0 0.04295667477
7360.0 0.04361504796
7370.0 0.04431456774
7380.0 0.04501696464000001
7390.0 0.04567716267
7400.0 0.046246244129999996
7410.0 0.04667573088
7420.0 0.046923468450000005
7430.0 0.046960486950000005
7440.0 0.04677667983000001
7450.0 0.046383069390000004
7460.0 0.04581046257
7470.0 0.04510600773
7480.0 0.04432864920000001
7490.0 0.043542402900000006
7500.0 0.04280628420000001
7510.0 0.04216399491000001
7520.0 0.04164079419
7530.0 0.04125184908000001
7540.0 0.041015702130000005
7550.0 0.04096014774
7560.0 0.04111458981
7570.0 0.041495694990000005
7580.0 0.04209815637
7590.0 0.04289625081000001
7600.0 0.043852642350000005
7610.0 0.04492736877
7620.0 0.04608280773000001
7630.0 0.04728471462
7640.0 0.04850126352
7650.0 0.049701711870000005
7660.0 0.050855287140000004
7670.0 0.05193061629000001
7680.0 0.052896057659999995
7690.0 0.05372125164000001
7700.0 0.05437981353
7710.0 0.05485245486000001
7720.0 0.05512942206000001
7730.0 0.055211159130000007
7740.0 0.05510751732000001
7750.0 0.05483490354000001
7760.0 0.05441219223000001
7770.0 0.05385672048000001
7780.0 0.05318161515000001
7790.0 0.05239517349
7800.0 0.05150225730000001
7810.0 0.05050683483000001
7820.0 0.049414529340000006
7830.0 0.04823421195
7840.0 0.04697832909
7850.0 0.04566223761000001
7860.0 0.04430318136
7870.0 0.04291941540000001
7880.0 0.04152963213000001
7890.0 0.04015253505
7900.0 0.038806312620000005
7910.0 0.037508013330000006
7920.0 0.03627401523
7930.0 0.03511692903
7940.0 0.03404793909000001
7950.0 0.033075825510000004
7960.0 0.03220592406
7970.0 0.03143884302
7980.0 0.03076944087
7990.0 0.030186620940000006
8000.0 0.029674173900000007
8010.0 0.02921270472
8020.0 0.028781531880000006
8030.0 0.02835971412
8040.0 0.02792686074
8050.0 0.027463037250000003
8060.0 0.026947961730000004
8070.0 0.02636020008
8080.0 0.025677298110000003
8090.0 0.024877334430000005
8100.0 0.023941827540000002
8110.0 0.022859568660000003
8120.0 0.021630797550000004
8130.0 0.020270735640000006
8140.0 0.018811243260000002
8150.0 0.017299534260000003
8160.0 0.01579371492
8170.0 0.01435590972
8180.0 0.01304452686
8190.0 0.01190735184
8200.0 0.010976897559
8210.0 0.010268676600000002
8220.0 0.009782205558000003
8230.0 0.009503947317000001
8240.0 0.009411176292
8250.0 0.009476010615
8260.0 0.009669237195000001
8270.0 0.009963786795
8280.0 0.010337644341
8290.0 0.010775825943
8300.0 0.01127104767
8310.0 0.011823032910000001
8320.0 0.012436879560000001
8330.0 0.013121256720000002
8340.0 0.01388708679
8350.0 0.014746827300000003
8360.0 0.01571387817
8370.0 0.016801312980000004
8380.0 0.018019579050000005
8390.0 0.01937358147
8400.0 0.02086019781
8410.0 0.02246699718
8420.0 0.024173734290000005
8430.0 0.025955468550000003
8440.0 0.02778566319
8450.0 0.029637976800000007
8460.0 0.03148608462000001
8470.0 0.033302005770000004
8480.0 0.03505445823
8490.0 0.03670895541
8500.0 0.03823068549
8510.0 0.039589827210000005
8520.0 0.04076769816
8530.0 0.04176155442
8540.0 0.04258622337
8550.0 0.04327173162
8560.0 0.043857461970000004
8570.0 0.04438442226
8580.0 0.04488790272000001
8590.0 0.045392547570000004
8600.0 0.04591097085000001
8610.0 0.04644556683
8620.0 0.04699201539000001
8630.0 0.047542666410000003
8640.0 0.04808855220000001
8650.0 0.04861998579000001
8660.0 0.04912652763000001
8670.0 0.04959734856000001
8680.0 0.050022448590000004
8690.0 0.05039430747000001
8700.0 0.050709198930000005
8710.0 0.050967818940000006
8720.0 0.05117313342000001
8730.0 0.05132758659
8740.0 0.051431015280000006
8750.0 0.05147987859000001
8760.0 0.051467987160000006
8770.0 0.051388121550000006
8780.0 0.05123356071000001
8790.0 0.05099886453
8800.0 0.050679896040000005
8810.0 0.05027364492
8820.0 0.04977835848
8830.0 0.04919409777000001
8840.0 0.048523351410000005
8850.0 0.04777124871000001
8860.0 0.04694520225
8870.0 0.046054241880000006
8880.0 0.04510843086000001
8890.0 0.04411872045000001
8900.0 0.04309718412
8910.0 0.04205730948
8920.0 0.04104237321000001
8930.0 0.04004700069
8940.0 0.039078380280000005
8950.0 0.03815020161000001
8960.0 0.03727371009
8970.0 0.036457127490000005
8980.0 0.03570550653
8990.0 0.03502089072000001
9000.0 0.03440267178
9010.0 0.03384813465
9020.0 0.0333531912
9030.0 0.03291322605
9040.0 0.03252383583000001
9050.0 0.03218126985
9060.0 0.031882462290000003
