#lamb flux
1000.0 9.395479789999998e-07
1010.0 1.138452348e-06
1020.0 1.3839444865000002e-06
1030.0 1.6854491344999997e-06
1040.0 2.0546750414999997e-06
1050.0 2.50499854e-06
1060.0 3.051350305e-06
1070.0 3.7099501299999998e-06
1080.0 4.497868585e-06
1090.0 5.432416610000001e-06
1100.0 6.5303885e-06
1110.0 7.807211579999999e-06
1120.0 9.276067284999999e-06
1130.0 1.094706384e-05
1140.0 1.2826525255e-05
1150.0 1.4916437699999999e-05
1160.0 1.7214082715e-05
1170.0 1.9711849515e-05
1180.0 2.23972251e-05
1190.0 2.5252941099999997e-05
1200.0 2.8257273700000002e-05
1210.0 3.13845003e-05
1220.0 3.46054583e-05
1230.0 3.788829545e-05
1240.0 4.11992718e-05
1250.0 4.450366915e-05
1260.0 4.7766756400000004e-05
1270.0 5.095473555e-05
1280.0 5.4035648999999995e-05
1290.0 5.698023525e-05
1300.0 5.9762621200000003e-05
1310.0 6.236092845000001e-05
1320.0 6.475769469999999e-05
1330.0 6.694015324999999e-05
1340.0 6.890036845000001e-05
1350.0 7.06352314e-05
1360.0 7.214634385e-05
1370.0 7.343979889999999e-05
1380.0 7.452591225000001e-05
1390.0 7.54188868e-05
1400.0 7.613646004999998e-05
1410.0 7.66995644e-05
1420.0 7.713196595e-05
1430.0 7.745993555000001e-05
1440.0 7.771189835e-05
1450.0 7.791806185e-05
1460.0 7.810992999999999e-05
1470.0 7.831970549999999e-05
1480.0 7.8579447e-05
1490.0 7.89200027e-05
1500.0 7.93696709e-05
1510.0 7.995266059999999e-05
1520.0 8.06874876e-05
1530.0 8.158548239999999e-05
1540.0 8.264971089999999e-05
1550.0 8.387449495e-05
1560.0 8.524582514999999e-05
1570.0 8.674270675e-05
1580.0 8.833942144999999e-05
1590.0 9.000849655e-05
1600.0 9.17239923e-05
1610.0 9.346469895e-05
1620.0 9.521676405e-05
1630.0 9.697540169999999e-05
1640.0 9.874548595e-05
1650.0 0.0001005410133
1660.0 0.000102383559
1670.0 0.0001043001077
1680.0 0.0001063205014
1690.0 0.00010847492395
1700.0 0.0001107916285
1710.0 0.00011329506269999998
1720.0 0.00011600440670000001
1730.0 0.00011893254545
1740.0 0.00012208533339999998
1750.0 0.0001254611645
1760.0 0.0001290507959
1770.0 0.00013283746835
1780.0 0.00013679738565
1790.0 0.00014090061120000002
1800.0 0.0001451123967
1810.0 0.0001493949215
1820.0 0.00015370933294999998
1830.0 0.00015801787705
1840.0 0.00016228593235
1850.0 0.0001664837106
1860.0 0.00017058744785
1870.0 0.0001745799398
1880.0 0.00017845043645
1890.0 0.000182193967
1900.0 0.00018581018315
1910.0 0.0001893019487
1920.0 0.0001926738668
1930.0 0.00019593086525000001
1940.0 0.00019907703334999999
1950.0 0.0002021147576
1960.0 0.00020504421215
1970.0 0.00020786315025
1980.0 0.00021056705905
1990.0 0.00021314953154999997
2000.0 0.00021560283850000002
2010.0 0.00021791856049999998
2020.0 0.00022008836200000003
2030.0 0.0002221046535
2040.0 0.0002239611355
2050.0 0.000225653207
2060.0 0.0002271783955
2070.0 0.0002285364
2080.0 0.00022972904799999997
2090.0 0.0002307602525
2100.0 0.0002316358185
2110.0 0.00023236318500000002
2120.0 0.00023295110249999998
2130.0 0.00023340941800000002
2140.0 0.000233748817
2150.0 0.00023398052249999998
2160.0 0.000234116037
2170.0 0.00023416712100000003
2180.0 0.0002341454705
2190.0 0.00023406280299999999
2200.0 0.00023393077149999999
2210.0 0.00023376111499999997
2220.0 0.00023356587349999998
2230.0 0.00023335749549999998
2240.0 0.000233148967
2250.0 0.000232953962
2260.0 0.000232786778
2270.0 0.00023266203499999998
2280.0 0.00023259435300000003
2290.0 0.00023259790050000003
2300.0 0.000232685728
2310.0 0.00023286938100000002
2320.0 0.000233158642
2330.0 0.000233561552
2340.0 0.00023408512000000004
2350.0 0.000234736484
2360.0 0.00023552495350000002
2370.0 0.00023646474
2380.0 0.000237578354
2390.0 0.000238900733
2400.0 0.00024048324050000004
2410.0 0.00024239745
2420.0 0.0002447373595
2430.0 0.00024761958499999997
2440.0 0.00025117977
2450.0 0.00025556491
2460.0 0.0002609205815
2470.0 0.00026737372049999994
2480.0 0.00027501187499999995
2490.0 0.0002838615545
2500.0 0.000293868493
2510.0 0.0003048842545
2520.0 0.000316662406
2530.0 0.0003288666875
2540.0 0.000341092254
2550.0 0.0003528977535
2560.0 0.000363844328
2570.0 0.0003735354315
2580.0 0.000381651316
2590.0 0.0003879731975
2600.0 0.0003923938985
2610.0 0.000394915139
2620.0 0.0003956334325
2630.0 0.00039471867200000004
2640.0 0.00039238968449999996
2650.0 0.00038885246149999997
2660.0 0.00038245399699999997
2670.0 0.00035942889449999996
2680.0 0.000351153136
2690.0 0.00048175523
2700.0 0.000752322066
2710.0 0.0010660144835
2720.0 0.0012822471
2730.0 0.0013553808979999999
2740.0 0.0013772230275
2750.0 0.0014055119535
2760.0 0.0014173349969999998
2770.0 0.001419686194
2780.0 0.001456506965
2790.0 0.0015585416435000001
2800.0 0.001604010983
2810.0 0.0015958734264999999
2820.0 0.001568842315
2830.0 0.001499688511
2840.0 0.001438267139
2850.0 0.0014369846425
2860.0 0.0014460858075000002
2870.0 0.0014534388934999997
2880.0 0.0014760930565
2890.0 0.001568018607
2900.0 0.0017246780129999998
2910.0 0.0018734843935
2920.0 0.0019946882784999996
2930.0 0.002079402557
2940.0 0.002064596625
2950.0 0.0019286778390000003
2960.0 0.0018216925275
2970.0 0.0017745991854999997
2980.0 0.0017363526205
2990.0 0.0016558949765000002
3000.0 0.001529315468
3010.0 0.001420008006
3020.0 0.00135791334
3030.0 0.001350864952
3040.0 0.0013196498330000001
3050.0 0.001226501427
3060.0 0.0011784511844999998
3070.0 0.0011719264505
3080.0 0.0011789589285
3090.0 0.00118192165
3100.0 0.0011841920284999998
3110.0 0.0012296301715
3120.0 0.0013135346524999999
3130.0 0.0013835979279999998
3140.0 0.0014118123565000002
3150.0 0.0014152947975
3160.0 0.0014555094725
3170.0 0.001552858527
3180.0 0.0016661032195
3190.0 0.0017494475824999997
3200.0 0.001795800443
3210.0 0.0017951702564999996
3220.0 0.0017468232495000003
3230.0 0.0016544452960000002
3240.0 0.0015479722005
3250.0 0.0014472064519999999
3260.0 0.001375796782
3270.0 0.0013564588435
3280.0 0.001359766382
3290.0 0.0013511985675
3300.0 0.0013488750195000002
3310.0 0.001372194285
3320.0 0.001413606682
3330.0 0.0014501664860000001
3340.0 0.0014721933864999999
3350.0 0.0014917284154999997
3360.0 0.0015300179375
3370.0 0.0015880124245
3380.0 0.0016520598065000002
3390.0 0.001710509986
3400.0 0.0017590775829999998
3410.0 0.0018155016024999997
3420.0 0.001886991446
3430.0 0.0019548374049999998
3440.0 0.0020064961215
3450.0 0.0020379702725
3460.0 0.002051796041
3470.0 0.0020653070925
3480.0 0.0020887325034999998
3490.0 0.002125183711
3500.0 0.0021902957299999998
3510.0 0.0023022156999999996
3520.0 0.002445257565
3530.0 0.002594454235
3540.0 0.002734281205
3550.0 0.0028543154900000003
3560.0 0.0029539585299999996
3570.0 0.00303870895
3580.0 0.0031030537200000003
3590.0 0.0031364612799999994
3600.0 0.00313688913
3610.0 0.003109804935
3620.0 0.0030801259050000003
3630.0 0.0030754788950000003
3640.0 0.00312085056
3650.0 0.003233838435
3660.0 0.0034218232550000003
3670.0 0.0036768014300000004
3680.0 0.0039697041
3690.0 0.0042714791750000005
3700.0 0.00456047293
3710.0 0.004820763325
3720.0 0.005008532285
3730.0 0.00505061359
3740.0 0.00494292396
3750.0 0.004730871395
3760.0 0.004430939945
3770.0 0.00404642857
3780.0 0.00360792833
3790.0 0.00317655964
3800.0 0.00281587908
3810.0 0.002573369185
3820.0 0.002487944955
3830.0 0.002592311975
3840.0 0.00289904882
3850.0 0.00338726222
3860.0 0.00400781027
3870.0 0.0047020242
3880.0 0.00541902598
3890.0 0.0061260612199999995
3900.0 0.0068042324950000005
3910.0 0.007434083595000001
3920.0 0.007991384019999999
3930.0 0.008457857695000001
3940.0 0.00882902273
3950.0 0.0091058477
3960.0 0.0092852308
3970.0 0.009358873245
3980.0 0.00931622004
3990.0 0.00914546704
4000.0 0.00883863108
4010.0 0.00840673091
4020.0 0.007892786524999999
4030.0 0.007362553739999999
4040.0 0.0068788319050000005
4050.0 0.006483827885
4060.0 0.006192001505
4070.0 0.005984822559999999
4080.0 0.005818943395
4090.0 0.00565503535
4100.0 0.0054850309800000005
4110.0 0.00533015702
4120.0 0.005214950345
4130.0 0.00514749087
4140.0 0.005119265024999999
4150.0 0.005116919375
4160.0 0.005135121919999999
4170.0 0.005180157970000001
4180.0 0.00525926894
4190.0 0.00536530178
4200.0 0.005474901685
4210.0 0.005564332655
4220.0 0.00562519335
4230.0 0.00566507069
4240.0 0.0056977388649999995
4250.0 0.00573402119
4260.0 0.005779112495
4270.0 0.00583671121
4280.0 0.0059128483
4290.0 0.006011324965
4300.0 0.006124663935
4310.0 0.00623136177
4320.0 0.006300282599999999
4330.0 0.00629629134
4340.0 0.00618863525
4350.0 0.005964611054999999
4360.0 0.00563894862
4370.0 0.005248800589999999
4380.0 0.004838803545
4390.0 0.004447814865
4400.0 0.00410451383
4410.0 0.0038290300299999996
4420.0 0.0036347743049999996
4430.0 0.0035296238249999993
4440.0 0.0035160500149999997
4450.0 0.0035906554450000003
4460.0 0.0037450189949999996
4470.0 0.0039681681400000005
4480.0 0.004250172245
4490.0 0.00458599816
4500.0 0.00497715497
4510.0 0.005429196555
4520.0 0.005946614909999999
4530.0 0.00652821442
4540.0 0.0071648621
4550.0 0.007839361605
4560.0 0.008526874844999999
4570.0 0.009196678104999998
4580.0 0.009817757205
4590.0 0.010365681909999999
4600.0 0.010823888619999998
4610.0 0.01117871688
4620.0 0.01141414532
4630.0 0.011511287265
4640.0 0.0114501604
4650.0 0.01121194212
4660.0 0.01078652334
4670.0 0.010185731855
4680.0 0.009451234235
4690.0 0.008647507904999999
4700.0 0.007844501609999999
4710.0 0.0071013263750000005
4720.0 0.00645627198
4730.0 0.0059232246300000005
4740.0 0.005495695625
4750.0 0.00515908883
4760.0 0.004905245425
4770.0 0.0047385208799999995
4780.0 0.00466896881
4790.0 0.004699608029999999
4800.0 0.00481699072
4810.0 0.0049902069750000005
4820.0 0.005176815150000001
4830.0 0.005333859749999999
4840.0 0.005433382175
4850.0 0.0054772195999999995
4860.0 0.005500088935
4870.0 0.005555146134999999
4880.0 0.00569054002
4890.0 0.00593207962
4900.0 0.006278799585
4910.0 0.006706914895
4920.0 0.00717532228
4930.0 0.007630419659999999
4940.0 0.008011727965
4950.0 0.008260074465
4960.0 0.008328462524999998
4970.0 0.0081941359
4980.0 0.00786871018
4990.0 0.007399331425000001
5000.0 0.006858691995
5010.0 0.0063249775
5020.0 0.005860038925
5030.0 0.00549640663
5040.0 0.00523763564
5050.0 0.00506836571
5060.0 0.004966629215
5070.0 0.0049123335450000005
5080.0 0.004890190265
5090.0 0.0048891578350000004
5100.0 0.004901103235
5110.0 0.004919912295
5120.0 0.004941339625
5130.0 0.004963920215
5140.0 0.004990503675
5150.0 0.005028625970000001
5160.0 0.005088408655
5170.0 0.005179137365
5180.0 0.005306990554999999
5190.0 0.0054745482250000005
5200.0 0.00568094715
5210.0 0.005921233945
5220.0 0.006185954845
5230.0 0.00646322379
5240.0 0.00674300329
5250.0 0.007020423165
5260.0 0.0072951342549999985
5270.0 0.007567132905
5280.0 0.007832752935
5290.0 0.008084128355
5300.0 0.00831162437
5310.0 0.00850589493
5320.0 0.008659326884999999
5330.0 0.008771422725
5340.0 0.008854650085
5350.0 0.00892692298
5360.0 0.008995053040000001
5370.0 0.00905142647
5380.0 0.009085541380000001
5390.0 0.00909408462
5400.0 0.009084461220000001
5410.0 0.009074203355
5420.0 0.00908645513
5430.0 0.00914308742
5440.0 0.00925817004
5450.0 0.009434156785
5460.0 0.00966155519
5470.0 0.009921636604999999
5480.0 0.010190799405000001
5490.0 0.010444573149999999
5500.0 0.01065980793
5510.0 0.010815502115
5520.0 0.010894050859999999
5530.0 0.010883573265
5540.0 0.01077970999
5550.0 0.01058508855
5560.0 0.010306768685
5570.0 0.009953752445
5580.0 0.009535993255
5590.0 0.009065102405
5600.0 0.00855446042
5610.0 0.00801796275
5620.0 0.007469611055000001
5630.0 0.00692378174
5640.0 0.006396164859999999
5650.0 0.005904764944999999
5660.0 0.005470073644999999
5670.0 0.005113807895
5680.0 0.004856353995
5690.0 0.004713815875
5700.0 0.0046957388899999996
5710.0 0.00480410706
5720.0 0.00503349013
5730.0 0.00537189239
5740.0 0.005801945279999999
5750.0 0.006302223405
5760.0 0.00684849734
5770.0 0.00741494107
5780.0 0.00797547402
5790.0 0.008505174034999998
5800.0 0.008981461599999999
5810.0 0.009385062395
5820.0 0.009701183989999999
5830.0 0.009921038045
5840.0 0.010043005825
5850.0 0.010072272269999998
5860.0 0.010019325079999999
5870.0 0.009898200315
5880.0 0.0097240372
5890.0 0.009510430185
5900.0 0.00926700138
5910.0 0.008998099805
5920.0 0.008703484445
5930.0 0.008380973694999998
5940.0 0.008029955235
5950.0 0.0076542072599999995
5960.0 0.007262919515000001
5970.0 0.00686972214
5980.0 0.006490328195
5990.0 0.006139769835
6000.0 0.005830111785
6010.0 0.00556912264
6020.0 0.005359940969999999
6030.0 0.005201473715
6040.0 0.0050891626599999995
6050.0 0.005015860345
6060.0 0.004972911945
6070.0 0.00495175745
6080.0 0.004945888165
6090.0 0.0049523201050000005
6100.0 0.00497156755
6110.0 0.005005944115
6120.0 0.00505727902
6130.0 0.005125445845
6140.0 0.005208264705000001
6150.0 0.00530220788
6160.0 0.005402887004999999
6170.0 0.005504720035
6180.0 0.005600004595
6190.0 0.005678272335000001
6200.0 0.005726866635
6210.0 0.005733096045
6220.0 0.00568737909
6230.0 0.005586150855
6240.0 0.005433402600000001
6250.0 0.005240443755
6260.0 0.005024179555
6270.0 0.004804520075000001
6280.0 0.0046015841549999995
6290.0 0.00443341997
6300.0 0.0043147806050000004
6310.0 0.004256632995
6320.0 0.00426493522
6330.0 0.004338259895
6340.0 0.00446717411
6350.0 0.004638325075
6360.0 0.004840788425
6370.0 0.00506877163
6380.0 0.00531940229
6390.0 0.005589466155
6400.0 0.005873913735
6410.0 0.006165850840000001
6420.0 0.006457039745
6430.0 0.006738629115
6440.0 0.00700194628
6450.0 0.00723901603
6460.0 0.00744266919
6470.0 0.007606476615
6480.0 0.007724817345
6490.0 0.00779320089
6500.0 0.00780872991
6510.0 0.007770458835
6520.0 0.007679445249999999
6530.0 0.00753848437
6540.0 0.007351673235
6550.0 0.007123962219999999
6560.0 0.006860892520000001
6570.0 0.00656828698
6580.0 0.006252066915
6590.0 0.00591840347
6600.0 0.00557390295
6610.0 0.00522556984
6620.0 0.0048804354999999995
6630.0 0.004544962615
6640.0 0.00422447695
6650.0 0.0039228525899999995
6660.0 0.00364255193
6670.0 0.0033849563449999997
6680.0 0.0031508022100000003
6690.0 0.00294050856
6700.0 0.002754276205
6710.0 0.002591969265
6720.0 0.00245292726
6730.0 0.002335875455
6740.0 0.002239029565
6750.0 0.0021603619249999997
6760.0 0.002097890708
6770.0 0.0020498651690000003
6780.0 0.0020148106445
6790.0 0.0019915018065
6800.0 0.0019789315519999997
6810.0 0.0019762778715
6820.0 0.0019828264059999997
6830.0 0.001997846263
6840.0 0.002020488386
6850.0 0.002049793144
6860.0 0.0020847706125
6870.0 0.0021244208909999996
6880.0 0.002167625485
6890.0 0.00221292706
6900.0 0.002258379565
6910.0 0.002301661
6920.0 0.0023404889249999997
6930.0 0.0023731620449999997
6940.0 0.00239897473
6950.0 0.00241830968
6960.0 0.00243241884
6970.0 0.0024430407
6980.0 0.0024520494149999996
6990.0 0.002461231635
7000.0 0.0024721766399999996
7010.0 0.002486216355
7020.0 0.002504388155
7030.0 0.0025274357250000003
7040.0 0.002555869045
7050.0 0.00259004738
7060.0 0.002630224
7070.0 0.00267652855
7080.0 0.0027289156649999997
7090.0 0.002787142825
7100.0 0.002850811205
7110.0 0.002919471025
7120.0 0.0029927342100000004
7130.0 0.0030703111550000003
7140.0 0.0031518486149999998
7150.0 0.003236768025
7160.0 0.003324245075
7170.0 0.00341318735
7180.0 0.0035022229349999994
7190.0 0.0035896769799999995
7200.0 0.0036735600900000003
7210.0 0.0037516231499999998
7220.0 0.00382148396
7230.0 0.003880821165
7240.0 0.003927635695
7250.0 0.003960568104999999
7260.0 0.00397923247
7270.0 0.00398446944
7280.0 0.00397840386
7290.0 0.0039642517
7300.0 0.003945911125
7310.0 0.003927449935
7320.0 0.003912610205
7330.0 0.0039043914
7340.0 0.003904741205
7350.0 0.003914371055
7360.0 0.0039327251749999995
7370.0 0.0039581128049999996
7380.0 0.003987973079999999
7390.0 0.004019202475
7400.0 0.004048435164999999
7410.0 0.004072259315
7420.0 0.0040874335849999995
7430.0 0.004090882185
7440.0 0.0040798572
7450.0 0.004052264745
7460.0 0.0040070904499999995
7470.0 0.003944893315
7480.0 0.003868342995
7490.0 0.0037826433500000004
7500.0 0.003695421935
7510.0 0.00361554965
7520.0 0.0035508327150000005
7530.0 0.0035055945650000002
7540.0 0.0034797990799999997
7550.0 0.0034703887449999997
7560.0 0.0034735443
7570.0 0.0034859536700000003
7580.0 0.00350476015
7590.0 0.003527435985
7600.0 0.003552413395
7610.0 0.003579907595
7620.0 0.0036119249649999995
7630.0 0.003651188265
7640.0 0.0036995469250000004
7650.0 0.00375671693
7660.0 0.003819908655
7670.0 0.0038843574850000004
7680.0 0.003944359685
7690.0 0.003994366105
7700.0 0.004029852929999999
7710.0 0.0040478538049999995
7720.0 0.0040470739999999995
7730.0 0.00402773862
7740.0 0.003991433934999999
7750.0 0.003940855615
7760.0 0.0038794888099999997
7770.0 0.003811117735
7780.0 0.0037391417549999997
7790.0 0.0036658641650000002
7800.0 0.0035920424099999994
7810.0 0.0035169386100000004
7820.0 0.003438882
7830.0 0.0033561009800000003
7840.0 0.003267456695
7850.0 0.00317278123
7860.0 0.0030727673149999997
7870.0 0.002968579175
7880.0 0.00286146424
7890.0 0.002752564375
7900.0 0.002642967265
7910.0 0.00253388465
7920.0 0.00242611848
7930.0 0.002322176085
7940.0 0.00222385035
7950.0 0.0021326810404999996
7960.0 0.0020497005005
7970.0 0.0019753173375
7980.0 0.001909388985
7990.0 0.0018514280165
8000.0 0.0018008232300000002
8010.0 0.0017569689490000001
8020.0 0.0017192306440000002
8030.0 0.0016867675575
8040.0 0.0016583587259999999
8050.0 0.0016323271495
8060.0 0.0016066168045
8070.0 0.001578999732
8080.0 0.0015473293719999999
8090.0 0.0015097484255
8100.0 0.0014648113184999997
8110.0 0.0014115568935
8120.0 0.0013496107495
8130.0 0.0012793680565
8140.0 0.0012022181229999998
8150.0 0.001120676105
8160.0 0.001038260499
8170.0 0.000959034375
8180.0 0.00088688962
8190.0 0.000824802737
8200.0 0.0007743370770000001
8210.0 0.000735569696
8220.0 0.0007074400634999999
8230.0 0.0006883496759999999
8240.0 0.0006767661425
8250.0 0.0006716236005
8260.0 0.000672419724
8270.0 0.0006790389505
8280.0 0.0006914338725
8290.0 0.000709343695
8300.0 0.0007321960665
8310.0 0.0007592368100000001
8320.0 0.0007898147335
8330.0 0.000823680996
8340.0 0.0008611737710000001
8350.0 0.0009032258359999999
8360.0 0.0009512063324999999
8370.0 0.001006651199
8380.0 0.00107094768
8390.0 0.001145034917
8400.0 0.0012291719634999999
8410.0 0.0013228149555
8420.0 0.001424622379
8430.0 0.001532544768
8440.0 0.001643961466
8450.0 0.0017558397260000003
8460.0 0.0018649219325000002
8470.0 0.0019679682505
8480.0 0.002062070633
8490.0 0.00214501544
8500.0 0.0022156242349999997
8510.0 0.00227396986
8520.0 0.00232137478
8530.0 0.0023601420749999997
8540.0 0.00239306438
8550.0 0.0024228487599999996
8560.0 0.0024516351099999997
8570.0 0.002480269885
8580.0 0.002509082035
8590.0 0.0025386856
8600.0 0.002568920835
8610.0 0.002599735925
8620.0 0.002631304805
8630.0 0.0026639252500000004
8640.0 0.0026977580800000003
8650.0 0.002732551745
8660.0 0.0027675092400000004
8670.0 0.002801410655
8680.0 0.002832971795
8690.0 0.002861293745
8700.0 0.0028861815
8710.0 0.00290815364
8720.0 0.002928096825
8730.0 0.002946712815
8740.0 0.0029640145099999998
8750.0 0.00297911568
8760.0 0.002990414145
8770.0 0.0029960684299999998
8780.0 0.0029945408549999996
8790.0 0.00298497701
8800.0 0.00296730659
8810.0 0.0029420995599999996
8820.0 0.00291029977
8830.0 0.0028729757700000002
8840.0 0.0028311625700000002
8850.0 0.0027858027299999997
8860.0 0.002737743995
8870.0 0.002687742305
8880.0 0.002636447175
8890.0 0.00258437267
8900.0 0.002531883
8910.0 0.002479218535
8920.0 0.0024265635299999997
8930.0 0.002374133415
8940.0 0.0023222537
8950.0 0.00227140104
8960.0 0.0022222017299999997
8970.0 0.002175387845
8980.0 0.0021317253655
8990.0 0.002091927726
9000.0 0.0020565838545
9010.0 0.002026126159
9020.0 0.002000854156
9030.0 0.0019810038295
9040.0 0.0019668244935
9050.0 0.0019586154925
9060.0 0.0019566924465
9070.0 0.0019612855774999998
9080.0 0.0019724067750000003
9090.0 0.0019897362694999998
9100.0 0.0020125759775
9110.0 0.0020398961565000003
9120.0 0.0020704759505
9130.0 0.0021031132515
9140.0 0.0021368569425
9150.0 0.002171199215
9160.0 0.00220616144
9170.0 0.002242223605
9180.0 0.002280085965
9190.0 0.0023203167649999998
9200.0 0.0023629886750000002
