#lamb flux
1000.0 4.8792088800000006e-08
1010.0 5.874365000000001e-08
1020.0 7.132365240000001e-08
1030.0 8.716610280000001e-08
1040.0 1.0709124440000001e-07
1050.0 1.3210001560000002e-07
1060.0 1.6340024680000003e-07
1070.0 2.0243144319999998e-07
1080.0 2.5088654640000004e-07
1090.0 3.1072941199999996e-07
1100.0 3.8420715200000007e-07
1110.0 4.7385749600000006e-07
1120.0 5.825112720000001e-07
1130.0 7.132914880000001e-07
1140.0 8.69609104e-07
1150.0 1.0551555e-06
1160.0 1.273890268e-06
1170.0 1.5300220880000003e-06
1180.0 1.8279803080000003e-06
1190.0 2.172373336e-06
1200.0 2.567933088e-06
1210.0 3.0194435600000003e-06
1220.0 3.5316542800000006e-06
1230.0 4.10917864e-06
1240.0 4.75638464e-06
1250.0 5.477271240000001e-06
1260.0 6.27534908e-06
1270.0 7.1535094400000006e-06
1280.0 8.11391308e-06
1290.0 9.1578844e-06
1300.0 1.0285821000000003e-05
1310.0 1.1497119760000001e-05
1320.0 1.2790127e-05
1330.0 1.4162111319999999e-05
1340.0 1.560926556e-05
1350.0 1.7126732e-05
1360.0 1.870865836e-05
1370.0 2.0348277880000005e-05
1380.0 2.203801432e-05
1390.0 2.376960768e-05
1400.0 2.5534258680000004e-05
1410.0 2.7322782760000003e-05
1420.0 2.9125776400000002e-05
1430.0 3.0933784e-05
1440.0 3.273746000000001e-05
1450.0 3.4527724000000004e-05
1460.0 3.62958988e-05
1470.0 3.80338364e-05
1480.0 3.97340188e-05
1490.0 4.1389628000000004e-05
1500.0 4.29946104e-05
1510.0 4.454369080000001e-05
1520.0 4.6032428400000006e-05
1530.0 4.7457158e-05
1540.0 4.8814962e-05
1550.0 5.0103611600000006e-05
1560.0 5.1321516400000003e-05
1570.0 5.246766560000001e-05
1580.0 5.3541558e-05
1590.0 5.454315440000001e-05
1600.0 5.54728048e-05
1610.0 5.6331203600000005e-05
1620.0 5.711935320000001e-05
1630.0 5.78385164e-05
1640.0 5.849018000000001e-05
1650.0 5.9076040800000004e-05
1660.0 5.95979776e-05
1670.0 6.005803720000001e-05
1680.0 6.04584204e-05
1690.0 6.080147080000001e-05
1700.0 6.10896776e-05
1710.0 6.132567e-05
1720.0 6.15122256e-05
1730.0 6.165228160000002e-05
1740.0 6.174897960000001e-05
1750.0 6.180572440000001e-05
1760.0 6.182629600000001e-05
1770.0 6.181504e-05
1780.0 6.17771728e-05
1790.0 6.171923800000001e-05
1800.0 6.164978680000001e-05
1810.0 6.15803272e-05
1820.0 6.1526584e-05
1830.0 6.15100808e-05
1840.0 6.1560016e-05
1850.0 6.17152928e-05
1860.0 6.202651e-05
1870.0 6.2557656e-05
1880.0 6.33871224e-05
1890.0 6.460776e-05
1900.0 6.63257812e-05
1910.0 6.865841640000002e-05
1920.0 7.173065480000001e-05
1930.0 7.567152040000002e-05
1940.0 8.06106868e-05
1950.0 8.667604680000001e-05
1960.0 9.399287240000001e-05
1970.0 0.0001026844504
1980.0 0.00011287353560000002
1990.0 0.00012468316280000001
2000.0 0.0001382347652
2010.0 0.0001536415384
2020.0 0.0001709954456
2030.0 0.00019034754200000003
2040.0 0.000211682898
2050.0 0.00023489331040000002
2060.0 0.00025975257000000003
2070.0 0.000285899796
2080.0 0.000312836076
2090.0 0.00033993803200000006
2100.0 0.000366489284
2110.0 0.000391728092
2120.0 0.000414905736
2130.0 0.000435348984
2140.0 0.0004525178
2150.0 0.00046605182400000006
2160.0 0.00047579837200000007
2170.0 0.000481820388
2180.0 0.0004843832000000001
2190.0 0.00048392352400000006
2200.0 0.000481005084
2210.0 0.00047626667200000006
2220.0 0.0004703686680000001
2230.0 0.00046394311600000005
2240.0 0.000457551668
2250.0 0.0004516543080000001
2260.0 0.000446589892
2270.0 0.0004425690360000001
2280.0 0.00043967828800000003
2290.0 0.000437893456
2300.0 0.00043709968400000007
2310.0 0.000437115588
2320.0 0.00043771845600000005
2330.0 0.00043866804800000005
2340.0 0.00043972706400000007
2350.0 0.00044067693600000003
2360.0 0.000441328496
2370.0 0.0004415274360000001
2380.0 0.0004411556800000001
2390.0 0.000440129872
2400.0 0.00043839891200000004
2410.0 0.0004359421640000001
2420.0 0.00043277029600000003
2430.0 0.00042892936800000003
2440.0 0.0004245084480000001
2450.0 0.00041964930000000007
2460.0 0.0004145561560000001
2470.0 0.000409501596
2480.0 0.00040482607200000004
2490.0 0.00040092738000000003
2500.0 0.00039823890400000005
2510.0 0.000397197192
2520.0 0.0003982018320000001
2530.0 0.00040157266800000004
2540.0 0.00040751121600000005
2550.0 0.0004160734200000001
2560.0 0.0004271586760000001
2570.0 0.000440517868
2580.0 0.00045577882000000003
2590.0 0.00047248465600000005
2600.0 0.0004901385160000001
2610.0 0.000508247152
2620.0 0.0005263576360000001
2630.0 0.00054408326
2640.0 0.000561117984
2650.0 0.000577317272
2660.0 0.0005965736
2670.0 0.000655392836
2680.0 0.0007769422080000001
2690.0 0.000922065508
2700.0 0.0011288649680000003
2710.0 0.00129574424
2720.0 0.001439118772
2730.0 0.0015681414560000002
2740.0 0.001674749692
2750.0 0.001801629004
2760.0 0.001980955452
2770.0 0.0021898682680000004
2780.0 0.0023936609200000004
2790.0 0.0025722231920000003
2800.0 0.0027727596960000003
2810.0 0.0030339369200000003
2820.0 0.0033076968400000007
2830.0 0.0034874784000000006
2840.0 0.0035437063200000002
2850.0 0.0035829757600000004
2860.0 0.00366208752
2870.0 0.003727348800000001
2880.0 0.0037592055200000004
2890.0 0.0037872469600000003
2900.0 0.0038443151600000007
2910.0 0.0038734556000000007
2920.0 0.00388764516
2930.0 0.00397000016
2940.0 0.00414094828
2950.0 0.004383709120000001
2960.0 0.00470218224
2970.0 0.005113139640000001
2980.0 0.0056046942
2990.0 0.0063529365200000005
3000.0 0.00736451324
3010.0 0.00794934924
3020.0 0.008046637200000002
3030.0 0.007973662480000001
3040.0 0.007896827960000002
3050.0 0.007834898120000001
3060.0 0.007718698960000001
3070.0 0.007492972760000001
3080.0 0.007215494160000001
3090.0 0.006996093440000002
3100.0 0.006788161800000001
3110.0 0.0064994493200000005
3120.0 0.0062089118
3130.0 0.005914450080000001
3140.0 0.005481609
3150.0 0.004953008200000001
3160.0 0.00455404264
3170.0 0.0043507156
3180.0 0.004118744840000001
3190.0 0.00373928156
3200.0 0.0033807166400000002
3210.0 0.00315868868
3220.0 0.00302230012
3230.0 0.00292026784
3240.0 0.0028198329600000005
3250.0 0.002702556332
3260.0 0.002600709132
3270.0 0.0025643446920000004
3280.0 0.002620447816
3290.0 0.0027565744640000002
3300.0 0.0029254150800000003
3310.0 0.00308117992
3320.0 0.0032092449200000006
3330.0 0.0033257033600000005
3340.0 0.0034591155200000005
3350.0 0.0036288459199999997
3360.0 0.0038447452400000004
3370.0 0.0041228429200000005
3380.0 0.00447794032
3390.0 0.00490515816
3400.0 0.005399451120000001
3410.0 0.0060068097600000005
3420.0 0.006752290160000001
3430.0 0.007505376760000001
3440.0 0.008100693720000001
3450.0 0.00844919544
3460.0 0.008527931720000001
3470.0 0.00837558708
3480.0 0.00808484292
3490.0 0.0077551667200000006
3500.0 0.0074371987200000005
3510.0 0.007124892040000001
3520.0 0.00679322476
3530.0 0.00642807536
3540.0 0.00602828464
3550.0 0.0056051954000000005
3560.0 0.00518413
3570.0 0.00478708524
3580.0 0.004417651
3590.0 0.00407650852
3600.0 0.0037798874400000004
3610.0 0.0035521270400000002
3620.0 0.0034079964800000006
3630.0 0.0033467336000000004
3640.0 0.00335922188
3650.0 0.0034400318399999998
3660.0 0.00358862504
3670.0 0.00379988616
3680.0 0.0040559887200000005
3690.0 0.0042706916
3700.0 0.0042542690400000005
3710.0 0.00404728912
3720.0 0.00400645448
3730.0 0.00421803256
3740.0 0.00452765656
3750.0 0.004853144240000001
3760.0 0.0051822464400000014
3770.0 0.00552043128
3780.0 0.005889798600000001
3790.0 0.006289405360000001
3800.0 0.00657146028
3810.0 0.0066532171999999995
3820.0 0.00674289812
3830.0 0.006940709720000001
3840.0 0.007165563440000001
3850.0 0.007372114960000001
3860.0 0.007561752240000001
3870.0 0.0077391801199999995
3880.0 0.00789919312
3890.0 0.008028439440000002
3900.0 0.00811648012
3910.0 0.008165633
3920.0 0.008186056200000002
3930.0 0.0081838834
3940.0 0.0081600638
3950.0 0.008120576240000002
3960.0 0.008079988840000002
3970.0 0.008049013000000002
3980.0 0.00802365256
3990.0 0.007990030440000002
4000.0 0.007934446520000001
4010.0 0.007848827840000001
4020.0 0.007733467000000002
4030.0 0.007595362880000001
4040.0 0.007441247520000001
4050.0 0.007274516200000001
4060.0 0.0071008112
4070.0 0.0069306952400000005
4080.0 0.006771327360000001
4090.0 0.006619047120000001
4100.0 0.006464097920000001
4110.0 0.006299338080000001
4120.0 0.006121828440000001
4130.0 0.00592985708
4140.0 0.00572333916
4150.0 0.005507048120000001
4160.0 0.0052896398800000004
4170.0 0.0050776443200000005
4180.0 0.0048724692800000005
4190.0 0.0046742934
4200.0 0.004486625639999999
4210.0 0.00431652508
4220.0 0.00417256728
4230.0 0.004062369360000001
4240.0 0.003988820640000001
4250.0 0.0039471278
4260.0 0.00392693196
4270.0 0.0039190186
4280.0 0.0039204908400000005
4290.0 0.00393287076
4300.0 0.0039546712800000005
4310.0 0.003975636
4320.0 0.00397853036
4330.0 0.003948162680000001
4340.0 0.0038815310800000007
4350.0 0.00379154412
4360.0 0.0037011158800000004
4370.0 0.00363197464
4380.0 0.0035956146800000003
4390.0 0.0035909535200000006
4400.0 0.0036080374400000005
4410.0 0.00363386436
4420.0 0.0036568660800000005
4430.0 0.0036694361200000007
4440.0 0.00366934176
4450.0 0.00366002504
4460.0 0.00364865144
4470.0 0.0036418300800000005
4480.0 0.0036419152000000004
4490.0 0.0036467152400000004
4500.0 0.0036518095600000006
4510.0 0.00365330476
4520.0 0.0036497260800000004
4530.0 0.0036418838400000004
4540.0 0.0036306365200000005
4550.0 0.0036144976
4560.0 0.00358914808
4570.0 0.0035494894400000007
4580.0 0.00349305936
4590.0 0.0034223218400000004
4600.0 0.00334427296
4610.0 0.0032678346400000003
4620.0 0.0032003829200000005
4630.0 0.0031447662400000006
4640.0 0.0030985166800000003
4650.0 0.0030563940400000003
4660.0 0.0030146186
4670.0 0.0029731094400000002
4680.0 0.0029340469200000007
4690.0 0.0028989270800000005
4700.0 0.0028673579200000003
4710.0 0.0028383202400000004
4720.0 0.0028117362000000005
4730.0 0.0027881896840000002
4740.0 0.0027672473640000003
4750.0 0.0027466199040000003
4760.0 0.0027231430800000005
4770.0 0.002694369608
4780.0 0.002659339004
4790.0 0.002618523208
4800.0 0.0025736680200000002
4810.0 0.0025275332880000004
4820.0 0.0024830925
4830.0 0.0024425705360000003
4840.0 0.0024071756240000002
4850.0 0.002377467484
4860.0 0.0023536087680000005
4870.0 0.002335400004
4880.0 0.0023226032200000008
4890.0 0.0023155865040000003
4900.0 0.0023157123640000004
4910.0 0.0023250400040000004
4920.0 0.002345479752
4930.0 0.002377812556
4940.0 0.002421054916
4950.0 0.002472591352
4960.0 0.0025289717600000005
4970.0 0.0025866955240000005
4980.0 0.002642712464
4990.0 0.002695630224
5000.0 0.002747378928
5010.0 0.0028018169199999997
5020.0 0.00286025992
5030.0 0.0029197114800000004
5040.0 0.0029753250800000006
5050.0 0.0030229883600000006
5060.0 0.0030598792000000007
5070.0 0.00308420224
5080.0 0.0030955033200000003
5090.0 0.0030953454
5100.0 0.00308727272
5110.0 0.0030757378400000004
5120.0 0.0030645652800000006
5130.0 0.0030555254800000006
5140.0 0.0030474634400000002
5150.0 0.0030364541200000005
5160.0 0.0030170420000000006
5170.0 0.0029840311200000007
5180.0 0.00293432384
5190.0 0.00286852244
5200.0 0.002791635
5210.0 0.0027120297400000004
5220.0 0.0026387694480000004
5230.0 0.0025787529320000003
5240.0 0.0025351528440000007
5250.0 0.002507622684
5260.0 0.00249369526
5270.0 0.0024902459960000002
5280.0 0.0024940982640000004
5290.0 0.002501800168
5300.0 0.002509479728
5310.0 0.0025134233320000003
5320.0 0.0025109632800000004
5330.0 0.0025009089840000004
5340.0 0.00248342108
5350.0 0.0024596815600000004
5360.0 0.0024315177320000003
5370.0 0.002401072072
5380.0 0.0023707678400000003
5390.0 0.002343513872
5400.0 0.00232252272
5410.0 0.0023103089800000005
5420.0 0.002307461576
5430.0 0.00231234052
5440.0 0.00232204322
5450.0 0.0023337664
5460.0 0.00234555034
5470.0 0.002356298
5480.0 0.0023656633840000007
5490.0 0.002374222592
5500.0 0.002383672816
5510.0 0.002396347044
5520.0 0.002413725692
5530.0 0.002434827668
5540.0 0.002456141492
5550.0 0.002473693852
5560.0 0.002485653212
5570.0 0.002493153096
5580.0 0.0024988330920000003
5590.0 0.0025046991200000004
5600.0 0.002510994472
5610.0 0.0025164188280000005
5620.0 0.0025190756920000007
5630.0 0.0025174682680000004
5640.0 0.0025110987160000004
5650.0 0.002500464708
5660.0 0.00248657332
5670.0 0.0024703907480000003
5680.0 0.0024526154520000004
5690.0 0.0024338069000000005
5700.0 0.00241458728
5710.0 0.002395671796
5720.0 0.00237776518
5730.0 0.0023615079600000006
5740.0 0.0023475074839999998
5750.0 0.0023362913
5760.0 0.0023280726840000003
5770.0 0.0023224557160000004
5780.0 0.002318324512
5790.0 0.002314024216
5800.0 0.0023077358640000004
5810.0 0.00229788398
5820.0 0.002283476636
5830.0 0.0022643083400000004
5840.0 0.002240933212
5850.0 0.0022143710400000004
5860.0 0.002185679384
5870.0 0.00215562032
5880.0 0.0021245278320000003
5890.0 0.0020923152600000002
5900.0 0.0020585713960000005
5910.0 0.0020227776800000002
5920.0 0.0019846133720000003
5930.0 0.0019441825760000003
5940.0 0.0019020221080000004
5950.0 0.0018589149600000002
5960.0 0.0018156418280000004
5970.0 0.001772785644
5980.0 0.001730662864
5990.0 0.001689416624
6000.0 0.001649226992
6010.0 0.001610515172
6020.0 0.0015740132240000002
6030.0 0.0015406380920000003
6040.0 0.00151120494
6050.0 0.0014861507640000003
6060.0 0.00146553792
6070.0 0.001449470904
6080.0 0.0014386678880000002
6090.0 0.001434659016
6100.0 0.001439320148
6110.0 0.0014540148280000002
6120.0 0.0014789191200000002
6130.0 0.0015128784720000001
6140.0 0.001553717116
6150.0 0.001598727452
6160.0 0.0016451356600000002
6170.0 0.00169044638
6180.0 0.0017326134840000003
6190.0 0.0017700483920000004
6200.0 0.00180157964
6210.0 0.001826498744
6220.0 0.0018446997240000004
6230.0 0.00185675658
6240.0 0.0018637698800000003
6250.0 0.001867008052
6260.0 0.0018675816880000002
6270.0 0.0018663812440000004
6280.0 0.0018642645000000002
6290.0 0.0018622405200000003
6300.0 0.0018614020880000004
6310.0 0.001862593376
6320.0 0.001866033792
6330.0 0.0018711576240000001
6340.0 0.0018767737520000004
6350.0 0.0018814559960000001
6360.0 0.0018839769480000002
6370.0 0.0018836169520000002
6380.0 0.0018802549079999999
6390.0 0.0018742376520000002
6400.0 0.0018661185480000004
6410.0 0.0018564173880000001
6420.0 0.001845529504
6430.0 0.0018337980080000004
6440.0 0.0018216442720000003
6450.0 0.001809614744
6460.0 0.0017982660640000004
6470.0 0.0017879382920000003
6480.0 0.0017785571440000001
6490.0 0.0017696061320000003
6500.0 0.0017603073880000004
6510.0 0.0017499226360000002
6520.0 0.0017380197239999999
6530.0 0.0017245847640000001
6540.0 0.0017099544279999999
6550.0 0.001694630812
6560.0 0.0016790772320000003
6570.0 0.0016635820600000002
6580.0 0.0016482310320000003
6590.0 0.0016329725720000002
6600.0 0.0016177146440000002
6610.0 0.0016023878080000003
6620.0 0.001586948552
6630.0 0.0015713518240000003
6640.0 0.001555538404
6650.0 0.0015394551760000003
6660.0 0.0015230896240000004
6670.0 0.0015064954520000002
6680.0 0.0014898024960000003
6690.0 0.0014732113480000002
6700.0 0.0014569616040000003
6710.0 0.0014412686680000003
6720.0 0.00142625378
6730.0 0.0014119098
6740.0 0.00139810692
6750.0 0.0013845832
6760.0 0.0013708791600000002
6770.0 0.00135629606
6780.0 0.0013400478840000002
6790.0 0.0013216669760000002
6800.0 0.0013014508640000002
6810.0 0.00128058854
6820.0 0.0012607778400000004
6830.0 0.0012435263960000002
6840.0 0.00122957576
6850.0 0.0012187653240000001
6860.0 0.0012102987120000003
6870.0 0.0012031519080000002
6880.0 0.0011964123080000003
6890.0 0.0011894890560000002
6900.0 0.0011822163640000003
6910.0 0.001174868436
6920.0 0.0011680775960000002
6930.0 0.0011626415360000003
6940.0 0.0011592468440000002
6950.0 0.0011582081
6960.0 0.001159352964
6970.0 0.001162117516
6980.0 0.0011657901640000003
6990.0 0.0011697588000000002
7000.0 0.00117363974
7010.0 0.0011772653760000003
7020.0 0.0011805895920000001
7030.0 0.0011835839400000001
7040.0 0.0011861594920000002
7050.0 0.0011881136120000001
7060.0 0.0011890982040000002
7070.0 0.001188629932
7080.0 0.0011861720360000002
7090.0 0.001181289172
7100.0 0.0011738236440000003
7110.0 0.0011640104000000002
7120.0 0.001152467792
7130.0 0.001140061328
7140.0 0.001127695856
7150.0 0.00111611696
7160.0 0.0011057886280000002
7170.0 0.001096871832
7180.0 0.0010892835240000002
7190.0 0.0010827914440000002
7200.0 0.0010771031880000002
7210.0 0.001071929684
7220.0 0.00106702106
7230.0 0.00106218168
7240.0 0.0010572682680000001
7250.0 0.001052175432
7260.0 0.001046816568
7270.0 0.001041114088
7280.0 0.0010350121039999999
7290.0 0.0010285103920000002
7300.0 0.001021697964
7310.0 0.0010147529280000003
7320.0 0.0010078873000000002
7330.0 0.0010012510480000001
7340.0 0.0009948441160000001
7350.0 0.0009884910560000002
7360.0 0.000981898736
7370.0 0.0009747640000000001
7380.0 0.0009668694560000001
7390.0 0.0009581221440000001
7400.0 0.0009485429800000001
7410.0 0.000938255164
7420.0 0.000927512712
7430.0 0.0009167547480000001
7440.0 0.0009066201200000001
7450.0 0.000897857744
7460.0 0.0008911281120000001
7470.0 0.000886770612
7480.0 0.0008846468680000001
7490.0 0.0008841422240000002
7500.0 0.0008843417800000001
7510.0 0.0008843271360000001
7520.0 0.0008834924000000001
7530.0 0.0008817564280000001
7540.0 0.0008795694040000001
7550.0 0.0008776976320000002
7560.0 0.0008768901120000002
7570.0 0.0008776029919999999
7580.0 0.0008799130480000001
7590.0 0.0008836156000000002
7600.0 0.000888388984
7610.0 0.0008938983200000001
7620.0 0.0008998003560000001
7630.0 0.0009057032039999999
7640.0 0.0009111578280000003
7650.0 0.0009157091720000001
7660.0 0.0009189759600000001
7670.0 0.0009207084600000001
7680.0 0.0009207970520000001
7690.0 0.0009192364440000002
7700.0 0.000916068104
7710.0 0.0009113223000000001
7720.0 0.0009049785640000001
7730.0 0.0008969591400000001
7740.0 0.0008871611280000001
7750.0 0.00087551674
7760.0 0.0008620514280000001
7770.0 0.0008469078800000001
7780.0 0.0008303206240000001
7790.0 0.0008125544000000001
7800.0 0.0007938416080000001
7810.0 0.0007743543080000002
7820.0 0.000754227992
7830.0 0.0007336239400000001
7840.0 0.0007127953280000001
7850.0 0.0006921184200000001
7860.0 0.0006720692720000001
7870.0 0.0006531568960000001
7880.0 0.0006358458680000001
7890.0 0.0006205039960000001
7900.0 0.000607388992
7910.0 0.0005966605120000001
7920.0 0.000588391216
7930.0 0.00058255988
7940.0 0.000579035912
7950.0 0.0005775825720000001
7960.0 0.0005779019680000001
7970.0 0.000579718076
7980.0 0.0005828637360000001
7990.0 0.0005873269079999999
8000.0 0.0005932240160000001
8010.0 0.0006006970480000001
8020.0 0.000609758408
8030.0 0.000620133864
8040.0 0.000631174796
8050.0 0.0006419101080000001
8060.0 0.0006512623600000001
8070.0 0.0006583670520000001
8080.0 0.00066285422
8090.0 0.0006649434120000001
8100.0 0.00066529904
8110.0 0.00066473582
8120.0 0.0006639457720000002
8130.0 0.0006633737880000001
8140.0 0.000663254144
8150.0 0.000663726924
8160.0 0.000664938624
8170.0 0.00066707354
8180.0 0.00067032056
8190.0 0.00067481316
8200.0 0.000680582252
8210.0 0.0006875431080000001
8220.0 0.000695512972
8230.0 0.0007042458920000002
8240.0 0.000713471248
8250.0 0.0007229303760000001
8260.0 0.0007324117080000001
8270.0 0.0007417837
8280.0 0.000751019752
8290.0 0.00076020182
8300.0 0.000769490036
8310.0 0.0007790548080000001
8320.0 0.0007889881160000001
8330.0 0.0007992270160000001
8340.0 0.000809525276
8350.0 0.0008194927160000002
8360.0 0.0008286925640000001
8370.0 0.000836761324
8380.0 0.0008435048440000001
8390.0 0.000848935864
8400.0 0.0008532419560000002
8410.0 0.0008567025320000001
8420.0 0.0008595908720000001
8430.0 0.000862099168
8440.0 0.0008643096560000002
8450.0 0.0008662129840000002
8460.0 0.0008677550560000001
8470.0 0.0008688860600000001
8480.0 0.000869590008
8490.0 0.0008698856600000001
8500.0 0.0008698051320000001
8510.0 0.0008693664280000001
8520.0 0.0008685566120000001
8530.0 0.0008673362040000001
8540.0 0.0008656625040000002
8550.0 0.000863519832
8560.0 0.0008609404440000001
8570.0 0.0008580047840000001
8580.0 0.000854820008
8590.0 0.0008514864960000001
8600.0 0.000848067528
8610.0 0.00084457506
8620.0 0.0008409775359999999
8630.0 0.0008372254240000002
8640.0 0.0008332840040000001
8650.0 0.0008291590440000001
8660.0 0.000824904976
