#lamb flux
1000.0 1.5609142880000001e-06
1010.0 1.8914019245e-06
1020.0 2.299317115e-06
1030.0 2.8003325775e-06
1040.0 3.4139219375e-06
1050.0 4.1623377175e-06
1060.0 5.070426227000001e-06
1070.0 6.165188595e-06
1080.0 7.475056915e-06
1090.0 9.028883095000001e-06
1100.0 1.085468669e-05
1110.0 1.2978239720000001e-05
1120.0 1.5421613075e-05
1130.0 1.8201803705e-05
1140.0 2.1329550129999997e-05
1150.0 2.4808414915000002e-05
1160.0 2.8634168885000003e-05
1170.0 3.279448029e-05
1180.0 3.7268886985e-05
1190.0 4.202903932e-05
1200.0 4.7039187525e-05
1210.0 5.22569168e-05
1220.0 5.7634110850000014e-05
1230.0 6.3118123e-05
1240.0 6.865314205e-05
1250.0 7.4181709e-05
1260.0 7.964623644999999e-05
1270.0 8.499067245000002e-05
1280.0 9.016191825000001e-05
1290.0 9.511131560000001e-05
1300.0 9.979575420000001e-05
1310.0 0.00010417867750000001
1320.0 0.00010823082100000001
1330.0 0.00011193065095
1340.0 0.0001152645944
1350.0 0.00011822701245
1360.0 0.00012081999695000001
1370.0 0.00012305293715
1380.0 0.0001249419954
1390.0 0.000126509417
1400.0 0.00012778275980000002
1410.0 0.00012879403820000002
1420.0 0.000129578819
1430.0 0.0001301753012
1440.0 0.0001306233637
1450.0 0.00013096361300000002
1460.0 0.00013123651115000003
1470.0 0.00013148151975
1480.0 0.00013173634025
1490.0 0.00013203627195
1500.0 0.00013241373585
1510.0 0.0001328978413
1520.0 0.00013351422550000002
1530.0 0.0001342849679
1540.0 0.0001352286544
1550.0 0.00013636058065
1560.0 0.00013769301955
1570.0 0.00013923557435
1580.0 0.00014099555315000002
1590.0 0.0001429783327
1600.0 0.00014518771150000002
1610.0 0.00014762625220000002
1620.0 0.00015029551165
1630.0 0.00015319628700000002
1640.0 0.00015632876015
1650.0 0.000159692578
1660.0 0.00016328697015
1670.0 0.00016711071145
1680.0 0.0001711621541
1690.0 0.00017543918485000002
1700.0 0.0001799391608
1710.0 0.00018465887195000003
1720.0 0.00018959444490000002
1730.0 0.00019474128935
1740.0 0.00020009399645000002
1750.0 0.00020564628530000002
1760.0 0.00021139087454999998
1770.0 0.00021731945565000001
1780.0 0.00022342256445
1790.0 0.0002296895277
1800.0 0.00023610839350000004
1810.0 0.0002426658564
1820.0 0.0002493471932
1830.0 0.0002561362362
1840.0 0.00026301531970000005
1850.0 0.0002699652693
1860.0 0.00027696540725
1870.0 0.0002839935899
1880.0 0.00029102626655
1890.0 0.00029803858645000003
1900.0 0.0003050045807
1910.0 0.00031189732809999997
1920.0 0.00031868925475
1930.0 0.00032535244435
1940.0 0.00033185900735000005
1950.0 0.0003381815357
1960.0 0.0003442935362
1970.0 0.00035016991200000004
1980.0 0.00035578743340000007
1990.0 0.00036112519795
2000.0 0.00036616499960000004
2010.0 0.00037089165505
2020.0 0.00037529323915
2030.0 0.00037936123470000004
2040.0 0.0003830905485
2050.0 0.00038647947925
2060.0 0.0003895295624
2070.0 0.00039224537755
2080.0 0.00039463431305000003
2090.0 0.00039670627175000003
2100.0 0.0003984733928
2110.0 0.00039994977880000005
2120.0 0.00040115121225000006
2130.0 0.00040209492015
2140.0 0.0004027993707
2150.0 0.00040328404325
2160.0 0.00040356931595000005
2170.0 0.00040367627315000007
2180.0 0.00040362661444999997
2190.0 0.00040344255305000006
2200.0 0.00040314671944999996
2210.0 0.0004027620705
2220.0 0.0004023118787
2230.0 0.00040181960915000006
2240.0 0.00040130891955000007
2250.0 0.00040080359600000004
2260.0 0.00040032751555
2270.0 0.0003999046034000001
2280.0 0.0003995588008
2290.0 0.00039931403830000006
2300.0 0.00039919423040000004
2310.0 0.00039922335045
2320.0 0.00039942565535
2330.0 0.000399826151
2340.0 0.00040045143224999997
2350.0 0.00040133120765000006
2360.0 0.00040250058925000006
2370.0 0.00040400340425
2380.0 0.0004058967211
2390.0 0.00040825624765
2400.0 0.00041118236595
2410.0 0.0004148057658
2420.0 0.00041929141445000006
2430.0 0.00042483900599999997
2440.0 0.0004316779056500001
2450.0 0.00044005489285
2460.0 0.00045021345145000003
2470.0 0.00046236485295
2480.0 0.00047665288930000006
2490.0 0.0004931161500500001
2500.0 0.00051165347205
2510.0 0.000531999292
2520.0 0.0005537155305
2530.0 0.0005762045765000001
2540.0 0.0005987453035
2550.0 0.0006205486935000001
2560.0 0.0006408262635000001
2570.0 0.0006588612739999999
2580.0 0.0006740706285
2590.0 0.0006860492785
2600.0 0.0006945909815
2610.0 0.0006996848235000001
2620.0 0.0007014915185
2630.0 0.0007003060655
2640.0 0.0006965141460000001
2650.0 0.0006904709465
2660.0 0.000678626849
2670.0 0.0006308741400000001
2680.0 0.0005997563465
2690.0 0.0008236510110000002
2700.0 0.001313902755
2710.0 0.0018925111400000002
2720.0 0.0022936303325000003
2730.0 0.0024299569459999997
2740.0 0.0024732352895000006
2750.0 0.0025285606025000004
2760.0 0.002550353132
2770.0 0.0025505505470000004
2780.0 0.0026177435510000005
2790.0 0.0028110369645000005
2800.0 0.0029007034995000005
2810.0 0.002891468169
2820.0 0.0028456358425000003
2830.0 0.0027174027625
2840.0 0.0026023993230000005
2850.0 0.0026004932250000006
2860.0 0.0026171957645000003
2870.0 0.0026268202005
2880.0 0.002661504625
2890.0 0.0028267244485000007
2900.0 0.0031199204985
2910.0 0.0034334705165
2920.0 0.0037363665445000003
2930.0 0.003960591518
2940.0 0.004067348735
2950.0 0.0040291243225
2960.0 0.003920185857
2970.0 0.0038301023965000005
2980.0 0.003755995534
2990.0 0.003616250538
3000.0 0.0033950966785
3010.0 0.003184593599
3020.0 0.0030428477030000007
3030.0 0.0030408270615
3040.0 0.0031061364375
3050.0 0.0031380614925
3060.0 0.0031376462790000006
3070.0 0.003150272065
3080.0 0.0032088227325
3090.0 0.0031592372205000003
3100.0 0.003016417526
3110.0 0.0030385530975
3120.0 0.0031969416665
3130.0 0.003297686179
3140.0 0.0033528607825
3150.0 0.003406917771
3160.0 0.0035112151650000005
3170.0 0.0037137610825
3180.0 0.004016991539
3190.0 0.0043043554470000005
3200.0 0.004471891820500001
3210.0 0.004434371896
3220.0 0.0042453005955000005
3230.0 0.003988831332500001
3240.0 0.003771336338
3250.0 0.003592715781
3260.0 0.0034220497109999997
3270.0 0.003264207377
3280.0 0.003122408837
3290.0 0.0030377382390000002
3300.0 0.00301809978
3310.0 0.003044038078
3320.0 0.003100439811
3330.0 0.0031424708555
3340.0 0.0031436360855000007
3350.0 0.0030654739764999998
3360.0 0.0029712802715
3370.0 0.0030269517295000003
3380.0 0.0031918867725000003
3390.0 0.0033612224045000004
3400.0 0.003536257659
3410.0 0.0037672559465
3420.0 0.0040508852335
3430.0 0.004279470029
3440.0 0.0043750768295
3450.0 0.0043480829765
3460.0 0.0042479187784999995
3470.0 0.0041447045990000006
3480.0 0.004064061855500001
3490.0 0.0040010156365
3500.0 0.0039942019835
3510.0 0.004093544475
3520.0 0.0042396452710000004
3530.0 0.004386392507500001
3540.0 0.0045453157555000005
3550.0 0.0047128594585
3560.0 0.0048855011229999995
3570.0 0.0050851469125
3580.0 0.0053181290335
3590.0 0.005543345255
3600.0 0.0057011702550000005
3610.0 0.00577500293
3620.0 0.005803663415000001
3630.0 0.00581987873
3640.0 0.005833122655
3650.0 0.0058785361300000005
3660.0 0.0060398225800000005
3670.0 0.00637881677
3680.0 0.00687611853
3690.0 0.007518381750000001
3700.0 0.008261641735
3710.0 0.009003262480000001
3720.0 0.009625581435
3730.0 0.009915250229999999
3740.0 0.009770981595
3750.0 0.009229128245
3760.0 0.008359441875
3770.0 0.007299980305
3780.0 0.006225372885
3790.0 0.005253977397500001
3800.0 0.004418737858499999
3810.0 0.003777718567
3820.0 0.003466157572
3830.0 0.0035575595400000005
3840.0 0.0040438069695
3850.0 0.004861898207
3860.0 0.005883736865
3870.0 0.00697084884
3880.0 0.0080434896
3890.0 0.009099037645
3900.0 0.010181954685000001
3910.0 0.011312470140000001
3920.0 0.01242419051
3930.0 0.013389320345000002
3940.0 0.014101164060000003
3950.0 0.014523226095000001
3960.0 0.014696264890000001
3970.0 0.01471561156
3980.0 0.014665957674999999
3990.0 0.014555129214999999
4000.0 0.014320392615000002
4010.0 0.013904352540000001
4020.0 0.013316387540000002
4030.0 0.012620716875000002
4040.0 0.011887508469999999
4050.0 0.01117728099
4060.0 0.010554129575000001
4070.0 0.01006718809
4080.0 0.00970911152
4090.0 0.009426520775
4100.0 0.009185425700000001
4110.0 0.009006460175
4120.0 0.008930356960000002
4130.0 0.008966496745000002
4140.0 0.009082602445
4150.0 0.009235637055
4160.0 0.00940275447
4170.0 0.009582376975000001
4180.0 0.009776016480000002
4190.0 0.009977037915
4200.0 0.010171528605000002
4210.0 0.01034249481
4220.0 0.010478427075000001
4230.0 0.01058366211
4240.0 0.010675479345000002
4250.0 0.010769749555000001
4260.0 0.010874615975
4270.0 0.01099822933
4280.0 0.011153539830000002
4290.0 0.01134698834
4300.0 0.011563279210000001
4310.0 0.011766150675000002
4320.0 0.011910230455
4330.0 0.011945467695000002
4340.0 0.011819356425000002
4350.0 0.011495700685
4360.0 0.01098066956
4370.0 0.010325742355
4380.0 0.0096030574
4390.0 0.00888081489
4400.0 0.008216432630000001
4410.0 0.00765785304
4420.0 0.007241404225000001
4430.0 0.006988344410000001
4440.0 0.0069085406000000005
4450.0 0.007008439545
4460.0 0.00729070929
4470.0 0.00774506232
4480.0 0.00834622363
4490.0 0.00906688896
4500.0 0.009893086785000001
4510.0 0.01082658207
4520.0 0.01187403824
4530.0 0.013034270270000002
4540.0 0.01429293588
4550.0 0.015623833980000001
4560.0 0.016989887465000002
4570.0 0.01834305173
4580.0 0.01962936079
4590.0 0.02079816138
4600.0 0.021806856800000003
4610.0 0.022620198039999997
4620.0 0.023208087605
4630.0 0.023543763725
4640.0 0.023603573515
4650.0 0.023370111820000004
4660.0 0.022841143945000003
4670.0 0.022040587065
4680.0 0.021020444250000003
4690.0 0.019847072620000003
4700.0 0.01858307413
4710.0 0.017281989440000003
4720.0 0.0159934719
4730.0 0.014761351385
4740.0 0.013612207230000001
4750.0 0.012553878790000002
4760.0 0.01159458848
4770.0 0.010763802495000002
4780.0 0.01011047494
4790.0 0.009676956415
4800.0 0.00947143991
4810.0 0.009457978775
4820.0 0.009565500935
4830.0 0.0097093298
4840.0 0.00981950984
4850.0 0.00986782462
4860.0 0.009879428235000001
4870.0 0.009918587025
4880.0 0.010055793660000001
4890.0 0.010337963895
4900.0 0.01077729894
4910.0 0.011356031445000001
4920.0 0.012034128965000002
4930.0 0.012751384205
4940.0 0.013426088220000002
4950.0 0.013959344120000002
4960.0 0.01425131609
4970.0 0.014227019600000002
4980.0 0.013862937120000002
4990.0 0.01320163218
5000.0 0.012346139360000001
5010.0 0.01143229302
5020.0 0.010589047955000002
5030.0 0.009905524465000001
5040.0 0.009418532155000001
5050.0 0.009121012235
5060.0 0.008981849105
5070.0 0.008965049035
5080.0 0.009039656390000001
5090.0 0.0091795728
5100.0 0.00935977685
5110.0 0.00955543384
5120.0 0.009744685275
5130.0 0.009912806885
5140.0 0.010056017290000002
5150.0 0.01018272027
5160.0 0.010309837875
5170.0 0.010455590065
5180.0 0.010633596335
5190.0 0.01085109791
5200.0 0.01111033537
5210.0 0.011410027389999999
5220.0 0.01174576129
5230.0 0.01211012518
5240.0 0.01249362816
5250.0 0.012886374335000002
5260.0 0.013279155285
5270.0 0.013663077170000001
5280.0 0.014028496614999999
5290.0 0.0143647714
5300.0 0.014661465280000001
5310.0 0.01491029378
5320.0 0.015106469185
5330.0 0.01524860531
5340.0 0.0153373907
5350.0 0.015373719340000001
5360.0 0.01535690108
5370.0 0.01528335463
5380.0 0.015146772340000001
5390.0 0.014941553829999999
5400.0 0.014671208165000001
5410.0 0.014354728915000002
5420.0 0.014025060310000002
5430.0 0.01372040349
5440.0 0.013474062205000002
5450.0 0.013307369045000001
5460.0 0.013226409100000001
5470.0 0.013221757275
5480.0 0.01327082908
5490.0 0.013342415290000001
5500.0 0.013402288210000002
5510.0 0.01341826866
5520.0 0.01336340976
5530.0 0.01321719105
5540.0 0.012966126785
5550.0 0.012605140885000001
5560.0 0.01213911469
5570.0 0.011582509785
5580.0 0.010956191705
5590.0 0.010283648555000002
5600.0 0.009587076950000002
5610.0 0.00888540198
5620.0 0.00819455755
5630.0 0.007528888615
5640.0 0.0069031799000000005
5650.0 0.00633437539
5660.0 0.005842088185
5670.0 0.005447856315000001
5680.0 0.0051735728360000005
5690.0 0.005039378358000001
5700.0 0.0050613099875
5710.0 0.005249313267500001
5720.0 0.0056060461850000005
5730.0 0.006126289280000001
5740.0 0.006796629835
5750.0 0.0075955234
5760.0 0.00849407088
5770.0 0.00945752991
5780.0 0.010447281515
5790.0 0.011422999535
5800.0 0.012344909395
5810.0 0.01317623894
5820.0 0.01388613365
5830.0 0.014452834005000002
5840.0 0.01486595726
5850.0 0.015126542385000002
5860.0 0.015244660220000003
5870.0 0.015237097995
5880.0 0.015124624410000002
5890.0 0.014927648110000002
5900.0 0.01466109506
5910.0 0.014331319455
5920.0 0.013937677155000001
5930.0 0.013478041535
5940.0 0.012954515145
5950.0 0.012376088125
5960.0 0.011757936285000001
5970.0 0.01111917785
5980.0 0.010480763955
5990.0 0.009864059825000002
6000.0 0.009289866794999999
6010.0 0.008777432560000001
6020.0 0.008343015770000002
6030.0 0.00799797822
6040.0 0.007746894695000001
6050.0 0.00758643482
6060.0 0.007505609694999999
6070.0 0.007487681845
6080.0 0.0075134420950000004
6090.0 0.007565165895000002
6100.0 0.007629909454999999
6110.0 0.00770082531
6120.0 0.007776171500000002
6130.0 0.007856916375000002
6140.0 0.007944225700000002
6150.0 0.008037656495
6160.0 0.00813415391
6170.0 0.008227661745
6180.0 0.008309220355
6190.0 0.008367616675
6200.0 0.008390605090000001
6210.0 0.008366577705000001
6220.0 0.00828640635
6230.0 0.008145151370000001
6240.0 0.00794335365
6250.0 0.00768769748
6260.0 0.007390888040000001
6270.0 0.00707067877
6280.0 0.006748136900000001
6290.0 0.00644548419
6300.0 0.00618394837
6310.0 0.0059819120400000005
6320.0 0.005853346725000001
6330.0 0.005806662624999999
6340.0 0.00584411958
6350.0 0.005962345485000001
6360.0 0.00615399158
6370.0 0.006410016365000001
6380.0 0.006722007500000001
6390.0 0.007083256620000001
6400.0 0.007486196685000001
6410.0 0.00791627623
6420.0 0.008348787350000001
6430.0 0.008755332245
6440.0 0.009114997230000001
6450.0 0.009418453509999999
6460.0 0.009662655329999999
6470.0 0.009844309765
6480.0 0.009958060929999998
6490.0 0.009998307375
6500.0 0.009961490815
6510.0 0.009847332515
6520.0 0.009659000745
6530.0 0.009402726650000002
6540.0 0.009087267110000002
6550.0 0.008723318915
6560.0 0.00832267935
6570.0 0.007896845565000001
6580.0 0.0074559986099999994
6590.0 0.007008761080000001
6600.0 0.0065627545849999995
6610.0 0.006125338585000001
6620.0 0.005703766610000001
6630.0 0.005304558223500001
6640.0 0.004932563040000001
6650.0 0.0045903949090000005
6660.0 0.0042785851925
6670.0 0.003996322135
6680.0 0.003742361915
6690.0 0.0035157073995
6700.0 0.0033158510340000006
6710.0 0.0031426073875
6720.0 0.0029957327675000003
6730.0 0.0028745937875
6740.0 0.0027780670545000004
6750.0 0.0027046547825
6760.0 0.0026526228760000003
6770.0 0.002620022758
6780.0 0.0026046993415000004
6790.0 0.0026044864115
6800.0 0.0026175581200000003
6810.0 0.0026426762095000003
6820.0 0.0026791762635000006
6830.0 0.0027267927080000002
6840.0 0.0027855036080000005
6850.0 0.0028554751345
6860.0 0.0029370211185
6870.0 0.0030302177975
6880.0 0.0031343079325
6890.0 0.0032470061105
6900.0 0.0033641259030000002
6910.0 0.0034799057880000005
6920.0 0.0035880691990000002
6930.0 0.0036832618025
6940.0 0.0037623241025
6950.0 0.0038249597625000004
6960.0 0.003873642462
6970.0 0.003912886103
6980.0 0.003948168711
6990.0 0.0039848276065
7000.0 0.00402718468
7010.0 0.004078061789000001
7020.0 0.004138714846
7030.0 0.0042090706095000005
7040.0 0.0042880646435
7050.0 0.004373913311500001
7060.0 0.0044642933225
7070.0 0.0045565311745
7080.0 0.0046479048945000006
7090.0 0.004736049194
7100.0 0.004819328364000001
7110.0 0.0048970229899999995
7120.0 0.004969270888
7130.0 0.005036834433000001
7140.0 0.0051007690195
7150.0 0.005162237042
7160.0 0.0052223882155
7170.0 0.0052821915855
7180.0 0.0053422088485000005
7190.0 0.005402319255
7200.0 0.0054614742050000005
7210.0 0.005517610150000001
7220.0 0.005567814015000001
7230.0 0.005608749005000001
7240.0 0.005637266110000001
7250.0 0.005651084625
7260.0 0.0056493918850000005
7270.0 0.005633209205000001
7280.0 0.005605345870000001
7290.0 0.005569859855
7300.0 0.005531144580000001
7310.0 0.0054897853350000005
7320.0 0.0054460474800000006
7330.0 0.005405200230000001
7340.0 0.005366322315000001
7350.0 0.0053274599684999995
7360.0 0.005286329543
7370.0 0.005241042542
7380.0 0.005190684276000001
7390.0 0.0051355541845
7400.0 0.0050769207525
7410.0 0.005016335801000001
7420.0 0.0049548350365
7430.0 0.004892448579500001
7440.0 0.0048281856635
7450.0 0.0047603754834999994
7460.0 0.004687172022
7470.0 0.0046071539980000005
7480.0 0.004519930487
7490.0 0.0044265350020000005
7500.0 0.004329332885
7510.0 0.004231374385
7520.0 0.0041354604945000005
7530.0 0.004043439264
7540.0 0.0039561300995
7550.0 0.003873885887
7560.0 0.003797387949
7570.0 0.003728186662
7580.0 0.0036687407255
7590.0 0.0036219883595000005
7600.0 0.003590615478
7610.0 0.0035762865195
7620.0 0.0035792240975
7630.0 0.0035984116585
7640.0 0.0036321934845
7650.0 0.003678610138
7660.0 0.0037350468065
7670.0 0.003797557972
7680.0 0.0038606703170000005
7690.0 0.0039180424330000005
7700.0 0.0039636177455
7710.0 0.003992627960000001
7720.0 0.004002080928500001
7730.0 0.003990763271000001
7740.0 0.0039590000535
7750.0 0.003908406013
7760.0 0.0038417315844999998
7770.0 0.003762744131
7780.0 0.0036759940415000006
7790.0 0.0035863480505000005
7800.0 0.0034983095205
7810.0 0.0034152918050000002
7820.0 0.0033390625440000003
7830.0 0.0032695087990000002
7840.0 0.0032047567860000003
7850.0 0.0031415985915
7860.0 0.0030761530580000005
7870.0 0.0030046689260000005
7880.0 0.0029243325235
7890.0 0.0028338987985
7900.0 0.0027339836965
7910.0 0.0026269538435000003
7920.0 0.0025164643595000005
7930.0 0.0024067700995
7940.0 0.0023019587845
7950.0 0.0022052543245
7960.0 0.002118539438
7970.0 0.0020422146795
7980.0 0.0019754277940000004
7990.0 0.0019165826625
8000.0 0.0018639345965
8010.0 0.0018160494750000004
8020.0 0.0017719799735000001
8030.0 0.001731144547
8040.0 0.0016930232825
8050.0 0.0016568513975000001
8060.0 0.0016214663370000002
8070.0 0.001585375665
8080.0 0.0015469997405000002
8090.0 0.0015049706220000001
8100.0 0.0014583658090000001
8110.0 0.0014068136370000003
8120.0 0.001350485199
8130.0 0.001290032553
8140.0 0.001226533296
8150.0 0.0011614630115000001
8160.0 0.001096669001
8170.0 0.00103429196
8180.0 0.0009765918355
8190.0 0.0009256743875
8200.0 0.0008831703495000001
8210.0 0.0008499624180000001
8220.0 0.0008260631655000001
8230.0 0.0008107004265000001
8240.0 0.0008025884355
8250.0 0.0008002917875000001
8260.0 0.0008025599200000001
8270.0 0.0008085359235
8280.0 0.000817801107
8290.0 0.0008302788585000001
8300.0 0.0008460597
8310.0 0.000865220618
8320.0 0.0008877083265000001
8330.0 0.000913337662
8340.0 0.0009419208930000001
8350.0 0.000973490922
8360.0 0.0010085212775
8370.0 0.0010480219325
8380.0 0.0010934236375
8390.0 0.001146253229
8400.0 0.001207703115
8410.0 0.0012782533510000001
8420.0 0.001357477435
8430.0 0.0014440720000000002
8440.0 0.0015360478625
8450.0 0.0016309675625000002
8460.0 0.0017261404780000002
8470.0 0.0018187662050000004
8480.0 0.0019060891725
8490.0 0.0019856378410000003
8500.0 0.0020555559745
8510.0 0.002114938995
8520.0 0.0021640277060000004
8530.0 0.0022041382075000003
8540.0 0.0022373059605
8550.0 0.0022657460255
8560.0 0.0022913041525
8570.0 0.0023150769310000003
8580.0 0.0023373136175
8590.0 0.0023576182585
8600.0 0.002375375925
8610.0 0.0023902555055
8620.0 0.002402606676
8630.0 0.0024135945595
8640.0 0.002425005093
8650.0 0.002438776314
8660.0 0.002456413017
8670.0 0.0024784744910000002
8680.0 0.0025042891505000003
8690.0 0.00253198487
8700.0 0.002558856315
8710.0 0.002582015288
8720.0 0.0025991849895
8730.0 0.0026094324865000005
8740.0 0.0026135967125
8750.0 0.0026141654175
8760.0 0.0026144627170000003
8770.0 0.0026173214895
8780.0 0.002623808311
8790.0 0.0026326663059999997
8800.0 0.002640750584
8810.0 0.002644157357
8820.0 0.002639451283
8830.0 0.0026245182025000004
8840.0 0.0025988667715
8850.0 0.0025634362895000005
8860.0 0.002520087754
8870.0 0.002471000434
8880.0 0.0024181829335
8890.0 0.0023632248445
8900.0 0.0023072922529999997
8910.0 0.0022512652875000005
8920.0 0.0021958885075000004
8930.0 0.002141849281
