#lamb flux
1000.0 2.3364321400000003e-06
1010.0 2.8311030300000005e-06
1020.0 3.4416589900000005e-06
1030.0 4.19155373e-06
1040.0 5.1099279700000004e-06
1050.0 6.230078470000001e-06
1060.0 7.5891802e-06
1070.0 9.227628200000001e-06
1080.0 1.1187953700000001e-05
1090.0 1.3513306800000003e-05
1100.0 1.62455825e-05
1110.0 1.94233025e-05
1120.0 2.3079438200000005e-05
1130.0 2.7239351300000003e-05
1140.0 3.191902630000001e-05
1150.0 3.71236936e-05
1160.0 4.284691390000001e-05
1170.0 4.9070106400000006e-05
1180.0 5.57625173e-05
1190.0 6.28815817e-05
1200.0 7.037365300000002e-05
1210.0 7.8175125e-05
1220.0 8.621384800000001e-05
1230.0 9.4410911e-05
1240.0 0.000102682678
1250.0 0.00011094305600000002
1260.0 0.000119105812
1270.0 0.000127087002
1280.0 0.000134807155
1290.0 0.000142193436
1300.0 0.000149181389
1310.0 0.000155716358
1320.0 0.00016175464200000002
1330.0 0.00016726412500000002
1340.0 0.00017222460500000003
1350.0 0.000176627801
1360.0 0.000180476989
1370.0 0.00018378638600000002
1380.0 0.00018658033800000002
1390.0 0.000188892312
1400.0 0.00019076371300000001
1410.0 0.00019224265200000002
1420.0 0.00019338256000000004
1430.0 0.000194240844
1440.0 0.00019487744500000002
1450.0 0.00019535346600000003
1460.0 0.000195729814
1470.0 0.00019606596800000002
1480.0 0.000196418803
1490.0 0.000196841589
1500.0 0.000197383228
1510.0 0.000198087568
1520.0 0.00019899305300000002
1530.0 0.00020013255500000003
1540.0 0.00020153340200000002
1550.0 0.00020321763700000003
1560.0 0.000205202473
1570.0 0.00020750083900000004
1580.0 0.000210122066
1590.0 0.000213072552
1600.0 0.00021635649000000003
1610.0 0.00021997647700000003
1620.0 0.00022393402500000005
1630.0 0.00022822998100000002
1640.0 0.00023286480700000003
1650.0 0.00023783865000000001
1660.0 0.000243151398
1670.0 0.00024880261
1680.0 0.0002547913410000001
1690.0 0.000261115981
1700.0 0.000267774087
1710.0 0.00027476218
1720.0 0.000282075556
1730.0 0.000289708146
1740.0 0.00029765232
1750.0 0.000305898803
1760.0 0.00031443647200000003
1770.0 0.000323252328
1780.0 0.000332331307
1790.0 0.00034165629400000004
1800.0 0.00035120802500000005
1810.0 0.000360965129
1820.0 0.000370904107
1830.0 0.00038099938800000005
1840.0 0.00039122338500000004
1850.0 0.00040154655800000007
1860.0 0.000411937477
1870.0 0.00042236289200000003
1880.0 0.0004327878520000001
1890.0 0.000443175789
1900.0 0.00045348874200000006
1910.0 0.0004636875250000001
1920.0 0.000473732112
1930.0 0.00048358196600000006
1940.0 0.0004931966060000001
1950.0 0.0005025361180000001
1960.0 0.000511561862
1970.0 0.000520237109
1980.0 0.000528527748
1990.0 0.000536402979
2000.0 0.0005438358800000001
2010.0 0.000550803883
2020.0 0.000557289208
2030.0 0.0005632790800000001
2040.0 0.0005687657850000001
2050.0 0.0005737465930000001
2060.0 0.0005782236740000001
2070.0 0.0005822037200000002
2080.0 0.0005856975740000001
2090.0 0.000588719929
2100.0 0.0005912887960000001
2110.0 0.0005934251540000001
2120.0 0.0005951524810000001
2130.0 0.000596496439
2140.0 0.0005974845380000001
2150.0 0.0005981458140000001
2160.0 0.0005985105770000001
2170.0 0.000598610222
2180.0 0.0005984770540000001
2190.0 0.000598144106
2200.0 0.000597644992
2210.0 0.0005970138510000001
2220.0 0.000596285242
2230.0 0.000595494074
2240.0 0.000594675522
2250.0 0.0005938649710000001
2260.0 0.0005930979810000001
2270.0 0.0005924101960000001
2280.0 0.000591837232
2290.0 0.000591414698
2300.0 0.0005911781190000001
2310.0 0.000591162992
2320.0 0.0005914051500000001
2330.0 0.0005919413570000001
2340.0 0.000592810666
2350.0 0.0005940565330000001
2360.0 0.000595730296
2370.0 0.00059789611
2380.0 0.0006006375200000001
2390.0 0.000604065623
2400.0 0.0006083278460000001
2410.0 0.000613616367
2420.0 0.0006201739110000001
2430.0 0.000628294464
2440.0 0.0006383157830000001
2450.0 0.0006506013360000001
2460.0 0.000665509747
2470.0 0.0006833521240000001
2480.0 0.00070434014
2490.0 0.0007285303900000001
2500.0 0.0007557734800000001
2510.0 0.00078567769
2520.0 0.0008175972700000001
2530.0 0.00085065148
2540.0 0.00088377758
2550.0 0.0009158133600000001
2560.0 0.0009455975900000002
2570.0 0.0009720747400000002
2580.0 0.00099438703
2590.0 0.0010119387600000002
2600.0 0.0010244274600000002
2610.0 0.00103183836
2620.0 0.00103440953
2630.0 0.0010325766500000001
2640.0 0.0010269088200000002
2650.0 0.0010179299200000001
2660.0 0.0010004092000000001
2670.0 0.0009299773700000002
2680.0 0.0008840262900000001
2690.0 0.0012136275900000004
2700.0 0.00193515469
2710.0 0.00278640285
2720.0 0.0033762748600000003
2730.0 0.0035764495900000005
2740.0 0.0036396502100000004
2750.0 0.0037205552300000003
2760.0 0.0037521944600000007
2770.0 0.0037521448300000004
2780.0 0.0038505209400000007
2790.0 0.0041341624099999995
2800.0 0.004265400020000001
2810.0 0.0042512148
2820.0 0.00418327595
2830.0 0.0039943470000000005
2840.0 0.0038248970900000004
2850.0 0.0038216040800000003
2860.0 0.003845664760000001
2870.0 0.00385938749
2880.0 0.003909953180000001
2890.0 0.00415209095
2900.0 0.00458132451
2910.0 0.005035873570000001
2920.0 0.00546873558
2930.0 0.005771908730000001
2940.0 0.00579753181
2950.0 0.00550660418
2960.0 0.005241070100000001
2970.0 0.005108001360000001
2980.0 0.00500496654
2990.0 0.00479367294
3000.0 0.00445458013
3010.0 0.0041460118
3020.0 0.00395300108
3030.0 0.00394391935
3040.0 0.003985050790000001
3050.0 0.0039466357
3060.0 0.00391168141
3070.0 0.00391961724
3080.0 0.0039798105900000005
3090.0 0.003938354420000001
3100.0 0.0038138247700000008
3110.0 0.0038793314700000005
3120.0 0.0041020017500000006
3130.0 0.0042544082
3140.0 0.004323511150000001
3150.0 0.004373314610000001
3160.0 0.00450939244
3170.0 0.00479264338
3180.0 0.0051842773500000005
3190.0 0.005533727990000001
3200.0 0.0057369137
3210.0 0.005703703740000001
3220.0 0.005478727450000001
3230.0 0.0051492562100000005
3240.0 0.004846771370000001
3250.0 0.0045911760300000005
3260.0 0.00438039805
3270.0 0.0042607489400000005
3280.0 0.00419924939
3290.0 0.00413617729
3300.0 0.00409204425
3310.0 0.004105476970000001
3320.0 0.00416511508
3330.0 0.00421884701
3340.0 0.00426038109
3350.0 0.00431730061
3360.0 0.004434063900000001
3370.0 0.004615743930000001
3380.0 0.0048176784600000005
3390.0 0.00501813151
3400.0 0.00521782289
3410.0 0.00544072613
3420.0 0.005683337169999999
3430.0 0.0058774191
3440.0 0.00599969384
3450.0 0.0060616624600000005
3460.0 0.00606757858
3470.0 0.006057982840000001
3480.0 0.006060113220000001
3490.0 0.00609319242
3500.0 0.006197407650000001
3510.0 0.00641204018
3520.0 0.00671302989
3530.0 0.007054321400000001
3540.0 0.007397855500000001
3550.0 0.0077070301000000015
3560.0 0.0079648436
3570.0 0.0081942469
3580.0 0.008411964400000001
3590.0 0.0085947358
3600.0 0.0087148502
3610.0 0.008768565400000001
3620.0 0.008797214300000002
3630.0 0.0088497486
3640.0 0.008971779600000002
3650.0 0.009217396300000001
3660.0 0.0096510281
3670.0 0.010294157300000002
3680.0 0.011058903100000001
3690.0 0.011853208500000002
3700.0 0.012660506600000001
3710.0 0.013496208600000002
3720.0 0.0141958397
3730.0 0.0144047288
3740.0 0.014023482900000004
3750.0 0.0132012979
3760.0 0.0120762852
3770.0 0.010749781700000002
3780.0 0.0093512223
3790.0 0.008012413500000001
3800.0 0.0068050125500000004
3810.0 0.00586154205
3820.0 0.005434977590000001
3830.0 0.005668172930000001
3840.0 0.00656238884
3850.0 0.0080047065
3860.0 0.0097466621
3870.0 0.0115235113
3880.0 0.013208244700000002
3890.0 0.0148490167
3900.0 0.0165724594
3910.0 0.0184174627
3920.0 0.020234676
3930.0 0.021767843300000003
3940.0 0.022831762100000003
3950.0 0.0233990295
3960.0 0.023568717900000005
3970.0 0.023492900200000003
3980.0 0.0232886864
3990.0 0.0229614091
4000.0 0.0224157668
4010.0 0.021575655500000002
4020.0 0.0204899821
4030.0 0.0192991939
4040.0 0.0181311242
4050.0 0.017072304900000005
4060.0 0.016196094600000002
4070.0 0.015542233700000001
4080.0 0.015067308200000002
4090.0 0.0146712713
4100.0 0.014300250300000001
4110.0 0.013998642700000003
4120.0 0.013843526200000001
4130.0 0.013851247900000002
4140.0 0.013964152300000003
4150.0 0.014111195000000003
4160.0 0.014263667600000002
4170.0 0.014438312700000002
4180.0 0.014661248000000002
4190.0 0.014931225400000001
4200.0 0.0152106822
4210.0 0.0154485807
4220.0 0.015617804300000003
4230.0 0.015736654500000002
4240.0 0.015850695
4250.0 0.0159923085
4260.0 0.016166304700000002
4270.0 0.016373926100000002
4280.0 0.016633777300000003
4290.0 0.0169619947
4300.0 0.0173359774
4310.0 0.0176894606
4320.0 0.017935083600000002
4330.0 0.017980388300000004
4340.0 0.017741535000000003
4350.0 0.0171777228
4360.0 0.016325569400000003
4370.0 0.015288784700000002
4380.0 0.014186402300000001
4390.0 0.013113305800000002
4400.0 0.0121418969
4410.0 0.011336315199999999
4420.0 0.010748166100000001
4430.0 0.0104066795
4440.0 0.010324343400000002
4450.0 0.010508609300000001
4460.0 0.010957536800000002
4470.0 0.011645252500000002
4480.0 0.0125253212
4490.0 0.013557308100000002
4500.0 0.0147286146
4510.0 0.0160488223
4520.0 0.017526599300000004
4530.0 0.0191532936
4540.0 0.020901776
4550.0 0.0227307192
4560.0 0.024583803300000002
4570.0 0.026388721099999998
4580.0 0.028068108600000006
4590.0 0.029556923900000004
4600.0 0.030807906500000003
4610.0 0.0317834496
4620.0 0.032448950100000006
4630.0 0.03277121190000001
4640.0 0.03271623110000001
4650.0 0.0322503888
4660.0 0.0313562466
4670.0 0.0300587112
4680.0 0.028437100300000004
4690.0 0.026607623700000003
4700.0 0.0246929354
4710.0 0.022804024600000007
4720.0 0.0210335965
4730.0 0.0194446245
4740.0 0.0180576305
4750.0 0.0168594349
4760.0 0.0158378794
4770.0 0.015012356800000001
4780.0 0.014429334500000002
4790.0 0.014127309000000003
4800.0 0.014101024000000002
4810.0 0.014288862000000001
4820.0 0.014585287500000002
4830.0 0.014871805200000001
4840.0 0.015060402000000002
4850.0 0.015135148700000002
4860.0 0.0151653964
4870.0 0.015273779500000003
4880.0 0.015576546300000002
4890.0 0.0161358778
4900.0 0.016947812700000002
4910.0 0.017956799000000002
4920.0 0.0190738254
4930.0 0.020184811500000004
4940.0 0.0211530298
4950.0 0.021829283700000004
4960.0 0.0220792481
4970.0 0.021822926300000003
4980.0 0.0210693007
4990.0 0.019924648100000004
5000.0 0.018568626300000002
5010.0 0.017203991000000002
5020.0 0.016000257
5030.0 0.015056246800000003
5040.0 0.014394576700000002
5050.0 0.013983109
5060.0 0.0137671065
5070.0 0.013694905
5080.0 0.013727596400000002
5090.0 0.013835108700000001
5100.0 0.013989038
5110.0 0.014160519800000002
5120.0 0.0143241385
5130.0 0.014465051300000002
5140.0 0.014585680200000001
5150.0 0.014706984600000002
5160.0 0.014860885900000002
5170.0 0.015077423900000001
5180.0 0.015375288600000002
5190.0 0.015760351600000003
5200.0 0.0162291962
5210.0 0.016771692700000004
5220.0 0.0173712287
5230.0 0.0180061161
5240.0 0.018654480600000002
5250.0 0.019299984200000005
5260.0 0.019933363800000003
5270.0 0.0205484349
5280.0 0.0211367968
5290.0 0.0216861071
5300.0 0.022182240500000006
5310.0 0.022611857100000004
5320.0 0.0229644646
5330.0 0.023237498900000004
5340.0 0.023440877600000007
5350.0 0.0235887694
5360.0 0.023683550800000005
5370.0 0.023712700200000006
5380.0 0.023660108500000002
5390.0 0.0235177446
5400.0 0.023296528500000004
5410.0 0.0230313573
5420.0 0.0227745546
5430.0 0.022580687500000005
5440.0 0.022491508900000002
5450.0 0.022527290100000003
5460.0 0.022684627700000005
5470.0 0.022938572299999998
5480.0 0.023247896000000004
5490.0 0.023562415100000005
5500.0 0.0238302925
5510.0 0.0240035047
5520.0 0.0240413292
5530.0 0.0239129366
5540.0 0.023599676100000005
5550.0 0.0230964517
5560.0 0.0224113337
5570.0 0.021563175200000003
5580.0 0.020578062400000003
5590.0 0.0194872265
5600.0 0.018323840500000004
5610.0 0.017119475800000002
5620.0 0.015903781600000003
5630.0 0.014706127100000002
5640.0 0.013558626900000002
5650.0 0.012498742900000002
5660.0 0.011569634300000001
5670.0 0.010817770600000002
5680.0 0.0102883893
5690.0 0.0100198161
5700.0 0.0100381036
5710.0 0.0103536405
5720.0 0.010960423600000003
5730.0 0.011837066500000002
5740.0 0.012948235300000001
5750.0 0.0142461277
5760.0 0.015672485500000003
5770.0 0.0171617698
5780.0 0.0186457229
5790.0 0.020058660300000003
5800.0 0.0213421586
5810.0 0.0224483322
5820.0 0.023342392500000003
5830.0 0.024005263800000003
5840.0 0.0244351555
5850.0 0.024645608400000005
5860.0 0.024660113800000005
5870.0 0.0245072219
5880.0 0.024215972900000004
5890.0 0.023812068700000005
5900.0 0.0233144737
5910.0 0.022733431000000002
5920.0 0.022071630000000002
5930.0 0.021328633900000005
5940.0 0.0205064972
5950.0 0.0196141295
5960.0 0.0186693325
5970.0 0.017698522100000003
5980.0 0.0167343141
5990.0 0.0158113452
6000.0 0.014961536800000001
6010.0 0.014210441700000001
6020.0 0.013575502500000001
6030.0 0.013065822
6040.0 0.012682376000000002
6050.0 0.012418158900000002
6060.0 0.012258797600000001
6070.0 0.012184677400000002
6080.0 0.0121751917
6090.0 0.012213310199999999
6100.0 0.012288255000000001
6110.0 0.012395076400000002
6120.0 0.012531926399999999
6130.0 0.0126970277
6140.0 0.0128867606
6150.0 0.013094912600000003
6160.0 0.013312269600000001
6170.0 0.0135260013
6180.0 0.013719047300000002
6190.0 0.013870285100000003
6200.0 0.013956156899999999
6210.0 0.0139538714
6220.0 0.013845589100000001
6230.0 0.013622583100000002
6240.0 0.013288252600000001
6250.0 0.0128591967
6260.0 0.0123640055
6270.0 0.011839946300000001
6280.0 0.0113282673
6290.0 0.010869296900000002
6300.0 0.010498562900000001
6310.0 0.010244222100000002
6320.0 0.0101247629
6330.0 0.0101459379
6340.0 0.0102998833
6350.0 0.0105698432
6360.0 0.0109381188
6370.0 0.011391144100000002
6380.0 0.011919961900000001
6390.0 0.0125181595
6400.0 0.013176527700000001
6410.0 0.013874037100000002
6420.0 0.014573519800000002
6430.0 0.015231518400000003
6440.0 0.0158151602
6450.0 0.016308714800000002
6460.0 0.016706337900000003
6470.0 0.0170029069
6480.0 0.017191519100000004
6490.0 0.017265973200000003
6500.0 0.0172235623
6510.0 0.017066058100000003
6520.0 0.016799067600000002
6530.0 0.0164308207
6540.0 0.015971276300000004
6550.0 0.015431738000000002
6560.0 0.014824469800000002
6570.0 0.0141623559
6580.0 0.013458538800000001
6590.0 0.012726331800000002
6600.0 0.011979564100000001
6610.0 0.011232790100000003
6620.0 0.0105007623
6630.0 0.009797136300000002
6640.0 0.009132988900000001
6650.0 0.0085158458
6660.0 0.0079495871
6670.0 0.007435156400000001
6680.0 0.00697170992
6690.0 0.0065577239
6700.0 0.00619169257
6710.0 0.00587226549
6720.0 0.00559798652
6730.0 0.005366976440000001
6740.0 0.0051768438400000005
6750.0 0.005024861730000001
6760.0 0.0049082041400000005
6770.0 0.00482406358
6780.0 0.00476968639
6790.0 0.0047424871200000005
6800.0 0.00474025433
6810.0 0.0047612763100000005
6820.0 0.004804259670000001
6830.0 0.00486811192
6840.0 0.004951758490000001
6850.0 0.00505411788
6860.0 0.00517419882
6870.0 0.0053106581500000005
6880.0 0.005461011920000001
6890.0 0.005620751500000001
6900.0 0.005782895790000001
6910.0 0.00593853295
6920.0 0.006078408980000001
6930.0 0.006195001540000001
6940.0 0.0062842441900000014
6950.0 0.006346274620000001
6960.0 0.0063850941000000005
6970.0 0.006407453150000001
6980.0 0.006421414930000001
6990.0 0.006434952510000001
7000.0 0.00645479471
7010.0 0.006485693480000001
7020.0 0.0065302222299999995
7030.0 0.0065890652800000005
7040.0 0.006661576810000001
7050.0 0.00674632455
7060.0 0.006841473030000001
7070.0 0.0069450378200000005
7080.0 0.007055125
7090.0 0.007170210600000001
7100.0 0.007289403800000001
7110.0 0.007412584900000001
7120.0 0.0075403272
7130.0 0.007673574300000001
7140.0 0.007812983500000002
7150.0 0.007958621300000001
7160.0 0.008109943100000001
7170.0 0.008265772900000001
7180.0 0.0084243418
7190.0 0.008583248100000001
7200.0 0.0087393047
7210.0 0.008888375300000001
7220.0 0.009025376500000001
7230.0 0.009144611
7240.0 0.0092404928
7250.0 0.0093086042
7260.0 0.009346857100000001
7270.0 0.0093563862
7280.0 0.0093417247
7290.0 0.0093100392
7300.0 0.0092695764
7310.0 0.009223498200000001
7320.0 0.0091744674
7330.0 0.009132638200000001
7340.0 0.009099125700000002
7350.0 0.009073582
7360.0 0.009054873100000001
7370.0 0.009041515000000002
7380.0 0.0090318557
7390.0 0.009024016400000001
7400.0 0.009015602400000001
7410.0 0.0090032607
7420.0 0.008982463000000001
7430.0 0.008947651300000001
7440.0 0.0088930212
7450.0 0.008813602000000002
7460.0 0.0087063046
7470.0 0.008570894500000002
7480.0 0.0084108892
7490.0 0.008234016700000001
7500.0 0.008051556100000001
7510.0 0.007876078
7520.0 0.0077180523
7530.0 0.0075829705
7540.0 0.007470827700000001
7550.0 0.007378330400000001
7560.0 0.007302028300000001
7570.0 0.007240122400000001
7580.0 0.0071924923000000005
7590.0 0.007160126400000001
7600.0 0.007144841900000001
7610.0 0.007149069900000001
7620.0 0.007175342300000001
7630.0 0.007225659700000001
7640.0 0.007300911800000001
7650.0 0.007400065400000001
7660.0 0.007519007300000001
7670.0 0.0076497302000000005
7680.0 0.007780815000000001
7690.0 0.0078993719
7700.0 0.007993514200000001
7710.0 0.008054221
7720.0 0.008076030900000001
7730.0 0.008056853700000002
7740.0 0.007997525900000002
7750.0 0.007901424300000001
7760.0 0.0077742091
7770.0 0.0076234207
7780.0 0.0074576299
7790.0 0.007285124700000001
7800.0 0.007112479500000001
7810.0 0.006943545420000001
7820.0 0.006779234770000001
7830.0 0.006618072020000001
7840.0 0.006457141600000001
7850.0 0.006293006230000001
7860.0 0.0061223897000000005
7870.0 0.00594266925
7880.0 0.005752303830000001
7890.0 0.005551224770000001
7900.0 0.0053410868
7910.0 0.0051252582500000005
7920.0 0.00490783692
7930.0 0.00469507381
7940.0 0.00449237145
7950.0 0.00430410295
7960.0 0.00413289156
7970.0 0.003979320590000001
7980.0 0.0038422190100000004
7990.0 0.0037194277400000005
8000.0 0.00360871917
8010.0 0.0035084624400000004
8020.0 0.0034177502800000004
8030.0 0.00333598055
8040.0 0.0032621561700000006
8050.0 0.0031942981700000006
8060.0 0.0031292855300000004
8070.0 0.00306320217
8080.0 0.0029920114700000004
8090.0 0.0029122471700000004
8100.0 0.0028214666900000006
8110.0 0.0027184118500000005
8120.0 0.0026030067700000005
8130.0 0.0024763788000000003
8140.0 0.0023409832600000003
8150.0 0.0022007361600000002
8160.0 0.0020609376900000004
8170.0 0.0019278009800000001
8180.0 0.0018075727600000003
8190.0 0.0017054521400000002
8200.0 0.0016246532400000001
8210.0 0.0015659370300000002
8220.0 0.00152777744
8230.0 0.0015070825000000003
8240.0 0.0015001882
8250.0 0.0015037673000000001
8260.0 0.00151537456
8270.0 0.0015335411700000002
8280.0 0.0015575354200000001
8290.0 0.00158702782
8300.0 0.00162187816
8310.0 0.00166212515
8320.0 0.00170811746
8330.0 0.0017606608600000003
8340.0 0.00182109137
8350.0 0.0018912468400000002
8360.0 0.0019733414400000004
8370.0 0.0020697313
8380.0 0.00218255597
8390.0 0.0023132800600000002
8400.0 0.0024622422300000003
8410.0 0.0026283608400000003
8420.0 0.00280909881
8430.0 0.00300067257
8440.0 0.0031983761600000004
8450.0 0.0033968772600000002
8460.0 0.0035904294300000005
8470.0 0.00377308715
8480.0 0.0039390836100000005
8490.0 0.004083476250000001
8500.0 0.00420299369
8510.0 0.004296821760000001
8520.0 0.00436698647
8530.0 0.00441807674
8540.0 0.0044562966
8550.0 0.004488108310000001
8560.0 0.00451889095
8570.0 0.00455202916
8580.0 0.00458867374
8590.0 0.004628187200000001
8600.0 0.00466906356
8610.0 0.004709971210000001
8620.0 0.00475054118
8630.0 0.00479161298
8640.0 0.004834884460000001
8650.0 0.004882164560000001
8660.0 0.00493460513
8670.0 0.004992265880000001
8680.0 0.00505416142
8690.0 0.0051186765
8700.0 0.005184072950000001
8710.0 0.00524883499
8720.0 0.0053117498
8730.0 0.005371794260000001
8740.0 0.005427963800000001
8750.0 0.005479144300000001
8760.0 0.00552402564
8770.0 0.00556100902
8780.0 0.005588102380000001
8790.0 0.00560289233
8800.0 0.005602717890000001
8810.0 0.005585112190000001
8820.0 0.00554842456
8830.0 0.005492413920000001
8840.0 0.005418555240000001
8850.0 0.00532989996
8860.0 0.005230506680000001
8870.0 0.005124637980000001
8880.0 0.0050159986800000006
8890.0 0.00490725235
8900.0 0.004799912460000001
