#lamb flux
1000.0 9.768945920000001e-06
1010.0 1.1836390825e-05
1020.0 1.4387978629999999e-05
1030.0 1.7521647505000003e-05
1040.0 2.1359079990000002e-05
1050.0 2.603930493e-05
1060.0 3.1717533315e-05
1070.0 3.8562414800000007e-05
1080.0 4.6751504650000004e-05
1090.0 5.64649486e-05
1100.0 6.78776542e-05
1110.0 8.11504585e-05
1120.0 9.642103840000001e-05
1130.0 0.00011379536135000002
1140.0 0.00013334023815
1150.0 0.0001550776252
1160.0 0.00017898075645
1170.0 0.00020497213715000003
1180.0 0.00023292336195000003
1190.0 0.00026265653265
1200.0 0.0002939472435
1210.0 0.0003265290752
1220.0 0.0003600994799
1230.0 0.00039432705184999997
1240.0 0.00042885990015
1250.0 0.00046333496310000007
1260.0 0.0004973877131
1270.0 0.0005306620113499999
1280.0 0.000562819572
1290.0 0.0005935486345
1300.0 0.0006225713145000001
1310.0 0.0006496500185000001
1320.0 0.0006745918790000001
1330.0 0.000697251911
1340.0 0.0007175342425000001
1350.0 0.0007353925960000001
1360.0 0.0007508284695
1370.0 0.000763889264
1380.0 0.000774664592
1390.0 0.0007832821580000001
1400.0 0.0007899031039999999
1410.0 0.0007947165525000002
1420.0 0.0007979341495000001
1430.0 0.000799784233
1440.0 0.0008005056805000001
1450.0 0.000800342452
1460.0 0.0007995377585
1470.0 0.0007983289795000002
1480.0 0.0007969429550000001
1490.0 0.0007955919729999999
1500.0 0.0007944707735
1510.0 0.0007937541944999999
1520.0 0.000793595888
1530.0 0.0007941280525000001
1540.0 0.0007954615935
1550.0 0.0007976877820000002
1560.0 0.000800879592
1570.0 0.0008050938405
1580.0 0.0008103737555
1590.0 0.0008167512230000001
1600.0 0.0008242487665000001
1610.0 0.0008328817405
1620.0 0.0008426600960000001
1630.0 0.0008535892364999999
1640.0 0.0008656714625
1650.0 0.000878905811
1660.0 0.0008932880555
1670.0 0.0009088097965000001
1680.0 0.0009254566425
1690.0 0.0009432050000000002
1700.0 0.0009620179540000001
1710.0 0.0009818391155
1720.0 0.0010025849175000002
1730.0 0.0010241355200000001
1740.0 0.0010463249125
1750.0 0.0010689323005
1760.0 0.0010916757925
1770.0 0.0011142124535000002
1780.0 0.001136147507
1790.0 0.001157055414
1800.0 0.0011765152365
1810.0 0.0011941599645
1820.0 0.0012097363825
1830.0 0.0012231695905
1840.0 0.0012346220145
1850.0 0.001244535832
1860.0 0.00125364624
1870.0 0.0012629574334999999
1880.0 0.0012736762654999999
1890.0 0.0012871063705000001
1900.0 0.0013045135585000001
1910.0 0.0013269784225000002
1920.0 0.0013552583085
1930.0 0.0013896786035
1940.0 0.0014300726015
1950.0 0.0014757787215
1960.0 0.001525697806
1970.0 0.0015784003350000004
1980.0 0.0016322676125000001
1990.0 0.0016856446160000002
2000.0 0.0017369806480000002
2010.0 0.0017849388505
2020.0 0.0018284607260000002
2030.0 0.0018667813850000003
2040.0 0.0018994010305000003
2050.0 0.0019260255730000001
2060.0 0.0019464954220000002
2070.0 0.001960721393
2080.0 0.0019686458665000004
2090.0 0.001970237759
2100.0 0.0019655243020000003
2110.0 0.0019546515505
2120.0 0.0019379586945
2130.0 0.0019160480905000001
2140.0 0.0018898329835000001
2150.0 0.0018605482604999999
2160.0 0.0018297183505
2170.0 0.0017990828595
2180.0 0.001770490373
2190.0 0.001745773694
2200.0 0.0017266235830000003
2210.0 0.0017144758195
2220.0 0.001710422927
2230.0 0.001715155644
2240.0 0.0017289347295000002
2250.0 0.001751589144
2260.0 0.0017825350420000003
2270.0 0.0018208108145000002
2280.0 0.0018651236875
2290.0 0.001913908572
2300.0 0.001965399219
2310.0 0.0020177141940000004
2320.0 0.002068957778
2330.0 0.0021173350995
2340.0 0.0021612745425000006
2350.0 0.0021995498870000002
2360.0 0.0022313895025000002
2370.0 0.0022565595405000002
2380.0 0.0022754074835
2390.0 0.0022888554575000004
2400.0 0.002298334748
2410.0 0.0023056595935000003
2420.0 0.0023128449645000004
2430.0 0.0023218805794999998
2440.0 0.0023344823440000005
2450.0 0.0023518495674999997
2460.0 0.0023744618775
2470.0 0.0024019496425
2480.0 0.0024330665265
2490.0 0.002465781616
2500.0 0.0024974910125000003
2510.0 0.0025253271695000004
2520.0 0.0025465261165
2530.0 0.0025587967695
2540.0 0.0025606313380000002
2550.0 0.0025515057360000004
2560.0 0.002531935008
2570.0 0.0025033807740000003
2580.0 0.0024680331635000005
2590.0 0.0024285144790000004
2600.0 0.0023875615665
2610.0 0.0023477389485
2620.0 0.0023112222025
2630.0 0.002279667635
2640.0 0.002254170391
2650.0 0.0022358025570000002
2660.0 0.0022515596445
2670.0 0.0025544688334999998
2680.0 0.0033652278425000005
2690.0 0.0040869663825000005
2700.0 0.0044064510485
2710.0 0.004550463151
2720.0 0.0048525705355
2730.0 0.005240108539
2740.0 0.005678071630000001
2750.0 0.006092420035000001
2760.0 0.0063285091149999995
2770.0 0.00645568129
2780.0 0.0064574730050000004
2790.0 0.006275613130000001
2800.0 0.006264129355000001
2810.0 0.006553584685000001
2820.0 0.0066973536300000015
2830.0 0.006510712995
2840.0 0.00641074236
2850.0 0.006921355455
2860.0 0.008199375225
2870.0 0.009799574670000002
2880.0 0.0110460915
2890.0 0.011722383395000001
2900.0 0.012316223230000001
2910.0 0.013107447035
2920.0 0.013707487520000002
2930.0 0.013884724995
2940.0 0.01376641135
2950.0 0.013388913209999999
2960.0 0.012813636270000001
2970.0 0.012238976185000002
2980.0 0.011889421095
2990.0 0.011528448035000001
3000.0 0.01067648675
3010.0 0.009657035690000001
3020.0 0.00892033427
3030.0 0.00845036994
3040.0 0.008272393095
3050.0 0.008738861735000002
3060.0 0.009750090380000001
3070.0 0.010366628125000001
3080.0 0.010305614050000002
3090.0 0.010207170304999999
3100.0 0.010458512770000001
3110.0 0.011034675135000001
3120.0 0.011769364420000001
3130.0 0.012607778435000001
3140.0 0.013496343885000001
3150.0 0.01423186028
3160.0 0.01471084471
3170.0 0.014823536575
3180.0 0.0144470116
3190.0 0.0139399814
3200.0 0.014056466415000001
3210.0 0.014535066715000001
3220.0 0.014061604555000001
3230.0 0.012873142715
3240.0 0.01194760074
3250.0 0.01164911568
3260.0 0.011847179635000002
3270.0 0.012263263045000002
3280.0 0.012642884065000002
3290.0 0.01295518764
3300.0 0.013303001839999998
3310.0 0.013589604015
3320.0 0.013757346845
3330.0 0.013953623365
3340.0 0.014321486690000001
3350.0 0.014803875325
3360.0 0.015297540690000003
3370.0 0.015902688285
3380.0 0.016799424790000003
3390.0 0.017825134815
3400.0 0.018691587645
3410.0 0.019323000530000002
3420.0 0.019752463220000002
3430.0 0.019992694270000003
3440.0 0.02013798957
3450.0 0.020438276510000002
3460.0 0.021123874195000003
3470.0 0.022206494845
3480.0 0.02357796039
3490.0 0.02520492535
3500.0 0.026978914729999998
3510.0 0.028649757180000002
3520.0 0.030265843985000002
3530.0 0.03176655697
3540.0 0.03297558314
3550.0 0.033937266505
3560.0 0.03475076985
3570.0 0.03541239686
3580.0 0.035913257975
3590.0 0.036277231315000005
3600.0 0.036592983499999995
3610.0 0.037053984975
3620.0 0.037846565005
3630.0 0.03909639723
3640.0 0.040898239245
3650.0 0.04321555162000001
3660.0 0.04563842003
3670.0 0.047446960245
3680.0 0.048043234865
3690.0 0.047225659635
3700.0 0.045223454234999995
3710.0 0.04258663076500001
3720.0 0.039929623885
3730.0 0.037629042030000004
3740.0 0.03569783487500001
3750.0 0.03396581143
3760.0 0.032362489725000006
3770.0 0.03103473154
3780.0 0.030299073370000002
3790.0 0.030522548220000004
3800.0 0.03198547148
3810.0 0.034785295004999994
3820.0 0.038845204030000004
3830.0 0.043989864610000005
3840.0 0.049981242405
3850.0 0.05648275875
3860.0 0.06303756805
3870.0 0.06917150355
3880.0 0.07456701600000001
3890.0 0.0791273774
3900.0 0.08289203865000001
3910.0 0.08595583385000001
3920.0 0.08848052560000001
3930.0 0.09065133625
3940.0 0.09240950675000001
3950.0 0.09324854725000001
3960.0 0.09252347245
3970.0 0.09001575090000001
3980.0 0.08607638005000001
3990.0 0.08134085430000002
4000.0 0.07649387735
4010.0 0.07217271980000001
4020.0 0.06882727920000001
4030.0 0.0665722007
4040.0 0.06518701615
4050.0 0.06427215545000001
4060.0 0.063446078
4070.0 0.062489498000000004
4080.0 0.06139233605
4090.0 0.060293537
4100.0 0.05935925045
4110.0 0.0587064167
4120.0 0.05841357375
4130.0 0.05855693235
4140.0 0.05919609685
4150.0 0.06031368510000001
4160.0 0.061769040250000004
4170.0 0.06330813360000001
4180.0 0.0646385502
4190.0 0.06554208495
4200.0 0.065948808
4210.0 0.065926445
4220.0 0.06562874960000001
4230.0 0.06524938645
4240.0 0.06498071479999999
4250.0 0.0649755253
4260.0 0.06531257530000001
4270.0 0.0659676614
4280.0 0.06678385205000001
4290.0 0.06747181925
4300.0 0.06767636045
4310.0 0.06708401380000001
4320.0 0.06551555965
4330.0 0.06298089015000001
4340.0 0.05968316085000001
4350.0 0.05595719615
4360.0 0.05217339902
4370.0 0.04865903966000001
4380.0 0.0456540645
4390.0 0.04329982696000001
4400.0 0.041659907510000004
4410.0 0.04075308893000001
4420.0 0.040574429960000005
4430.0 0.041094873680000005
4440.0 0.042247574515000004
4450.0 0.043940884825000005
4460.0 0.04611717387500001
4470.0 0.048810606230000005
4480.0 0.052149556745
4490.0 0.056317336749999995
4500.0 0.0615054511
4510.0 0.06784936875
4520.0 0.07533597685000001
4530.0 0.08372806175000001
4540.0 0.0925686211
4550.0 0.10128068415
4560.0 0.1093289941
4570.0 0.11637222095000001
4580.0 0.1222993415
4590.0 0.12708545685
4600.0 0.13055693275
4610.0 0.1322673973
4620.0 0.1316188917
4630.0 0.1281866634
4640.0 0.12197953455000002
4650.0 0.11349342875
4660.0 0.10363601630000001
4670.0 0.09350116355
4680.0 0.08402589625000001
4690.0 0.07578719585
4700.0 0.06901857915
4710.0 0.06372656245000001
4720.0 0.05981660590000001
4730.0 0.05717794845000001
4740.0 0.05571493745
4750.0 0.055339078550000004
4760.0 0.05593048895000001
4770.0 0.05728719545
4780.0 0.05910422130000001
4790.0 0.06101977275
4800.0 0.06271258230000001
4810.0 0.06399652880000001
4820.0 0.0648801348
4830.0 0.06557294375
4840.0 0.06642559464999999
4850.0 0.06780751570000002
4860.0 0.06996932230000001
4870.0 0.0729601114
4880.0 0.076624091
4890.0 0.08063365920000001
4900.0 0.08451809625000001
4910.0 0.08771360845000001
4920.0 0.089681515
4930.0 0.09006797225000002
4940.0 0.08880949175
4950.0 0.08612446050000001
4960.0 0.08242061805000002
4970.0 0.07818533870000001
4980.0 0.07388419015000001
4990.0 0.069871963
5000.0 0.0663471476
5010.0 0.0633679038
5020.0 0.060907882850000004
5030.0 0.05890471980000001
5040.0 0.057281647500000005
5050.0 0.0559566451
5060.0 0.054854994500000004
5070.0 0.05392782880000001
5080.0 0.053171082535000004
5090.0 0.052633090815000005
5100.0 0.05240014432500001
5110.0 0.05256718042
5120.0 0.053215368765
5130.0 0.05440782545000001
5140.0 0.05619358055
5150.0 0.058607211650000005
5160.0 0.0616640358
5170.0 0.0653530534
5180.0 0.06962296330000001
5190.0 0.07436118545
5200.0 0.07938347120000001
5210.0 0.08446224225
5220.0 0.08938473445
5230.0 0.09400327175
5240.0 0.0982378342
5250.0 0.10203080765000001
5260.0 0.1052964744
5270.0 0.10791010990000001
5280.0 0.109745406
5290.0 0.1107351667
5300.0 0.11092111130000001
5310.0 0.11047052360000001
5320.0 0.10965484655
5330.0 0.1087990231
5340.0 0.10821579819999999
5350.0 0.10813913805
5360.0 0.10867037165000001
5370.0 0.1097539018
5380.0 0.11119926849999999
5390.0 0.11274994460000001
5400.0 0.1141606112
5410.0 0.11525275485
5420.0 0.11592616470000001
5430.0 0.1161405071
5440.0 0.11589506515
5450.0 0.11521869675
5460.0 0.1141636607
5470.0 0.11279791270000002
5480.0 0.11120012450000001
5490.0 0.10945124695
5500.0 0.10760411665000001
5510.0 0.10565301445000001
5520.0 0.10356270525000001
5530.0 0.10132817075
5540.0 0.0989633798
5550.0 0.09644118650000001
5560.0 0.09370417465000001
5570.0 0.0907401302
5580.0 0.08761007525
5590.0 0.08440642035
5600.0 0.08120716315000001
5610.0 0.07806197305000001
5620.0 0.07500058535000001
5630.0 0.0720489636
5640.0 0.069241305
5650.0 0.06662327180000001
5660.0 0.06425206620000001
5670.0 0.062200170000000006
5680.0 0.06055995630000001
5690.0 0.0594389815
5700.0 0.0589403187
5710.0 0.05913357675000001
5720.0 0.06003064335
5730.0 0.06157967165000001
5740.0 0.06368298135
5750.0 0.06623183369999999
5760.0 0.06914027025
5770.0 0.07235858415
5780.0 0.0758575751
5790.0 0.07959207305
5800.0 0.0834659492
5810.0 0.0873201641
5820.0 0.09094992510000001
5830.0 0.09413733205000001
5840.0 0.09668035825000001
5850.0 0.0984148336
5860.0 0.09923489230000002
5870.0 0.099115491
5880.0 0.09812217255
5890.0 0.09638360445000001
5900.0 0.09403779529999999
5910.0 0.09119780665
5920.0 0.08796884090000001
5930.0 0.08449463115
5940.0 0.0809773218
5950.0 0.07763970825000001
5960.0 0.07465285140000001
5970.0 0.07208028250000001
5980.0 0.06987388900000001
5990.0 0.0679203151
6000.0 0.06611034055000001
6010.0 0.0643955211
6020.0 0.0628040566
6030.0 0.06140772265
6040.0 0.06025775085
6050.0 0.05932663685
6060.0 0.058489827300000005
6070.0 0.05755985820000001
6080.0 0.05635705515
6090.0 0.05477927595
6100.0 0.052842673320000005
6110.0 0.050682603865
6120.0 0.04852046824
6130.0 0.046610378605
6140.0 0.045180298460000004
6150.0 0.044380664455
6160.0 0.044252320095000006
6170.0 0.0447232608
6180.0 0.045636644365
6190.0 0.046801353275
6200.0 0.048047389139999994
6210.0 0.049267524050000004
6220.0 0.05043375129
6230.0 0.05158720166000001
6240.0 0.052809022355000006
6250.0 0.05418574160000001
6260.0 0.0557845891
6270.0 0.057648497
6280.0 0.0598022251
6290.0 0.06223986165
6300.0 0.0648817077
6310.0 0.06755351375
6320.0 0.07005086164999999
6330.0 0.07224542630000001
6340.0 0.07412391830000001
6350.0 0.0757374783
6360.0 0.077139938
6370.0 0.07836573535000001
6380.0 0.07943479375000001
6390.0 0.08036021
6400.0 0.08115163015
6410.0 0.0818168866
6420.0 0.08236358705
6430.0 0.08280015240000001
6440.0 0.08313542085
6450.0 0.08337712850000001
6460.0 0.0835297961
6470.0 0.08359238040000001
6480.0 0.08355541725
6490.0 0.08339860340000001
6500.0 0.08309139035
6510.0 0.08259851625
6520.0 0.08188889225
6530.0 0.0809430711
6540.0 0.07975533900000001
6550.0 0.0783306126
6560.0 0.07667989685000001
6570.0 0.07481815570000001
6580.0 0.0727676505
6590.0 0.0705617171
6600.0 0.0682443004
6610.0 0.06586469530000001
6620.0 0.063470046
6630.0 0.0610994289
6640.0 0.058781434400000006
6650.0 0.056534958700000006
6660.0 0.054371777149999995
6670.0 0.052299954875
6680.0 0.050327419505000005
6690.0 0.04846448691
6700.0 0.04672401956
6710.0 0.045118382375
6720.0 0.04365449397500001
6730.0 0.042330165675
6740.0 0.041134731715
6750.0 0.040054325965000005
6760.0 0.039078967465
6770.0 0.03820731604
6780.0 0.037446297265000004
6790.0 0.036805778144999995
6800.0 0.036291216215
6810.0 0.035898047924999996
6820.0 0.035610282125
6830.0 0.035403388529999996
6840.0 0.035249862255
6850.0 0.03512463106000001
6860.0 0.035007938465000006
6870.0 0.03488621259
6880.0 0.034751309130000005
6890.0 0.034599101095
6900.0 0.034428143985
6910.0 0.03423867213
6920.0 0.034032033195000005
6930.0 0.03381063147
6940.0 0.03357833661000001
6950.0 0.03334095497
6960.0 0.033106010255
6970.0 0.03288128832
6980.0 0.03267246712000001
6990.0 0.032481160215000006
7000.0 0.03230488039
7010.0 0.032139489955
7020.0 0.031983174725
7030.0 0.03184002959
7040.0 0.03172140297
7050.0 0.031644191769999996
7060.0 0.031626527140000006
7070.0 0.031682219035
7080.0 0.031815665155000006
7090.0 0.032018776835000005
7100.0 0.032271047525
7110.0 0.032543149060000005
7120.0 0.03280342763
7130.0 0.033025241305
7140.0 0.033193227025
7150.0 0.033306473685000004
7160.0 0.03337797697
7170.0 0.033431539565
7180.0 0.033496458070000006
7190.0 0.033599472320000004
7200.0 0.033755672525
7210.0 0.033964084985000004
7220.0 0.034212252760000006
7230.0 0.03448590151500001
7240.0 0.034774924565
7250.0 0.035072250815000004
7260.0 0.035369972964999996
7270.0 0.03565783025000001
7280.0 0.03592465401000001
7290.0 0.036160556375
7300.0 0.03635813669000001
7310.0 0.036512476700000004
7320.0 0.036620493735
7330.0 0.03668023611500001
7340.0 0.036690418235
7350.0 0.036650203355
7360.0 0.036559074665
7370.0 0.036416701
7380.0 0.03622280523
7390.0 0.035977090965
7400.0 0.03567909008
7410.0 0.03532796316000001
7420.0 0.0349227242
7430.0 0.03446407619
7440.0 0.03395909397000001
7450.0 0.033426066515000005
7460.0 0.032894462695
7470.0 0.032398116445
7480.0 0.03196631313000001
7490.0 0.031619251140000006
7500.0 0.031368900565
7510.0 0.031220974670000005
7520.0 0.031174776885
7530.0 0.031222073025
7540.0 0.031347783580000003
7550.0 0.031533017700000006
7560.0 0.03175828908
7570.0 0.032004871115
7580.0 0.0322545936
7590.0 0.032489850220000005
7600.0 0.032694759500000004
7610.0 0.032861956095
7620.0 0.032981582095
7630.0 0.033046921645
7640.0 0.03305850065
7650.0 0.033020455195000006
7660.0 0.03293983123
7670.0 0.032825682025000004
7680.0 0.032688020639999996
7690.0 0.032536756345
7700.0 0.032380778165
7710.0 0.03222725831
7720.0 0.0320810075
7730.0 0.03194453221000001
7740.0 0.03181869807
7750.0 0.03170346709500001
7760.0 0.0315987157
7770.0 0.03150482534
7780.0 0.031422722635
7790.0 0.03135322132
7800.0 0.031295786395
7810.0 0.031247210000000004
7820.0 0.031200804100000003
7830.0 0.03114652942
7840.0 0.031072046185
7850.0 0.03096429558
7860.0 0.030811110635000007
7870.0 0.030602519485000004
7880.0 0.030331639355000006
7890.0 0.029995184810000002
7900.0 0.029593607390000005
7910.0 0.02913079494
7920.0 0.02861316532
7930.0 0.028048129885000002
7940.0 0.027442340290000006
7950.0 0.02680073405
7960.0 0.026127324735
7970.0 0.025427385305000005
7980.0 0.024709085210000002
7990.0 0.023982739785000002
8000.0 0.0232580657
8010.0 0.022541981040000002
8020.0 0.021837577035000003
8030.0 0.021144576555
8040.0 0.02046016657
8050.0 0.019779328245
8060.0 0.019095141355
8070.0 0.018399790085
8080.0 0.017686370795000003
8090.0 0.016950941605000002
8100.0 0.01619403163
8110.0 0.015421134785
8120.0 0.014642186555
8130.0 0.013870428725000002
8140.0 0.013121141965000001
8150.0 0.012410609000000001
8160.0 0.011755409480000001
8170.0 0.01117195346
8180.0 0.010676006855
8190.0 0.01028193602
8200.0 0.010001477785
8210.0 0.009842151039999998
8220.0 0.009805737870000001
8230.0 0.009887478915
8240.0 0.010076522235
8250.0 0.01035767169
8260.0 0.010713964034999999
8270.0 0.011129308075
8280.0 0.011590538530000001
8290.0 0.01208864065
8300.0 0.012619273444999999
8310.0 0.013182863310000001
8320.0 0.013784442990000001
8330.0 0.014433198970000002
8340.0 0.015141594075000002
8350.0 0.01592396684
8360.0 0.016794637610000003
8370.0 0.01776573109
8380.0 0.018845064165
8390.0 0.020034509869999998
8400.0 0.021329040275000002
8410.0 0.022716412975000003
8420.0 0.024178291379999998
8430.0 0.0256917807
8440.0 0.02723143259
8450.0 0.028771815290000002
8460.0 0.030290391925
8470.0 0.03176999809
8480.0 0.03320004025000001
8490.0 0.034575978395000005
8500.0 0.035897508110000004
8510.0 0.037166379915000006
8520.0 0.038384679240000004
8530.0 0.039553880544999996
8540.0 0.04067452632
8550.0 0.041746303055
8560.0 0.04276841574
8570.0 0.04374018653
8580.0 0.044661727775
8590.0 0.045534388210000006
8600.0 0.046360716575
8610.0 0.047143888095
8620.0 0.047886893954999996
8630.0 0.048591944775
8640.0 0.04926033204500001
8650.0 0.049892491255000004
8660.0 0.050487740280000006
8670.0 0.05104344852500001
8680.0 0.051554086765
8690.0 0.052010936105
8700.0 0.052402934885
8710.0 0.052719028934999995
8720.0 0.052949687765
8730.0 0.05308761183500001
8740.0 0.053128390605000006
8750.0 0.05307066036
8760.0 0.052915914285000004
8770.0 0.052668069115
8780.0 0.05233285737499999
8790.0 0.051917133485
8800.0 0.051428217315000004
8810.0 0.0508734496
8820.0 0.05026008547500001
8830.0 0.049595473165
8840.0 0.048887339140000007
8850.0 0.048143917050000005
8860.0 0.047373771175
8870.0 0.046585332045000004
8880.0 0.04578633522500001
8890.0 0.044983361215
8900.0 0.0441816482
8910.0 0.043385230615000006
8920.0 0.042597315250000004
8930.0 0.041820760075
8940.0 0.04105845944
8950.0 0.040313496015
8960.0 0.039589002760000006
8970.0 0.03888781143
8980.0 0.03821206684
8990.0 0.037563026775
9000.0 0.03694118985500001
9010.0 0.03634671872
9020.0 0.03577995363000001
9030.0 0.03524168371
9040.0 0.03473283451
9050.0 0.034253595955
9060.0 0.03380240745000001
9070.0 0.03337497241
9080.0 0.0329638859
9090.0 0.032559132185
9100.0 0.032149364985000005
9110.0 0.03172361573
9120.0 0.03127307083
9130.0 0.03079266437
9140.0 0.03028231824
9150.0 0.029747585205
