#lamb flux
1000.0 1.592489613e-05
1010.0 1.9313232705e-05
1020.0 2.3504802749999998e-05
1030.0 2.8666558050000002e-05
1040.0 3.50073438e-05
1050.0 4.2768493950000003e-05
1060.0 5.2223246400000004e-05
1070.0 6.3673779e-05
1080.0 7.744552529999999e-05
1090.0 9.387864720000001e-05
1100.0 0.0001133170233
1110.0 0.00013609545104999998
1120.0 0.00016252611765
1130.0 0.00019288543755
1140.0 0.000227402253
1150.0 0.000266248086
1160.0 0.000309529701
1170.0 0.0003572838945
1180.0 0.00040947443550000005
1190.0 0.0004659907785000001
1200.0 0.0005266486095
1210.0 0.0005911919714999999
1220.0 0.0006592973205
1230.0 0.0007305794144999999
1240.0 0.0008045989575000001
1250.0 0.0008808719594999999
1260.0 0.0009588804810000001
1270.0 0.0010380842355
1280.0 0.001117932894
1290.0 0.0011978780970000001
1300.0 0.0012773853105
1310.0 0.0013559447459999998
1320.0 0.001433081208
1330.0 0.001508362557
1340.0 0.0015814070025
1350.0 0.0016518885435000002
1360.0 0.0017195411220000002
1370.0 0.0017841610215000002
1380.0 0.0018456078225000002
1390.0 0.0019038030570000001
1400.0 0.0019587278099999997
1410.0 0.00201041763
1420.0 0.00205895508
1430.0 0.0021044594999999997
1440.0 0.00214707441
1450.0 0.002186951325
1460.0 0.002224230255
1470.0 0.002259018255
1480.0 0.002291367195
1490.0 0.0023212503600000003
1500.0 0.0023485443149999998
1510.0 0.0023730148649999997
1520.0 0.0023943166650000004
1530.0 0.002412001605
1540.0 0.0024255482550000003
1550.0 0.00243440262
1560.0 0.002438038395
1570.0 0.002436022875
1580.0 0.002428089885
1590.0 0.00241420335
1600.0 0.002394611115
1610.0 0.0023698728300000005
1620.0 0.0023408652150000006
1630.0 0.002308756515
1640.0 0.002274959115
1650.0 0.0022410601200000004
1660.0 0.002208742575
1670.0 0.0021797022
1680.0 0.00215556978
1690.0 0.0021378429150000003
1700.0 0.0021278331749999997
1710.0 0.00212662944
1720.0 0.00213507723
1730.0 0.00215377266
1740.0 0.00218306868
1750.0 0.0022230867750000004
1760.0 0.00227373159
1770.0 0.002334700095
1780.0 0.00240548139
1790.0 0.0024853469550000003
1800.0 0.0025733323200000002
1810.0 0.002668214835
1820.0 0.00276850275
1830.0 0.002872446915
1840.0 0.0029780852400000004
1850.0 0.00308333142
1860.0 0.003186103635
1870.0 0.0032844836700000003
1880.0 0.00337688403
1890.0 0.00346219419
1900.0 0.0035398775100000004
1910.0 0.003609991905
1920.0 0.0036731233500000003
1930.0 0.003730236315
1940.0 0.00378246024
1950.0 0.0038308518300000003
1960.0 0.00387617256
1970.0 0.003918723315
1980.0 0.003958268535000001
1990.0 0.003994060005
2000.0 0.00402495483
2010.0 0.004049603025
2020.0 0.004066667865
2030.0 0.004075041165
2040.0 0.004074020535
2050.0 0.004063427355
2060.0 0.0040436598150000004
2070.0 0.004015685115000001
2080.0 0.003980989545
2090.0 0.00394150107
2100.0 0.0038995050900000002
2110.0 0.0038575594200000005
2120.0 0.0038184145350000005
2130.0 0.00378493362
2140.0 0.0037600054050000004
2150.0 0.0037464394499999998
2160.0 0.00374683998
2170.0 0.0037634561250000005
2180.0 0.0037980171449999997
2190.0 0.0038515688250000003
2200.0 0.0039243340500000005
2210.0 0.004015624665
2220.0 0.004123827045
2230.0 0.004246477755
2240.0 0.004380429105
2250.0 0.00452208978
2260.0 0.004667706225
2270.0 0.00481364325
2280.0 0.00495661686
2290.0 0.00509384694
2300.0 0.0052231079549999995
2310.0 0.005342690535
2320.0 0.0054512989050000005
2330.0 0.00554793369
2340.0 0.005631812745
2350.0 0.00570236823
2360.0 0.00575934294
2370.0 0.005802973605000001
2380.0 0.00583421787
2390.0 0.0058549637250000005
2400.0 0.00586814358
2410.0 0.00587768961
2420.0 0.005888293320000001
2430.0 0.0059049695250000004
2440.0 0.005932472715
2450.0 0.005974652775
2460.0 0.006033857505
2470.0 0.00611050011
2480.0 0.006202880385
2490.0 0.006307318875
2500.0 0.006418596600000001
2510.0 0.0065306430149999995
2520.0 0.006637366905
2530.0 0.006733484355000001
2540.0 0.00681520944
2550.0 0.006880689465
2560.0 0.006930123525
2570.0 0.00696556536
2580.0 0.006990475245
2590.0 0.007009125045
2600.0 0.007025977725
2610.0 0.007045147004999999
2620.0 0.00707000619
2630.0 0.0071029725000000005
2640.0 0.007145464755000001
2650.0 0.007200039599999999
2660.0 0.00737380254
2670.0 0.008640607755
2680.0 0.011475943830000002
2690.0 0.013156607295
2700.0 0.013770480554999999
2710.0 0.014574089205000001
2720.0 0.015141643140000003
2730.0 0.01572274587
2740.0 0.01689657801
2750.0 0.017868883695
2760.0 0.018054322845
2770.0 0.018105296235000002
2780.0 0.01872291174
2790.0 0.019595029350000005
2800.0 0.02004468765
2810.0 0.020768519850000004
2820.0 0.022285052399999998
2830.0 0.02367478035
2840.0 0.02469382305
2850.0 0.025982751599999996
2860.0 0.0273808275
2870.0 0.0291664737
2880.0 0.03238289535
2890.0 0.03625267620000001
2900.0 0.039349539450000005
2910.0 0.0420358341
2920.0 0.0446454528
2930.0 0.04648555470000001
2940.0 0.0470244723
2950.0 0.04661399925
2960.0 0.0453435918
2970.0 0.0428960025
2980.0 0.039952699800000005
2990.0 0.03764123805
3000.0 0.03644630925
3010.0 0.036119064150000005
3020.0 0.035914996649999996
3030.0 0.03562690755
3040.0 0.034920171
3050.0 0.033968703600000004
3060.0 0.03332504565
3070.0 0.03324025965
3080.0 0.0337500345
3090.0 0.0347013927
3100.0 0.03584687535
3110.0 0.03737016855
3120.0 0.03969254835
3130.0 0.043315884299999996
3140.0 0.048002293950000004
3150.0 0.052411089900000006
3160.0 0.055123888950000005
3170.0 0.056060433
3180.0 0.055904314049999994
3190.0 0.05466759870000001
3200.0 0.052145692949999996
3210.0 0.04859334285
3220.0 0.04482504390000001
3230.0 0.04200029535
3240.0 0.040568870550000004
3250.0 0.040042826850000005
3260.0 0.04014276045
3270.0 0.0409073067
3280.0 0.0417560559
3290.0 0.041907736650000006
3300.0 0.04177101045000001
3310.0 0.042344232450000005
3320.0 0.0436414056
3330.0 0.04509333465
3340.0 0.0463770216
3350.0 0.047188128
3360.0 0.04757284935
3370.0 0.048118586100000006
3380.0 0.04916030925
3390.0 0.050565104849999994
3400.0 0.0521322594
3410.0 0.053754372749999994
3420.0 0.05534350575
3430.0 0.0567820383
3440.0 0.058016712
3450.0 0.0593375796
3460.0 0.06123483795
3470.0 0.06385323165
3480.0 0.06722537445000001
3490.0 0.07172697870000001
3500.0 0.0775412196
3510.0 0.08400012855000001
3520.0 0.090049752
3530.0 0.09518400255
3540.0 0.09951428370000001
3550.0 0.10330850985000001
3560.0 0.10646548575000002
3570.0 0.10843673685
3580.0 0.10880050155
3590.0 0.10775131380000001
3600.0 0.10618685219999999
3610.0 0.10555494495
3620.0 0.1070151615
3630.0 0.11034845835
3640.0 0.11402664975
3650.0 0.11602883955
3660.0 0.11484620355000001
3670.0 0.11018219550000001
3680.0 0.10294625835
3690.0 0.0946819848
3700.0 0.08682988274999999
3710.0 0.08016977475
3720.0 0.07464684825000001
3730.0 0.06977175465
3740.0 0.065379405
3750.0 0.06179362215
3760.0 0.0593891142
3770.0 0.058335248400000005
3780.0 0.058637966400000005
3790.0 0.06026353905
3800.0 0.06334690244999999
3810.0 0.06818651775
3820.0 0.0749249709
3830.0 0.0834502305
3840.0 0.0934938888
3850.0 0.10470022485000001
3860.0 0.11662368120000001
3870.0 0.12862783245
3880.0 0.13986613485000002
3890.0 0.1495112229
3900.0 0.15701453235
3910.0 0.16208150400000004
3920.0 0.164510151
3930.0 0.16415501115000003
3940.0 0.161000931
3950.0 0.15528263595
3960.0 0.1477043178
3970.0 0.1394553303
3980.0 0.131851551
3990.0 0.1259784747
4000.0 0.12255697350000001
4010.0 0.12184670745
4020.0 0.12356226285000002
4030.0 0.1269659079
4040.0 0.13108434885000003
4050.0 0.13491178935
4060.0 0.13766436255
4070.0 0.13904325045
4080.0 0.13923730080000002
4090.0 0.13862528355
4100.0 0.13754001105000002
4110.0 0.13625296425
4120.0 0.13498973085000002
4130.0 0.13388620440000001
4140.0 0.13294683870000001
4150.0 0.1320632781
4160.0 0.13109023395
4170.0 0.12991651725
4180.0 0.1284591555
4190.0 0.12661500150000002
4200.0 0.12427968150000002
4210.0 0.12142494195000002
4220.0 0.11812349055
4230.0 0.11450345205
4240.0 0.1106733342
4250.0 0.10667887035
4260.0 0.10247551860000001
4270.0 0.09801768795
4280.0 0.0934352328
4290.0 0.08909128995
4300.0 0.0854144343
4310.0 0.08266381110000001
4320.0 0.08084981385
4330.0 0.07982441805
4340.0 0.07939018035
4350.0 0.0793477854
4360.0 0.07954780275
4370.0 0.07998918915
4380.0 0.0808515981
4390.0 0.08235646380000002
4400.0 0.08457257445
4410.0 0.08736268320000001
4420.0 0.0904903974
4430.0 0.0937397994
4440.0 0.09696555375
4450.0 0.10012922595000003
4460.0 0.1032989763
4470.0 0.1065792429
4480.0 0.10999494480000001
4490.0 0.11342695650000001
4500.0 0.11666218005
4510.0 0.11949530385
4520.0 0.12177884550000002
4530.0 0.12342032235000001
4540.0 0.12439197810000001
4550.0 0.12475134360000001
4560.0 0.12460877715
4570.0 0.1240400655
4580.0 0.12302247164999999
4590.0 0.12143384760000002
4600.0 0.11915305350000001
4610.0 0.11622358215
4620.0 0.11279470800000001
4630.0 0.10892836305
4640.0 0.10466558505000001
4650.0 0.1002263067
4660.0 0.09598532385
4670.0 0.0922417782
4680.0 0.08903008725
4690.0 0.08616051795000002
4700.0 0.08342801025
4710.0 0.08076929055
4720.0 0.0782671149
4730.0 0.0760695624
4740.0 0.07430151885
4750.0 0.07299323264999999
4760.0 0.07204891590000001
4770.0 0.07127744715
4780.0 0.0704692989
4790.0 0.0694596006
4800.0 0.06817297110000001
4810.0 0.0666491319
4820.0 0.0650384397
4830.0 0.06356734995
4840.0 0.0624899145
4850.0 0.06203499899999999
4860.0 0.062348488800000004
4870.0 0.06343703730000001
4880.0 0.06511454235
4890.0 0.06693055784999999
4900.0 0.0681643755
4910.0 0.0681869448
4920.0 0.06706397295
4930.0 0.06545606535000001
4940.0 0.06383718705000001
4950.0 0.06227855205
4960.0 0.06083429040000001
4970.0 0.0597023934
4980.0 0.05908580925000001
4990.0 0.05906700345
5000.0 0.0595946091
5010.0 0.060546735600000005
5020.0 0.0618102849
5030.0 0.0633210474
5040.0 0.06504999930000001
5050.0 0.06697018184999999
5060.0 0.0690440049
5070.0 0.07123211160000001
5080.0 0.0735003516
5090.0 0.07581435225000001
5100.0 0.07812780105
5110.0 0.08037246360000001
5120.0 0.0824587374
5130.0 0.08429361525
5140.0 0.08580785265
5150.0 0.08697339885000001
5160.0 0.08780297955000001
5170.0 0.08833360965
5180.0 0.0885943617
5190.0 0.08856213014999999
5200.0 0.08813678445
5210.0 0.0871701441
5220.0 0.08553307230000001
5230.0 0.08319009270000001
5240.0 0.08025109949999999
5250.0 0.0769727907
5260.0 0.0736964943
5270.0 0.07074643095000001
5280.0 0.06834441899999999
5290.0 0.06658043144999999
5300.0 0.06543104685
5310.0 0.0647952123
5320.0 0.06453015270000001
5330.0 0.06448496145
5340.0 0.06452910165
5350.0 0.06456978255000001
5360.0 0.0645531822
5370.0 0.06444858810000001
5380.0 0.064222977
5390.0 0.06382190880000001
5400.0 0.0631825233
5410.0 0.06226618515
5420.0 0.06109129845
5430.0 0.059751550949999996
5440.0 0.05841695535
5450.0 0.05731057995
5460.0 0.05664898005
5470.0 0.05657328105
5480.0 0.057120472500000005
5490.0 0.05823763530000001
5500.0 0.059811047400000004
5510.0 0.061695958349999996
5520.0 0.0637336635
5530.0 0.0657474051
5540.0 0.06754514325
5550.0 0.06896482710000001
5560.0 0.06993343305
5570.0 0.07047518595
5580.0 0.0706678011
5590.0 0.07059512265
5600.0 0.0703197924
5610.0 0.06987737640000001
5620.0 0.06927913785
5630.0 0.06852323205000001
5640.0 0.06760859820000001
5650.0 0.06653923965
5660.0 0.06532183515000001
5670.0 0.0639667782
5680.0 0.0624981279
5690.0 0.060967311600000004
5700.0 0.05945833725
5710.0 0.05807597640000001
5720.0 0.05692097775
5730.0 0.05606673150000001
5740.0 0.055550032199999995
5750.0 0.05537659725
5760.0 0.05553202200000001
5770.0 0.05598849165000001
5780.0 0.05670479295
5790.0 0.0576241029
5800.0 0.0586759017
5810.0 0.05978449035
5820.0 0.06088069455
5830.0 0.0619102575
5840.0 0.0628318782
5850.0 0.0636103377
5860.0 0.06421815075000001
5870.0 0.06463661490000001
5880.0 0.06485921325
5890.0 0.06489457455
5900.0 0.06476650245
5910.0 0.06451036215
5920.0 0.06416588100000001
5930.0 0.06376720155
5940.0 0.0633326889
5950.0 0.06285732765
5960.0 0.0623084748
5970.0 0.06162389220000001
5980.0 0.06071277615000001
5990.0 0.059463986399999995
6000.0 0.057765396
6010.0 0.05553233205000001
6020.0 0.052736228999999996
6030.0 0.049422831900000005
6040.0 0.04571299785
6050.0 0.041787957900000006
6060.0 0.037861254600000005
6070.0 0.034146071699999996
6080.0 0.0308314539
6090.0 0.028067007150000003
6100.0 0.02595584745
6110.0 0.0245545794
6120.0 0.0238775472
6130.0 0.023901969
6140.0 0.02457269685
6150.0 0.025807633800000004
6160.0 0.027504714900000005
6170.0 0.029549469300000002
6180.0 0.0318218901
6190.0 0.034202884950000005
6200.0 0.036581448149999994
6210.0 0.038862312450000006
6220.0 0.0409719375
6230.0 0.042860342850000004
6240.0 0.04449840915
6250.0 0.04587298755
6260.0 0.0469831674
6270.0 0.0478390302
6280.0 0.0484610295
6290.0 0.048877159499999996
6300.0 0.0491172786
6310.0 0.049206859650000004
6320.0 0.049163766600000006
6330.0 0.0490006998
6340.0 0.048736303200000004
6350.0 0.048402549
6360.0 0.04803740955
6370.0 0.047668241400000005
6380.0 0.047301879299999995
6390.0 0.04692942345000001
6400.0 0.0465392889
6410.0 0.04612770825
6420.0 0.045700338449999996
6430.0 0.0452668671
6440.0 0.044835306750000005
6450.0 0.04440946965
6460.0 0.043988560200000006
6470.0 0.04356797055
6480.0 0.04314138465
6490.0 0.0427035492
6500.0 0.042252327
6510.0 0.0417890733
6520.0 0.04131684570000001
6530.0 0.04083678885
6540.0 0.04034469659999999
6550.0 0.0398311407
6560.0 0.03928693665
6570.0 0.03871116015
6580.0 0.03811499445
6590.0 0.0375173019
6600.0 0.03693449565
6610.0 0.036372035700000006
6620.0 0.03582363525
6630.0 0.03527792775
6640.0 0.03472687335
6650.0 0.03417001965
6660.0 0.03361307235
6670.0 0.0330634629
6680.0 0.032526832650000004
6690.0 0.03200635815
6700.0 0.0315041805
6710.0 0.0310227411
6720.0 0.030564397500000003
6730.0 0.030129906300000002
6740.0 0.029717824499999997
6750.0 0.0293260695
6760.0 0.028954395600000005
6770.0 0.02860507845
6780.0 0.0282803547
6790.0 0.027978442050000003
6800.0 0.027691706250000003
6810.0 0.02740908495
6820.0 0.027121239600000003
6830.0 0.026824808399999997
6840.0 0.026523215550000003
6850.0 0.0262236273
6860.0 0.025931819550000002
6870.0 0.025648521599999998
6880.0 0.025368659550000002
6890.0 0.025083655349999998
6900.0 0.024785531550000003
6910.0 0.024470951700000004
6920.0 0.024143269800000002
6930.0 0.02381174835
6940.0 0.02348847345
6950.0 0.0231845016
6960.0 0.0229070439
6970.0 0.02265847545
6980.0 0.0224369769
6990.0 0.02223795795
7000.0 0.022055545200000002
7010.0 0.02188370925
7020.0 0.021716838000000002
7030.0 0.021549804900000004
7040.0 0.021378142500000002
7050.0 0.0211990155
7060.0 0.021012858750000002
7070.0 0.02082407145
7080.0 0.020639402549999998
7090.0 0.020464741050000002
7100.0 0.0203028384
7110.0 0.0201536829
7120.0 0.02001678705
7130.0 0.01989326235
7140.0 0.019786603200000003
7150.0 0.0197008188
7160.0 0.019637720700000003
7170.0 0.019595339399999998
7180.0 0.0195683709
7190.0 0.0195499863
7200.0 0.01953367455
7210.0 0.0195140088
7220.0 0.019486103129999998
7230.0 0.0194441988
7240.0 0.01938036906
7250.0 0.019284916755
7260.0 0.019149640965
7270.0 0.018972599295
7280.0 0.018759993525
7290.0 0.018522140325000002
7300.0 0.018266403870000003
7310.0 0.01799331417
7320.0 0.017698333184999998
7330.0 0.017376156915
7340.0 0.017023617
7350.0 0.016640222625000003
7360.0 0.016227566745
7370.0 0.015788786909999998
7380.0 0.015328482975
7390.0 0.014853148245
7400.0 0.014372234760000002
7410.0 0.013899116205
7420.0 0.013450010145
7430.0 0.013041066674999999
7440.0 0.012684543885
7450.0 0.012386370945
7460.0 0.012146373135000001
7470.0 0.011960328120000002
7480.0 0.011822159505
7490.0 0.01172524743
7500.0 0.01166291373
7510.0 0.011628701174999999
7520.0 0.0116169846
7530.0 0.01162392387
7540.0 0.01164822204
7550.0 0.011691030195
7560.0 0.011754759705000001
7570.0 0.011841187605000001
7580.0 0.011949599025
7590.0 0.012075658139999999
7600.0 0.012211508010000002
7610.0 0.012347386154999999
7620.0 0.012474549360000002
7630.0 0.012588280965
7640.0 0.01268907393
7650.0 0.012781060695
7660.0 0.012868987365
7670.0 0.01295612448
7680.0 0.013044215145000001
7690.0 0.013134574245
7700.0 0.01322890725
7710.0 0.013329290325000001
7720.0 0.013437644415
7730.0 0.013555068345
7740.0 0.013681531695000002
7750.0 0.013815895274999998
7760.0 0.013955810115
7770.0 0.014097675540000002
7780.0 0.014236791465
7790.0 0.014367764775
7800.0 0.014485053959999999
7810.0 0.014583452325000001
7820.0 0.014658379905000001
7830.0 0.01470606501
7840.0 0.014723818590000002
7850.0 0.01471049541
7860.0 0.014666985839999999
7870.0 0.014596401495000001
7880.0 0.014503743930000002
7890.0 0.014395193669999999
7900.0 0.01427737974
7910.0 0.014156722125
7920.0 0.014032096065000001
7930.0 0.013909719525000001
7940.0 0.01378959582
7950.0 0.013664648009999999
7960.0 0.013525833360000001
7970.0 0.013366729545
7980.0 0.0131871714
7990.0 0.012993716385000001
8000.0 0.012796661865
8010.0 0.012605159970000002
8020.0 0.01242298317
8030.0 0.01224728466
8040.0 0.012070999785
8050.0 0.01188719142
8060.0 0.01169238876
8070.0 0.011486908875
8080.0 0.011272586519999999
8090.0 0.011050272480000001
8100.0 0.010819188314999999
8110.0 0.010578250215000001
8120.0 0.010327898490000001
8130.0 0.01007109753
8140.0 0.009813244545
8150.0 0.009561450990000001
8160.0 0.0093236481
8170.0 0.009107725769999998
8180.0 0.008920760940000001
8190.0 0.00876839769
8200.0 0.00865443813
8210.0 0.008580653055000002
8220.0 0.00854675055
8230.0 0.008550437805000002
8240.0 0.008587578480000002
8250.0 0.008652558525
8260.0 0.008738990715
8270.0 0.00884077896
8280.0 0.00895335207
8290.0 0.00907470174
8300.0 0.00920585367
8310.0 0.009350577405
8320.0 0.009514433370000002
8330.0 0.00970345974
8340.0 0.0099228675
8350.0 0.010176010065
8360.0 0.01046375538
8370.0 0.010784294429999999
8380.0 0.011133372705
8390.0 0.011504900355
8400.0 0.011891805705000001
8410.0 0.01228694259
8420.0 0.012683843055000001
8430.0 0.013077145965
8440.0 0.013462666815000001
8450.0 0.013837185765
8460.0 0.01419810912
8470.0 0.014543158890000001
8480.0 0.014870207040000001
8490.0 0.015177283290000001
8500.0 0.015462720000000001
8510.0 0.015725333715
8520.0 0.015964537679999998
8530.0 0.01618031454
8540.0 0.016373046495
8550.0 0.016543264725
8560.0 0.016691416560000002
8570.0 0.016817738925000002
8580.0 0.01692228447
8590.0 0.01700507172
8600.0 0.017066284560000002
8610.0 0.01710641673
8620.0 0.017126304000000002
8630.0 0.01712704656
8640.0 0.017109882465
8650.0 0.01707608877
8660.0 0.017026947405000003
8670.0 0.01696376214
8680.0 0.01688787243
8690.0 0.01680059901
8700.0 0.016703071320000002
8710.0 0.01659592155
8720.0 0.016478910045
8730.0 0.016350646455
8740.0 0.016208571795
8750.0 0.01604933304
8760.0 0.01586952705
8770.0 0.015666629940000003
8780.0 0.015439808085
8790.0 0.015190333470000001
8800.0 0.014921486775
8810.0 0.01463804238
8820.0 0.014345580015000001
8830.0 0.014049876164999999
8840.0 0.013756504905000001
8850.0 0.013470611700000001
8860.0 0.01319674005
8870.0 0.012938601780000001
8880.0 0.012698797409999999
8890.0 0.012478590345000002
8900.0 0.012277867094999999
8910.0 0.012095339100000001
8920.0 0.011928913035
8930.0 0.01177607067
8940.0 0.011634102870000001
8950.0 0.01150017687
8960.0 0.01137136494
8970.0 0.01124487429
8980.0 0.01111863636
8990.0 0.01099214298
9000.0 0.010867092015000001
9010.0 0.01074732477
9020.0 0.010637849040000001
9030.0 0.01054328067
9040.0 0.010466358435000002
9050.0 0.010407075509999999
9060.0 0.010362619605
9070.0 0.010327966155
9080.0 0.01029687243
9090.0 0.010263065865
9100.0 0.010221421665000001
9110.0 0.010168923765
9120.0 0.010105224090000002
9130.0 0.010032699885
9140.0 0.009956029589999998
9150.0 0.009881393924999999
9160.0 0.009815440440000002
9170.0 0.009764150955000002
9180.0 0.00973176789
9190.0 0.00971995986
9200.0 0.009727403205
9210.0 0.009749859404999998
9220.0 0.009780697485
9230.0 0.009811719645
9240.0 0.009834115590000001
9250.0 0.00983949213
9260.0 0.00982109466
9270.0 0.00977534571
9280.0 0.009701433300000001
9290.0 0.00960656346
9300.0 0.009502567425
9310.0 0.009401106
9320.0 0.009311071379999999
9330.0 0.009236307405
9340.0 0.009175740015000001
9350.0 0.009125322765
9360.0 0.009080344455
9370.0 0.00903695949
9380.0 0.008992674210000001
