#lamb flux
1000.0 4.164360155e-06
1010.0 5.045695035e-06
1020.0 6.133429484999999e-06
1030.0 7.469323169999999e-06
1040.0 9.105263545e-06
1050.0 1.1100539439999999e-05
1060.0 1.3521347850000001e-05
1070.0 1.643962713e-05
1080.0 1.99311278e-05
1090.0 2.407272655e-05
1100.0 2.893908815e-05
1110.0 3.459890725e-05
1120.0 4.11110444e-05
1130.0 4.85208603e-05
1140.0 5.68570768e-05
1150.0 6.612931515e-05
1160.0 7.6326462e-05
1170.0 8.741580939999999e-05
1180.0 9.93429602e-05
1190.0 0.0001120324408
1200.0 0.00012538894815000001
1210.0 0.0001392992611
1220.0 0.00015363473225
1230.0 0.00016825437535
1240.0 0.00018300841924999997
1250.0 0.00019774226605000003
1260.0 0.0002123006105
1270.0 0.000226531654
1280.0 0.00024029107349999998
1290.0 0.00025344576249999997
1300.0 0.000265877041
1310.0 0.00027748319249999996
1320.0 0.00028818152800000004
1330.0 0.000297909719
1340.0 0.0003066262705
1350.0 0.0003143107575
1360.0 0.0003209631585
1370.0 0.000326602931
1380.0 0.0003312675495
1390.0 0.000335010764
1400.0 0.0003379005575
1410.0 0.0003400169315
1420.0 0.00034144945500000004
1430.0 0.00034229492100000005
1440.0 0.0003426547235
1450.0 0.000342632385
1460.0 0.00034233125600000003
1470.0 0.00034185219299999995
1480.0 0.0003412917095
1490.0 0.000340740084
1500.0 0.00034028026349999996
1510.0 0.000339986681
1520.0 0.00033992480399999995
1530.0 0.00034015100549999994
1540.0 0.00034071260700000003
1550.0 0.00034164854500000005
1560.0 0.00034299001600000004
1570.0 0.000344761358
1580.0 0.000346981104
1590.0 0.0003496629065
1600.0 0.00035281648349999996
1610.0 0.00035644856449999995
1620.0 0.000360563428
1630.0 0.000365163568
1640.0 0.0003702501025
1650.0 0.000375822795
1660.0 0.0003818801405
1670.0 0.000388418871
1680.0 0.000395433375
1690.0 0.0004029143645
1700.0 0.00041084728399999994
1710.0 0.000419209881
1720.0 0.00042796919599999997
1730.0 0.000437077972
1740.0 0.00044647099949999994
1750.0 0.0004560617195
1760.0 0.000465740138
1770.0 0.00047537336350000003
1780.0 0.00048480973500000004
1790.0 0.0004938881745
1800.0 0.0005024531295000001
1810.0 0.000510375256
1820.0 0.0005175763584999999
1830.0 0.000524055921
1840.0 0.0005299149075
1850.0 0.0005353723385
1860.0 0.0005407689889999999
1870.0 0.0005465548325
1880.0 0.0005532579734999999
1890.0 0.0005614362079999999
1900.0 0.0005716158129999999
1910.0 0.000584224789
1920.0 0.0005995301445
1930.0 0.0006175890265
1940.0 0.0006382221250000001
1950.0 0.00066101492
1960.0 0.0006853476955
1970.0 0.0007104509450000001
1980.0 0.0007354782134999999
1990.0 0.0007595857119999999
2000.0 0.0007820067935
2010.0 0.000802110648
2020.0 0.000819437498
2030.0 0.0008337071985
2040.0 0.000844802854
2050.0 0.00085273644
2060.0 0.0008576054159999999
2070.0 0.000859551682
2080.0 0.0008587319514999999
2090.0 0.000855305733
2100.0 0.0008494424035
2110.0 0.0008413440200000001
2120.0 0.0008312763654999999
2130.0 0.0008195988125000001
2140.0 0.0008067837589999999
2150.0 0.0007934189074999999
2160.0 0.000780189334
2170.0 0.0007678408735
2180.0 0.0007571306055
2190.0 0.0007487720290000001
2200.0 0.000743383269
2210.0 0.0007414455814999999
2220.0 0.000743275769
2230.0 0.00074901399
2240.0 0.0007586245975
2250.0 0.0007719064160000001
2260.0 0.0007885086084999999
2270.0 0.000807948801
2280.0 0.0008296327765
2290.0 0.0008528758245000001
2300.0 0.0008769283045
2310.0 0.0009010076164999999
2320.0 0.000924337546
2330.0 0.0009461953275
2340.0 0.0009659629649999999
2350.0 0.000983178316
2360.0 0.0009975797685000001
2370.0 0.0010091375665000001
2380.0 0.0010180658714999998
2390.0 0.001024810959
2400.0 0.0010300136794999999
2410.0 0.0010344468075
2420.0 0.001038931299
2430.0 0.0010442386385
2440.0 0.0010509893375
2450.0 0.0010595601190000001
2460.0 0.0010700129029999998
2470.0 0.0010820584715
2480.0 0.001095064273
2490.0 0.0011081103654999999
2500.0 0.0011200910040000001
2510.0 0.0011298504559999999
2520.0 0.001136334641
2530.0 0.0011387356965
2540.0 0.001136605412
2550.0 0.001129918353
2560.0 0.0011190739895000001
2570.0 0.001104839334
2580.0 0.0010882447955
2590.0 0.0010704538465000002
2600.0 0.001052630626
2610.0 0.0010358261184999999
2620.0 0.0010208970345
2630.0 0.0010084625525
2640.0 0.00099889731
2650.0 0.0009925805884999999
2660.0 0.0010015070875
2670.0 0.0011380962435
2680.0 0.0014936238555
2690.0 0.001800143314
2700.0 0.001948769116
2710.0 0.0020376003864999996
2720.0 0.002181605215
2730.0 0.00235792478
2740.0 0.00255763699
2750.0 0.0027396037449999994
2760.0 0.00285345807
2770.0 0.0029204404599999997
2780.0 0.00291454602
2790.0 0.0028198208899999997
2800.0 0.0028030106849999997
2810.0 0.0029299202400000003
2820.0 0.00299606714
2830.0 0.002910812545
2840.0 0.0028756738050000003
2850.0 0.00312094774
2860.0 0.0036872740799999996
2870.0 0.00438014985
2880.0 0.00492887414
2890.0 0.005261558045
2900.0 0.005563172514999999
2910.0 0.00590720412
2920.0 0.006139516994999999
2930.0 0.006236142294999999
2940.0 0.00627268821
2950.0 0.006166753625
2960.0 0.005858438465000001
2970.0 0.0054728189799999995
2980.0 0.0051994783
2990.0 0.004979340015
3000.0 0.004608723875
3010.0 0.004201918075
3020.0 0.00390970104
3030.0 0.0037298445099999997
3040.0 0.003670858184999999
3050.0 0.003869306625
3060.0 0.00428801547
3070.0 0.00453475807
3080.0 0.004472988785
3090.0 0.004396720545
3100.0 0.004519588315000001
3110.0 0.004822220594999999
3120.0 0.005189137660000001
3130.0 0.0055955512999999995
3140.0 0.006044737255000001
3150.0 0.006446452715
3160.0 0.006744719635
3170.0 0.006885380589999999
3180.0 0.006780417374999999
3190.0 0.00653448253
3200.0 0.006516007795
3210.0 0.006650024605
3220.0 0.0063118409999999995
3230.0 0.005719185115
3240.0 0.0053329584699999995
3250.0 0.00522763728
3260.0 0.005303436389999999
3270.0 0.00547504552
3280.0 0.005701625205
3290.0 0.005984832664999999
3300.0 0.006260089425
3310.0 0.006358426555
3320.0 0.00633988474
3330.0 0.0063745855249999995
3340.0 0.00651990983
3350.0 0.0067220956150000006
3360.0 0.006944414645000001
3370.0 0.007236531705
3380.0 0.007669676295
3390.0 0.008172336405000001
3400.0 0.00861008178
3410.0 0.0089256046
3420.0 0.00912544495
3430.0 0.009239720029999999
3440.0 0.009330723079999999
3450.0 0.00949747966
3460.0 0.00982480598
3470.0 0.010318864155
3480.0 0.010935454485
3490.0 0.011662111485
3500.0 0.012464844085
3510.0 0.013197048945000001
3520.0 0.01386984866
3530.0 0.01448895191
3540.0 0.01500848006
3550.0 0.015457478105000002
3560.0 0.015869774145
3570.0 0.0162250997
3580.0 0.01649678832
3590.0 0.016671086455
3600.0 0.016788627599999998
3610.0 0.016971775135
3620.0 0.01732520783
3630.0 0.01790354579
3640.0 0.01875965472
3650.0 0.01989308914
3660.0 0.02110357999
3670.0 0.022029153699999998
3680.0 0.02238414235
3690.0 0.02207461115
3700.0 0.021193728199999998
3710.0 0.019987282359999997
3720.0 0.018752255065
3730.0 0.0176907246
3740.0 0.016831004745
3750.0 0.01608984191
3760.0 0.015405238265000001
3770.0 0.014820379569999998
3780.0 0.01448208868
3790.0 0.014571122975
3800.0 0.01521837295
3810.0 0.01646012996
3820.0 0.018255501435
3830.0 0.020533792365
3840.0 0.023206222800000002
3850.0 0.026124308149999997
3860.0 0.029057037150000003
3870.0 0.031762908900000004
3880.0 0.0340960631
3890.0 0.03602617185
3900.0 0.037578506250000004
3910.0 0.03879725955
3920.0 0.039762351550000005
3930.0 0.04057001195
3940.0 0.041207074149999995
3950.0 0.041452513850000004
3960.0 0.04101473085000001
3970.0 0.03979453275
3980.0 0.0379540575
3990.0 0.03578007425
4000.0 0.03357506865
4010.0 0.031620996
4020.0 0.030120603450000002
4030.0 0.0291312444
4040.0 0.02856168145
4050.0 0.02823137265
4060.0 0.0279522145
4070.0 0.027603656499999994
4080.0 0.02716999505
4090.0 0.026717794149999998
4100.0 0.026332789350000003
4110.0 0.026075333299999996
4120.0 0.0259830338
4130.0 0.026092077499999998
4140.0 0.0264336953
4150.0 0.027002097249999996
4160.0 0.027727720099999995
4170.0 0.028483866499999996
4180.0 0.029127645299999998
4190.0 0.029553880649999996
4200.0 0.02973017205
4210.0 0.02969539795
4220.0 0.029532365600000002
4230.0 0.0293347032
4240.0 0.029183743099999996
4250.0 0.029142347
4260.0 0.02925023185
4270.0 0.029507988900000004
4280.0 0.02985167715
4290.0 0.030147523599999997
4300.0 0.030227350950000002
4310.0 0.02994447975
4320.0 0.0292172616
4330.0 0.028051761650000003
4340.0 0.026542663749999997
4350.0 0.024846124549999998
4360.0 0.0231346966
4370.0 0.02155763075
4380.0 0.020219768524999997
4390.0 0.019180945930000002
4400.0 0.018469686585
4410.0 0.018096028195000002
4420.0 0.018056468410000002
4430.0 0.01833354321
4440.0 0.01889222501
4450.0 0.019687138275000002
4460.0 0.02068889874
4470.0 0.021910561850000003
4480.0 0.02340943435
4490.0 0.025270326
4500.0 0.02758626515
4510.0 0.030429450950000003
4520.0 0.0338048542
4530.0 0.0376100489
4540.0 0.041635154199999996
4550.0 0.0456115061
4560.0 0.04928956055000001
4570.0 0.05250871255
4580.0 0.055212165550000004
4590.0 0.057382672249999996
4600.0 0.05893980115
4610.0 0.059684371949999995
4620.0 0.0593506898
4630.0 0.057760659449999995
4640.0 0.05494376815
4650.0 0.051138803499999996
4660.0 0.0467341071
4670.0 0.04218418895
4680.0 0.0378993959
4690.0 0.0341570457
4700.0 0.031077669500000002
4710.0 0.028660828699999998
4720.0 0.026847656299999998
4730.0 0.025573248099999998
4740.0 0.024791972499999995
4750.0 0.024476208450000002
4760.0 0.024593258750000003
4770.0 0.0250740353
4780.0 0.025796162249999997
4790.0 0.02660018485
4800.0 0.0273326447
4810.0 0.0278920102
4820.0 0.028262870149999997
4830.0 0.028525662499999993
4840.0 0.028831590299999998
4850.0 0.029345455349999997
4860.0 0.0301820784
4870.0 0.03137028235
4880.0 0.03285348135
4890.0 0.0345042793
4900.0 0.03613393845
4910.0 0.0375094762
4920.0 0.0384003889
4930.0 0.03864530615
4940.0 0.0381994542
4950.0 0.0371369285
4960.0 0.03561761595
4970.0 0.0338451108
4980.0 0.03202397265
4990.0 0.0303170038
5000.0 0.02881940625
5010.0 0.0275609446
5020.0 0.026529733649999998
5030.0 0.0256962496
5040.0 0.025025430249999998
5050.0 0.0244809879
5060.0 0.024029937249999998
5070.0 0.023650191350000002
5080.0 0.023339133650000003
5090.0 0.02311738695
5100.0 0.023023092250000002
5110.0 0.0231001762
5120.0 0.0233896479
5130.0 0.02392686625
5140.0 0.024739736100000003
5150.0 0.0258446942
5160.0 0.02724381315
5170.0 0.028924416550000002
5180.0 0.03085642805
5190.0 0.0329850807
5200.0 0.0352264127
5210.0 0.0374797632
5220.0 0.03965111485
5230.0 0.04167274695
5240.0 0.04350539835
5250.0 0.045123234649999996
5260.0 0.04649587635
5270.0 0.047582497099999996
5280.0 0.04834198675
5290.0 0.0487524325
5300.0 0.048829295
5310.0 0.04863359125
5320.0 0.04826641425
5330.0 0.047851440599999996
5340.0 0.04751003565
5350.0 0.04733470745
5360.0 0.04736718105
5370.0 0.0475884741
5380.0 0.047927327000000006
5390.0 0.048287712149999995
5400.0 0.048578020199999995
5410.0 0.04873105074999999
5420.0 0.0487091917
5430.0 0.04849860995
5440.0 0.0481022295
5450.0 0.04753534545
5460.0 0.0468216422
5470.0 0.045988697800000006
5480.0 0.0450658189
5490.0 0.0440830539
5500.0 0.04306472575
5510.0 0.0420213243
5520.0 0.0409548641
5530.0 0.0398710964
5540.0 0.038772764599999995
5550.0 0.03764301055
5560.0 0.03645522585
5570.0 0.03520310885
5580.0 0.0339104837
5590.0 0.03261428955
5600.0 0.0313453445
5610.0 0.0301224847
5620.0 0.0289545273
5630.0 0.027846746250000002
5640.0 0.026807333049999996
5650.0 0.0258501552
5660.0 0.024994973349999998
5670.0 0.0242681981
5680.0 0.023704044550000004
5690.0 0.02334259085
5700.0 0.02322251335
5710.0 0.02337050645
5720.0 0.02379249125
5730.0 0.02447153435
5740.0 0.02537416025
5750.0 0.026462660099999997
5760.0 0.027707243500000003
5770.0 0.029091177
5780.0 0.0306052156
5790.0 0.03223363635
5800.0 0.03393966135
5810.0 0.03565907655
5820.0 0.0373054412
5830.0 0.038782504100000004
5840.0 0.03999661985
5850.0 0.0408682707
5860.0 0.0413430079
5870.0 0.0414032165
5880.0 0.04107471155
5890.0 0.04041583545
5900.0 0.03949249215
5910.0 0.03835902935
5920.0 0.0370613388
5930.0 0.0356555226
5940.0 0.034218778650000004
5950.0 0.032837334850000004
5960.0 0.0315789291
5970.0 0.0304704966
5980.0 0.029496041349999995
5990.0 0.028614760649999994
6000.0 0.027788264099999998
6010.0 0.027002219800000005
6020.0 0.0262712284
6030.0 0.025624160099999998
6040.0 0.025078122449999997
6050.0 0.024616457249999998
6060.0 0.02418403635
6070.0 0.023703782249999996
6080.0 0.023106570300000004
6090.0 0.022358129499999997
6100.0 0.02147285797
6110.0 0.020511876340000002
6120.0 0.0195686206
6130.0 0.01874755065
6140.0 0.018141206575000002
6150.0 0.0178102646
6160.0 0.017770977219999998
6170.0 0.01799369916
6180.0 0.01841372058
6190.0 0.018951339905
6200.0 0.019534276285
6210.0 0.020114804019999998
6220.0 0.02067675511
6230.0 0.021231824265
6240.0 0.021808374499999998
6250.0 0.022438328799999997
6260.0 0.0231484351
6270.0 0.023959653749999997
6280.0 0.02488958035
6290.0 0.025942224649999998
6300.0 0.027080219649999997
6310.0 0.02821185495
6320.0 0.029229331700000003
6330.0 0.030071045949999996
6340.0 0.03074256835
6350.0 0.03128444145
6360.0 0.0317346364
6370.0 0.0321161367
6380.0 0.03244133925
6390.0 0.032717698100000005
6400.0 0.03294999915
6410.0 0.0331411191
6420.0 0.0332929736
6430.0 0.033407661049999995
6440.0 0.033487965700000004
6450.0 0.0335367965
6460.0 0.0335558111
6470.0 0.0335439044
6480.0 0.03349611205
6490.0 0.03340325140000001
6500.0 0.033252839549999996
6510.0 0.03303150565
6520.0 0.03272811055
6530.0 0.0323359269
6540.0 0.031852652050000006
6550.0 0.0312786601
6560.0 0.0306152948
6570.0 0.0298649835
6580.0 0.0290339784
6590.0 0.0281350935
6600.0 0.02718782715
6610.0 0.02621538645
6620.0 0.025240249649999998
6630.0 0.0242806036
6640.0 0.023348855949999997
6650.0 0.022452080200000002
6660.0 0.021593550799999996
6670.0 0.020774745015
6680.0 0.019997262659999997
6690.0 0.019264116745
6700.0 0.01857976895
6710.0 0.01794871772
6720.0 0.017373340095000002
6730.0 0.016852400899999998
6740.0 0.01638138449
6750.0 0.015954643029999997
6760.0 0.015568121405
6770.0 0.01522104325
6780.0 0.01491561124
6790.0 0.014654978349999999
6800.0 0.014440683335000001
6810.0 0.014270853114999999
6820.0 0.014139845445
6830.0 0.01403923125
6840.0 0.01395961589
6850.0 0.01389244301
6860.0 0.013830992569999997
6870.0 0.013770704419999998
6880.0 0.013708899015000001
6890.0 0.013644247869999999
6900.0 0.013576287659999998
6910.0 0.01350509901
6920.0 0.01343115793
6930.0 0.01335534205
6940.0 0.01327901361
6950.0 0.013204032789999999
6960.0 0.013132485304999999
6970.0 0.01306606557
6980.0 0.0130053371
6990.0 0.012949358195
7000.0 0.012896080334999999
7010.0 0.012843533259999998
7020.0 0.012791322014999999
7030.0 0.0127417127
7040.0 0.012699709869999999
7050.0 0.012671971859999999
7060.0 0.012664923300000002
7070.0 0.012682739489999999
7080.0 0.01272585817
7090.0 0.012790402889999998
7100.0 0.01286863537
7110.0 0.012950370629999998
7120.0 0.01302513215
7130.0 0.013084462905
7140.0 0.013124025485000001
7150.0 0.01314479857
7160.0 0.013153039089999999
7170.0 0.013159272585
7180.0 0.01317614428
7190.0 0.013214742585
7200.0 0.013280301029999999
7210.0 0.01337021575
7220.0 0.01347654572
7230.0 0.01359102376
7240.0 0.013708167155
7250.0 0.013824707905
7260.0 0.013937488735000001
7270.0 0.014042403789999998
7280.0 0.014134821754999997
7290.0 0.014210517019999999
7300.0 0.01426630522
7310.0 0.01430024426
7320.0 0.01431156487
7330.0 0.014300491294999999
7340.0 0.01426801834
7350.0 0.014215656595
7360.0 0.01414517336
7370.0 0.014058363025000001
7380.0 0.013956871415
7390.0 0.013842018199999999
7400.0 0.013714462785000001
7410.0 0.013573719270000001
7420.0 0.013417925969999998
7430.0 0.013244805175
7440.0 0.01305466068
7450.0 0.012853728775
7460.0 0.012654572555
7470.0 0.012472133445
7480.0 0.012318320725
7490.0 0.012199384015
7500.0 0.012117004184999999
7510.0 0.012070494309999999
7520.0 0.012057698370000001
7530.0 0.012074650905
7540.0 0.012115380935000001
7550.0 0.012172560185
7560.0 0.012238575504999998
7570.0 0.012306317705
7580.0 0.01236949868
7590.0 0.012422775465
7600.0 0.012461926965000002
7610.0 0.01248732126
7620.0 0.012496459619999999
7630.0 0.01248745284
7640.0 0.012461763349999998
7650.0 0.012422064459999998
7660.0 0.012371863464999999
7670.0 0.012314985644999998
7680.0 0.012255042354999999
7690.0 0.012195039295000001
7700.0 0.012137201500000002
7710.0 0.01208298581
7720.0 0.012033159775
7730.0 0.011987954305
7740.0 0.01194726233
7750.0 0.011910832300000002
7760.0 0.011878462329999999
7770.0 0.011850133285
7780.0 0.011826000395
7790.0 0.01180620513
7800.0 0.011790525395000001
7810.0 0.01177797864
7820.0 0.011766521935
7830.0 0.011752978225
7840.0 0.011733241225
7850.0 0.01170271746
7860.0 0.011656897735000001
7870.0 0.01159192366
7880.0 0.011505030334999998
7890.0 0.01139478414
7900.0 0.011261087679999999
7910.0 0.01110495554
7920.0 0.010928069235
7930.0 0.010732178435
7940.0 0.01051855809
7950.0 0.010287918775
7960.0 0.010041059
7970.0 0.00977994193
7980.0 0.009508277820000001
7990.0 0.00923092782
8000.0 0.008952502175
8010.0 0.008676265445
8020.0 0.008403866895
8030.0 0.008135689655
8040.0 0.007871221595
8050.0 0.00760917293
8060.0 0.007347562864999999
8070.0 0.00708404575
8080.0 0.006816508995
8090.0 0.006543728174999999
8100.0 0.0062658411049999994
8110.0 0.005984519625
8120.0 0.0057028664
8130.0 0.005425147245
8140.0 0.005156465185
8150.0 0.00490245107
8160.0 0.00466900966
8170.0 0.00446213236
8180.0 0.00428773554
8190.0 0.004151423605
8200.0 0.004058079635
8210.0 0.0040112623099999994
8220.0 0.00401253984
8230.0 0.00406100858
8240.0 0.00415324401
8250.0 0.0042837851299999995
8260.0 0.00444603875
8270.0 0.004633337935
8280.0 0.00483988521
8290.0 0.0050614184149999995
8300.0 0.005295583085
8310.0 0.005542077360000001
8320.0 0.005802624035
8330.0 0.00608076029
8340.0 0.006381392425
8350.0 0.0067100983999999995
8360.0 0.007072239884999999
8370.0 0.007472058615
8380.0 0.007911978285000001
8390.0 0.008392274310000001
8400.0 0.008911094035
8410.0 0.00946462207
8420.0 0.010047241755
8430.0 0.01065150979
8440.0 0.011268185475
8450.0 0.011886749075
8460.0 0.01249662732
8470.0 0.013088837295
8480.0 0.013657347819999999
8490.0 0.014199525789999999
8500.0 0.014715539334999998
8510.0 0.01520711985
8520.0 0.015676287259999998
8530.0 0.016124474110000002
8540.0 0.016552177695
8550.0 0.016959066485
8560.0 0.01734437938
8570.0 0.017707438915000002
8580.0 0.018048090505
8590.0 0.0183669039
8600.0 0.01866507106
8610.0 0.018944082365
8620.0 0.01920539229
8630.0 0.01945028675
8640.0 0.019679978775
8650.0 0.0198957044
8660.0 0.02009849283
8670.0 0.020288540360000003
8680.0 0.020464513990000002
8690.0 0.020623292135
8700.0 0.02076038237
8710.0 0.02087090183
8720.0 0.02095047978
8730.0 0.020995824570000002
8740.0 0.021004973465
8750.0 0.020977266415
8760.0 0.020913192759999998
8770.0 0.02081420332
8780.0 0.020682527645
8790.0 0.020520981160000003
8800.0 0.020332752315
8810.0 0.020121182855
8820.0 0.019889582274999998
8830.0 0.019641104410000002
8840.0 0.01937868874
8850.0 0.019105035019999998
8860.0 0.018822586295
8870.0 0.01853350525
8880.0 0.018239665824999998
8890.0 0.01794266934
8900.0 0.01764391738
8910.0 0.017344740579999997
8920.0 0.01704656181
8930.0 0.016751034419999998
8940.0 0.016460081585
8950.0 0.016175772035
8960.0 0.015900041415
8970.0 0.015634334309999998
8980.0 0.01537932324
8990.0 0.01513485405
9000.0 0.014900183915
9010.0 0.01467444746
9020.0 0.014457153839999999
9030.0 0.014248479355
9040.0 0.01404917543
9050.0 0.013860086584999999
9060.0 0.01368147168
9070.0 0.013512387295
9080.0 0.01335040995
9090.0 0.013191821005
9100.0 0.013032177485
9110.0 0.012867074469999998
9120.0 0.012692900605
9130.0 0.01250748224
9140.0 0.012310558365
9150.0 0.012103997545
9160.0 0.01189162979
9170.0 0.011678605424999999
9180.0 0.011470402005000001
9190.0 0.011271800484999999
9200.0 0.011086179375
9210.0 0.010915253299999999
9220.0 0.010759056659999999
9230.0 0.01061586236
9240.0 0.01048193413
9250.0 0.01035147772
9260.0 0.01021748413
9270.0 0.010073901109999998
9280.0 0.009918579305
9290.0 0.00975532787
9300.0 0.00959333096
9310.0 0.009443680425
9320.0 0.009314851135
9330.0 0.009209744945
