#lamb flux
1000.0 3.6198661770000003e-06
1010.0 4.386273891e-06
1020.0 5.332229322e-06
1030.0 6.4940727600000005e-06
1040.0 7.916956008000001e-06
1050.0 9.652472199e-06
1060.0 1.175822445e-05
1070.0 1.4296807770000001e-05
1080.0 1.733413074e-05
1090.0 2.093706309e-05
1100.0 2.5170536490000002e-05
1110.0 3.0094260060000004e-05
1120.0 3.5759348190000006e-05
1130.0 4.2205134840000005e-05
1140.0 4.94564274e-05
1150.0 5.752137993e-05
1160.0 6.639007125e-05
1170.0 7.603377234e-05
1180.0 8.640489861000002e-05
1190.0 9.743756712e-05
1200.0 0.00010904873211000001
1210.0 0.00012113989440000002
1220.0 0.0001335993558
1230.0 0.000146304882
1240.0 0.0001591269693
1250.0 0.00017193226230000002
1260.0 0.00018458719470000002
1270.0 0.0001969616856
1280.0 0.00020893264710000005
1290.0 0.0002203872366
1300.0 0.00023122552080000002
1310.0 0.00024136281780000004
1320.0 0.0002507313732
1330.0 0.000259281348
1340.0 0.000266981418
1350.0 0.0002738186406
1360.0 0.00027979804410000007
1370.0 0.00028494156210000004
1380.0 0.00028928684580000006
1390.0 0.00029288566560000003
1400.0 0.0002958020907
1410.0 0.0002981105466
1420.0 0.0002998937505
1430.0 0.00030124052460000003
1440.0 0.00030224358720000005
1450.0 0.00030299747700000004
1460.0 0.0003035963775
1470.0 0.00030413223000000004
1480.0 0.0003046929243
1490.0 0.0003053608113
1500.0 0.00030621143760000005
1510.0 0.0003073126131
1520.0 0.00030872386710000004
1530.0 0.0003104962152000001
1540.0 0.00031267222590000004
1550.0 0.0003152864979
1560.0 0.00031836625950000004
1570.0 0.00032193226770000006
1580.0 0.00032599975170000004
1590.0 0.0003305794674
1600.0 0.0003356786409
1610.0 0.0003413019009
1620.0 0.0003474520113
1630.0 0.00035413045950000003
1640.0 0.00036133784490000005
1650.0 0.00036907406760000003
1660.0 0.0003773384505
1670.0 0.0003861296061
1680.0 0.0003954453255000001
1690.0 0.00040528233420000006
1700.0 0.00041563611449999997
1710.0 0.0004265006058
1720.0 0.0004378679715
1730.0 0.00044972841030000007
1740.0 0.00046206990090000006
1750.0 0.0004748779689
1760.0 0.0004881355203
1770.0 0.0005018226861000001
1780.0 0.0005159165670000001
1790.0 0.0005303912223000001
1800.0 0.0005452174812000001
1810.0 0.0005603629539000001
1820.0 0.0005757919539
1830.0 0.0005914655535000001
1840.0 0.0006073415838
1850.0 0.000623374668
1860.0 0.0006395163768000001
1870.0 0.0006557152284
1880.0 0.0006719169438000001
1890.0 0.0006880645467000001
1900.0 0.000704098752
1910.0 0.0007199583432
1920.0 0.0007355806386
1930.0 0.0007509022572000001
1940.0 0.0007658598291000002
1950.0 0.0007803909723000001
1960.0 0.000794435325
1970.0 0.0008079355557000001
1980.0 0.0008208384954
1990.0 0.0008330961921
2000.0 0.0008446667544
2010.0 0.0008555151618000001
2020.0 0.0008656138086
2030.0 0.0008749429368000002
2040.0 0.000883490625
2050.0 0.000891252744
2060.0 0.0008982327126000001
2070.0 0.000904440987
2080.0 0.0009098944725000001
2090.0 0.0009146159796000001
2100.0 0.0009186335136000002
2110.0 0.0009219796419
2120.0 0.0009246907947000001
2130.0 0.0009268067988000002
2140.0 0.0009283703559000002
2150.0 0.0009294264876000001
2160.0 0.0009300222690000001
2170.0 0.0009302064069
2180.0 0.0009300290622
2190.0 0.0009295414836000001
2200.0 0.0009287959077000001
2210.0 0.0009278453259000002
2220.0 0.0009267434178000001
2230.0 0.0009255443847
2240.0 0.0009243028164000001
2250.0 0.0009230736690000002
2260.0 0.0009219121095000001
2270.0 0.0009208734381000001
2280.0 0.0009200129661
2290.0 0.0009193859604
2300.0 0.0009190475658000002
2310.0 0.0009190530048000001
2320.0 0.0009194580216
2330.0 0.0009203198922000001
2340.0 0.0009216995112000001
2350.0 0.0009236646774000001
2360.0 0.000926295555
2370.0 0.0009296922549
2380.0 0.0009339851355000001
2390.0 0.0009393474123
2400.0 0.0009460089108000001
2410.0 0.0009542690424000002
2420.0 0.0009645059619000001
2430.0 0.0009771775443000001
2440.0 0.0009928098297
2450.0 0.0010119688737
2460.0 0.0010352131506000002
2470.0 0.0010630271976
2480.0 0.0010957407069000001
2490.0 0.001133441979
2500.0 0.0011758984800000001
2510.0 0.0012225004980000002
2520.0 0.001272242595
2530.0 0.0013237535880000002
2540.0 0.001375378689
2550.0 0.0014253079320000002
2560.0 0.0014717327940000002
2570.0 0.001513009587
2580.0 0.00154780176
2590.0 0.001575181353
2600.0 0.0015946763940000001
2610.0 0.0016062635730000002
2620.0 0.001610312742
2630.0 0.001607501778
2640.0 0.0015987166830000001
2650.0 0.0015847726410000004
2660.0 0.0015575250270000003
2670.0 0.001447888107
2680.0 0.0013763847930000003
2690.0 0.001889764677
2700.0 0.0030136952880000004
2710.0 0.004339853691
2720.0 0.005258942127000001
2730.0 0.005570988990000001
2740.0 0.005669685195
2750.0 0.005795972337000001
2760.0 0.005845474452000001
2770.0 0.005845567026000001
2780.0 0.005999066484000001
2790.0 0.0064413182340000005
2800.0 0.006646114122
2810.0 0.006624315165
2820.0 0.006518729190000001
2830.0 0.006224533458000001
2840.0 0.005960676246000001
2850.0 0.0059557909140000006
2860.0 0.005993531469
2870.0 0.006015128406000001
2880.0 0.006094135320000001
2890.0 0.006471828582000001
2900.0 0.007141591371000001
2910.0 0.007853112582000001
2920.0 0.008533599525
2930.0 0.009012291354000002
2940.0 0.009069540603
2950.0 0.008644778679
2960.0 0.008242971000000002
2970.0 0.008034801378
2980.0 0.007872732942000001
2990.0 0.007542814413
3000.0 0.007013979222
3010.0 0.006531280848000001
3020.0 0.0062275942830000005
3030.0 0.006216725052
3040.0 0.006306681672000001
3050.0 0.006290848743000001
3060.0 0.006256296552
3070.0 0.006273755742000001
3080.0 0.006374959437
3090.0 0.006300075618000001
3100.0 0.006079941861000001
3110.0 0.006169688358
3120.0 0.006514557477000001
3130.0 0.006744712869000001
3140.0 0.006852766485000001
3150.0 0.006941285211000001
3160.0 0.0071610273600000015
3170.0 0.007606920021000001
3180.0 0.008233029729
3190.0 0.008800279688999999
3200.0 0.009130105866000002
3210.0 0.009070251669000001
3220.0 0.008699943570000002
3230.0 0.008170571694
3240.0 0.0076965144480000015
3250.0 0.007301865270000001
3260.0 0.006970106361
3270.0 0.006769633257000002
3280.0 0.0066583055850000005
3290.0 0.0065511746010000005
3300.0 0.006475133163000001
3310.0 0.006487290771000001
3320.0 0.006571136286000001
3330.0 0.006646709526000001
3340.0 0.006708103181999999
3350.0 0.006797605257
3360.0 0.006981900111000001
3370.0 0.007269248919
3380.0 0.007588936689000001
3390.0 0.007909752996
3400.0 0.008235551205
3410.0 0.008598717342000002
3420.0 0.008988625821
3430.0 0.009294809775000001
3440.0 0.009482758971000002
3450.0 0.009575095875
3460.0 0.009578514564000001
3470.0 0.009555052272
3480.0 0.009546025974000002
3490.0 0.009581134608000001
3500.0 0.009723442602
3510.0 0.010037462823
3520.0 0.010490147685000001
3530.0 0.011011198890000002
3540.0 0.01154028705
3550.0 0.01201834629
3560.0 0.012415924980000001
3570.0 0.012769385610000001
3580.0 0.013111685190000002
3590.0 0.01341116652
3600.0 0.013621428270000001
3610.0 0.013732903349999999
3620.0 0.013804296330000002
3630.0 0.01390507545
3640.0 0.014100907200000002
3650.0 0.014477342610000003
3660.0 0.015143138370000002
3670.0 0.01614033129
3680.0 0.017332134960000002
3690.0 0.01857405624
3700.0 0.019845553470000003
3710.0 0.02117514033
3720.0 0.0222950493
3730.0 0.02262719904
3740.0 0.022004402460000003
3750.0 0.02066475678
3760.0 0.01884207795
3770.0 0.01671416133
3780.0 0.014491983510000004
3790.0 0.01237212438
3800.0 0.010444801632000001
3810.0 0.008917384689000002
3820.0 0.008213345322
3830.0 0.008564985885000001
3840.0 0.009966862938
3850.0 0.01223221887
3860.0 0.01495148688
3870.0 0.01769020764
3880.0 0.020251411650000002
3890.0 0.022738283400000003
3900.0 0.025386389310000004
3910.0 0.0282769503
3920.0 0.031161247560000004
3930.0 0.03359829807
3940.0 0.03526429485000001
3950.0 0.036110047140000004
3960.0 0.03631062636
3970.0 0.036137133360000004
3980.0 0.0358014849
3990.0 0.03532087155000001
4000.0 0.03453336762
4010.0 0.03329926296
4020.0 0.031680012720000005
4030.0 0.02988509388
4040.0 0.02810353611
4050.0 0.02646339456
4060.0 0.025085235210000004
4070.0 0.02404940541
4080.0 0.02330432679
4090.0 0.022696552950000004
4100.0 0.022136289330000003
4110.0 0.021690333510000003
4120.0 0.02148097863
4130.0 0.02153237607
4140.0 0.02174754069
4150.0 0.022008832470000003
4160.0 0.022268574690000004
4170.0 0.022552075350000002
4180.0 0.02290034895
4190.0 0.02331487734
4200.0 0.023743298490000002
4210.0 0.02411011797
4220.0 0.024372912689999998
4230.0 0.02455965132
4240.0 0.024742476090000003
4250.0 0.02497188867
4260.0 0.02525330475
4270.0 0.02558713836
4280.0 0.02600323296
4290.0 0.026528104230000002
4300.0 0.02712590583
4310.0 0.027691295430000002
4320.0 0.028086981570000003
4330.0 0.028169071620000003
4340.0 0.027807027360000004
4350.0 0.02693723025
4360.0 0.025617686670000004
4370.0 0.02401087731
4380.0 0.02230043058
4390.0 0.02063023134
4400.0 0.019111185240000002
4410.0 0.017845614300000003
4420.0 0.016917838560000002
4430.0 0.016375404870000002
4440.0 0.01623879162
4450.0 0.0165227052
4460.0 0.017228352180000003
4470.0 0.01831637196
4480.0 0.01971045759
4490.0 0.02134199331
4500.0 0.023187764580000002
4510.0 0.025261403310000003
4520.0 0.02757551466
4530.0 0.030115488809999997
4540.0 0.032838809430000004
4550.0 0.035682575040000004
4560.0 0.03856177074
4570.0 0.041366570910000004
4580.0 0.043978409790000006
4590.0 0.04629651936
4600.0 0.048246726090000004
4610.0 0.049770080099999996
4620.0 0.05081431482000001
4630.0 0.05133121629000001
4640.0 0.05127169698
4650.0 0.050587146660000006
4660.0 0.04925347056000001
4670.0 0.047309379930000006
4680.0 0.04487215737
4690.0 0.042109884630000004
4700.0 0.039197538780000006
4710.0 0.03629511522
4720.0 0.03354283359000001
4730.0 0.031043749620000005
4740.0 0.02883876015
4750.0 0.026914098959999997
4760.0 0.025253616660000002
4770.0 0.02388928125
4780.0 0.022897581720000004
4790.0 0.02234497266
4800.0 0.02222985345
4810.0 0.022460837790000004
4820.0 0.02287565589
4830.0 0.023289859050000004
4840.0 0.02356461069
4850.0 0.023671225080000004
4860.0 0.02371230729
4870.0 0.02387357475
4880.0 0.024332254500000004
4890.0 0.025183121670000003
4900.0 0.026419772670000004
4910.0 0.02795799069
4920.0 0.029664509130000002
4930.0 0.03136892745000001
4940.0 0.03286446819
4950.0 0.033921008370000005
4960.0 0.03432731388
4970.0 0.033954359430000004
4980.0 0.03281109939
4990.0 0.031058383860000004
5000.0 0.028972060050000005
5010.0 0.026865574200000002
5020.0 0.02500319955
5030.0 0.023541441660000006
5040.0 0.022518876360000002
5050.0 0.021888024510000003
5060.0 0.02156499342
5070.0 0.021470077320000003
5080.0 0.02154329958
5090.0 0.02173778934
5100.0 0.022007767980000002
5110.0 0.022305279060000002
5120.0 0.022587354480000005
5130.0 0.022828306620000002
5140.0 0.02303076951
5150.0 0.0232276491
5160.0 0.02346980115
5170.0 0.023805189870000003
5180.0 0.02426342562
5190.0 0.02485344168
5200.0 0.025569682500000003
5210.0 0.026397063180000006
5220.0 0.027311665440000004
5230.0 0.028281954180000003
5240.0 0.029274880259999997
5250.0 0.030264116700000003
5260.0 0.031233267690000007
5270.0 0.032171289840000006
5280.0 0.03306537375
5290.0 0.0338980902
5300.0 0.03464977998
5310.0 0.035302069260000006
5320.0 0.03584086881
5330.0 0.03626212602
5340.0 0.036576206070000006
5350.0 0.036797799810000004
5360.0 0.036927573240000004
5370.0 0.03694853337
5380.0 0.036838845390000007
5390.0 0.036586335930000005
5400.0 0.03620579352
5410.0 0.03574842579
5420.0 0.0352930716
5430.0 0.03492347046
5440.0 0.03470547423
5450.0 0.03467389029
5460.0 0.034828605420000006
5470.0 0.03513649278
5480.0 0.0355380375
5490.0 0.035957993790000004
5500.0 0.03631730745
5510.0 0.036542528670000005
5520.0 0.03657130098
5530.0 0.036355519200000005
5540.0 0.03586428204000001
5550.0 0.035086733700000004
5560.0 0.03403294854
5570.0 0.03273116274
5580.0 0.03122199231
5590.0 0.02955426393
5600.0 0.027779295120000005
5610.0 0.025945317600000004
5620.0 0.024097105440000002
5630.0 0.022278682350000002
5640.0 0.02053816017
5650.0 0.018931845870000002
5660.0 0.01752481209
5670.0 0.016387367340000004
5680.0 0.01558841376
5690.0 0.015187022220000002
5700.0 0.015224212770000002
5710.0 0.015717517860000002
5720.0 0.01665956931
5730.0 0.018019355940000002
5740.0 0.01974408171
5750.0 0.021761089350000002
5760.0 0.02398076856
5770.0 0.026301514380000002
5780.0 0.028617014340000003
5790.0 0.03082484208
5800.0 0.032834149650000005
5810.0 0.03457094001
5820.0 0.035981851020000004
5830.0 0.03703778514
5840.0 0.03773600178
5850.0 0.038096995980000006
5860.0 0.03815600913
5870.0 0.037955462100000004
5880.0 0.037538247510000004
5890.0 0.03694236066
5900.0 0.03619617093
5910.0 0.03531560571
5920.0 0.034305813180000005
5930.0 0.0331675104
5940.0 0.03190493202
5950.0 0.030531937500000002
5960.0 0.029075021430000004
5970.0 0.027573360150000004
5980.0 0.026075848050000003
5990.0 0.02463527118
6000.0 0.023301265410000004
6010.0 0.02211467097
6020.0 0.02110469862
6030.0 0.020288291400000002
6040.0 0.01967000697
6050.0 0.01924169016
6060.0 0.018982892550000005
6070.0 0.0188636841
6080.0 0.01885104342
6090.0 0.01891612716
6100.0 0.019039087410000002
6110.0 0.019209423570000002
6120.0 0.019422595740000003
6130.0 0.019675541430000002
6140.0 0.01996331781
6150.0 0.02027725356
6160.0 0.02060382555
6170.0 0.02092365984
6180.0 0.02121092562
6190.0 0.02143403784
6200.0 0.02155828125
6210.0 0.021550352520000003
6220.0 0.021384056760000002
6230.0 0.021046022910000003
6240.0 0.020540132640000004
6250.0 0.019889503920000003
6260.0 0.019135262250000003
6270.0 0.018332117310000003
6280.0 0.017541637470000003
6290.0 0.01682491602
6300.0 0.01623641844
6310.0 0.015819686700000002
6320.0 0.015603948210000003
6330.0 0.015600139800000001
6340.0 0.01579986099
6350.0 0.016181389080000004
6360.0 0.016719872280000003
6370.0 0.017394651270000002
6380.0 0.018191476980000003
6390.0 0.0191008911
6400.0 0.02010958029
6410.0 0.021184160190000002
6420.0 0.022263122370000003
6430.0 0.023274018240000003
6440.0 0.024163218150000002
6450.0 0.024907348830000002
6460.0 0.02550021426
6470.0 0.025936427610000003
6480.0 0.026206887990000004
6490.0 0.02630306061
6500.0 0.026221714260000004
6510.0 0.025966465320000007
6520.0 0.02554661115
6530.0 0.024975114330000003
6540.0 0.02426725956
6550.0 0.023440228530000003
6560.0 0.022512559350000003
6570.0 0.0215037525
6580.0 0.0204337458
6590.0 0.01932268575
6600.0 0.018191430360000004
6610.0 0.017061925440000004
6620.0 0.01595643759
6630.0 0.014895582840000003
6640.0 0.013896005640000002
6650.0 0.01296886593
6660.0 0.01211967264
6670.0 0.011349385920000002
6680.0 0.010656205460999999
6690.0 0.010037341167
6700.0 0.009490171107000003
6710.0 0.009012520902
6720.0 0.008602279776000001
6730.0 0.008256868089
6740.0 0.00797302011
6750.0 0.007746962949000001
6760.0 0.007574702271
6770.0 0.007452152943
6780.0 0.007375194534000001
6790.0 0.007339894092000001
6800.0 0.007342887873000001
6810.0 0.00738162099
6820.0 0.007454242962000001
6830.0 0.007559281041
6840.0 0.007695354498
6850.0 0.007861107912
6860.0 0.008055334935
6870.0 0.008276191302
6880.0 0.008519878371
6890.0 0.008779210446000002
6900.0 0.0090428925
6910.0 0.00929638986
6920.0 0.009524491641
6930.0 0.009714691806
6940.0 0.009860052966000002
6950.0 0.009960530943
6960.0 0.010022527551
6970.0 0.010057123254
6980.0 0.010077688113000001
6990.0 0.010097467869000001
7000.0 0.010127567406
7010.0 0.010175683686000001
7020.0 0.010245793728000002
7030.0 0.010338690849000002
7040.0 0.010452950586000001
7050.0 0.010585836012000001
7060.0 0.010733928771000002
7070.0 0.010893579627000001
7080.0 0.011061373998000001
7090.0 0.011234672970000002
7100.0 0.01141208982
7110.0 0.011593699140000002
7120.0 0.01178081628
7130.0 0.011975375969999999
7140.0 0.01217878791
7150.0 0.012391462800000001
7160.0 0.01261280124
7170.0 0.012841242570000003
7180.0 0.01307438031
7190.0 0.013308925530000001
7200.0 0.01354041825
7210.0 0.013762886670000002
7220.0 0.01396874727
7230.0 0.014149261020000003
7240.0 0.014295656700000003
7250.0 0.014400820320000002
7260.0 0.01446118212
7270.0 0.014478181770000001
7280.0 0.01445857584
7290.0 0.014413195710000002
7300.0 0.01435443675
7310.0 0.014285460240000002
7320.0 0.01420877367
7330.0 0.014140883850000003
7340.0 0.014082632160000002
7350.0 0.014032957440000004
7360.0 0.01399012254
7370.0 0.013952428050000002
7380.0 0.013918398779999999
7390.0 0.01388651292
7400.0 0.013854508290000001
7410.0 0.013818467700000002
7420.0 0.01377228171
7430.0 0.013707887280000003
7440.0 0.0136165476
7450.0 0.01349060034
7460.0 0.01332507936
7470.0 0.013119194340000001
7480.0 0.012877623930000002
7490.0 0.012611096280000001
7500.0 0.012335275710000001
7510.0 0.01206743493
7520.0 0.01182176973
7530.0 0.011605649400000003
7540.0 0.011419172730000001
7550.0 0.01125828045
7560.0 0.011119046490000001
7570.0 0.011000239638000002
7580.0 0.010903461957
7590.0 0.010832203287
7600.0 0.010790889420000001
7610.0 0.010783910073
7620.0 0.010814633208
7630.0 0.010884917076
7640.0 0.010995069813000002
7650.0 0.011143215630000002
7660.0 0.011323479630000001
7670.0 0.011524205370000002
7680.0 0.01172818674
7690.0 0.01191549369
7700.0 0.012067389420000001
7710.0 0.012169362900000001
7720.0 0.012212302140000002
7730.0 0.01219224666
7740.0 0.012109701510000001
7750.0 0.011969086710000002
7760.0 0.011778455310000002
7770.0 0.01154906604
7780.0 0.011294277750000001
7790.0 0.011027635326
7800.0 0.010760572878000002
7810.0 0.010500561261000001
7820.0 0.010250352054000001
7830.0 0.010008441762000001
7840.0 0.009770325672
7850.0 0.009529956171
7860.0 0.009281056430999999
7870.0 0.009018252608999999
7880.0 0.008738076620999999
7890.0 0.008439767784
7900.0 0.00812568063
7910.0 0.007801152594000001
7920.0 0.007473121509
7930.0 0.007151241822000001
7940.0 0.0068441512200000006
7950.0 0.006558810069
7960.0 0.006299352786000001
7970.0 0.006066621084000001
7980.0 0.005858612634000001
7990.0 0.005671717716
8000.0 0.005502237255000001
8010.0 0.005347518573000001
8020.0 0.005206228893
8030.0 0.005077718532000001
8040.0 0.0049608772680000005
8050.0 0.004853125017
8060.0 0.004750070175
8070.0 0.004646000571000001
8080.0 0.004534938189
8090.0 0.004411751721
8100.0 0.004272894384
8110.0 0.0041166426810000005
8120.0 0.003943031022
8130.0 0.003753787122000001
8140.0 0.0035524402260000004
8150.0 0.0033445074780000003
8160.0 0.003137456736
8170.0 0.0029401509060000006
8180.0 0.002761695873
8190.0 0.002609922021
8200.0 0.0024899593260000004
8210.0 0.002403394977
8220.0 0.0023483206620000005
8230.0 0.002320240215
8240.0 0.002313480537
8250.0 0.002322592305
8260.0 0.0023432945820000004
8270.0 0.0023727866160000006
8280.0 0.0024095482620000003
8290.0 0.002452943823
8300.0 0.0025029211290000003
8310.0 0.0025599245130000004
8320.0 0.002624956416
8330.0 0.002699650536
8340.0 0.002786280597
8350.0 0.002887691085
8360.0 0.003007153392
8370.0 0.0031480928670000003
8380.0 0.0033136178430000006
8390.0 0.0035058651810000005
8400.0 0.003725321283
8410.0 0.003970367658000001
8420.0 0.004237230084
8430.0 0.004520312829
8440.0 0.0048127086959999996
8450.0 0.0051066323670000005
8460.0 0.0053936801429999995
8470.0 0.005665054386
8480.0 0.005912042817000001
8490.0 0.0061269621270000005
8500.0 0.0063044926410000006
8510.0 0.006442992225
8520.0 0.00654521712
8530.0 0.006618002373
8540.0 0.006670849140000002
8550.0 0.006713809469999999
8560.0 0.0067553416740000006
8570.0 0.006800800059
8580.0 0.006851974833
8590.0 0.006907731465
8600.0 0.006965454240000001
8610.0 0.007022755215000002
8620.0 0.0070788348570000005
8630.0 0.007135003188
8640.0 0.007194219024000001
8650.0 0.007259915373
8660.0 0.007334687970000001
8670.0 0.007419422928
8680.0 0.007513146777000001
8690.0 0.007613488668000001
8700.0 0.007717396767
8710.0 0.007821766737000002
8720.0 0.007923817473000002
8730.0 0.008021247501
8740.0 0.008112249963000001
8750.0 0.008195405946000002
8760.0 0.008269396548000001
8770.0 0.008332513146
8780.0 0.008382111054
8790.0 0.008414316261000001
8800.0 0.008424289722
8810.0 0.008407138446
8820.0 0.008359233177
8830.0 0.008279454702
8840.0 0.008169852081
8850.0 0.008035418427
8860.0 0.007883046618
