#lamb flux
1000.0 0.00015955153955
1010.0 0.00019781464364999998
1020.0 0.00024604942375
1030.0 0.00030657112915
1040.0 0.00038230295284999997
1050.0 0.00047669835070000003
1060.0 0.00059375762875
1070.0 0.0007380109672
1080.0 0.0009144588309999999
1090.0 0.001128464038
1100.0 0.001385595003
1110.0 0.0016914269514999999
1120.0 0.0020513129585
1130.0 0.0024701416025000003
1140.0 0.0029520983375
1150.0 0.0035004451169999996
1160.0 0.0041173296775
1170.0 0.0048036302274999994
1180.0 0.00555884095
1190.0 0.006380997980499999
1200.0 0.0072666510149999985
1210.0 0.0082108814775
1220.0 0.009207369275
1230.0 0.010248514055
1240.0 0.011325598375
1250.0 0.012429001065
1260.0 0.013548442699999998
1270.0 0.014673257690000002
1280.0 0.015792674819999998
1290.0 0.016896105394999996
1300.0 0.017973409415
1310.0 0.01901514654
1320.0 0.02001279241
1330.0 0.02095891863
1340.0 0.02184733304
1350.0 0.02267318027
1360.0 0.023432993285
1370.0 0.02412471282
1380.0 0.024747666255
1390.0 0.02530250931
1400.0 0.0257911407
1410.0 0.026216582989999997
1420.0 0.026582847394999998
1430.0 0.026894769850000003
1440.0 0.027157843699999993
1450.0 0.02737803211
1460.0 0.027561590615000003
1470.0 0.02771487784
1480.0 0.027844197485
1490.0 0.027955635240000002
1500.0 0.02805493626
1510.0 0.028147397004999998
1520.0 0.028237796795000002
1530.0 0.028330347955
1540.0 0.028428687365
1550.0 0.028535883220000002
1560.0 0.028654468829999998
1570.0 0.028786487405000002
1580.0 0.02893355374
1590.0 0.029096913365
1600.0 0.029277503384999997
1610.0 0.029476017545
1620.0 0.02969295017
1630.0 0.029928646019999998
1640.0 0.030183334935
1650.0 0.030457161409999996
1660.0 0.03075020572
1670.0 0.031062498285
1680.0 0.031394035725
1690.0 0.031744780859999995
1700.0 0.03211467454
1710.0 0.0325036348
1720.0 0.032911556859999996
1730.0 0.03333831735
1740.0 0.033783770085
1750.0 0.034247747755
1760.0 0.034730060235
1770.0 0.03523049289499999
1780.0 0.03574880321999999
1790.0 0.03628472419
1800.0 0.03683795414
1810.0 0.037408164365
1820.0 0.037994986445
1830.0 0.038598019005
1840.0 0.039216817575
1850.0 0.039850888675
1860.0 0.040499686434999994
1870.0 0.041162595695
1880.0 0.041838911725
1890.0 0.04252781065
1900.0 0.043228307199999996
1910.0 0.043939185420000006
1920.0 0.04465891924
1930.0 0.04538556178
1940.0 0.04611661775499999
1950.0 0.046848899825
1960.0 0.047578394239999995
1970.0 0.04830015352499999
1980.0 0.049008251695
1990.0 0.049695844249999996
2000.0 0.05035536675
2010.0 0.05097890577
2020.0 0.05155874815
2030.0 0.05208808995
2040.0 0.0525618561
2050.0 0.05297753187999999
2060.0 0.05333589469
2070.0 0.053641510909999995
2080.0 0.05390287616999999
2090.0 0.054132117065
2100.0 0.05434422135999999
2110.0 0.054555855835
2120.0 0.054783889225
2130.0 0.05504380615499999
2140.0 0.05534825204999999
2150.0 0.055705888159999994
2160.0 0.056120746825
2170.0 0.05659213937
2180.0 0.057115105645
2190.0 0.057681277615
2200.0 0.058279975325
2210.0 0.058899313004999995
2220.0 0.05952715223
2230.0 0.06015174581
2240.0 0.06076206226999999
2250.0 0.06134781204499999
2260.0 0.061899303829999995
2270.0 0.06240726712999999
2280.0 0.062862802405
2290.0 0.06325757626499999
2300.0 0.06358431495
2310.0 0.063837602855
2320.0 0.06401489821999999
2330.0 0.064117620645
2340.0 0.06415212283999999
2350.0 0.06413033620499999
2360.0 0.06406989082
2370.0 0.06399356028
2380.0 0.06392795363499999
2390.0 0.06390147387
2400.0 0.06394169587000001
2410.0 0.064072391175
2420.0 0.064310561185
2430.0 0.06466387342999999
2440.0 0.065128899745
2450.0 0.065690510405
2460.0 0.06632262871
2470.0 0.06699039503
2480.0 0.06765355103
2490.0 0.06827068664
2500.0 0.06880381150499999
2510.0 0.0692226366
2520.0 0.06950797113
2530.0 0.069653749685
2540.0 0.06966739897
2550.0 0.06956853397
2560.0 0.069386224375
2570.0 0.06915529686
2580.0 0.06891229514
2590.0 0.06869170112999999
2600.0 0.06852291914
2610.0 0.068428318855
2620.0 0.068422408925
2630.0 0.06851201948499999
2640.0 0.06869723672499999
2650.0 0.068975927865
2660.0 0.06950653631999999
2670.0 0.071956175265
2680.0 0.07911416434999999
2690.0 0.0917351942
2700.0 0.10850848645
2710.0 0.12195929785000001
2720.0 0.13041338765
2730.0 0.13391947010000002
2740.0 0.13731616729999999
2750.0 0.1447864743
2760.0 0.1508051389
2770.0 0.16225396785
2780.0 0.18876861444999998
2790.0 0.21792490005
2800.0 0.23779549755
2810.0 0.25219635935
2820.0 0.26752618035
2830.0 0.28087868445
2840.0 0.2882125324
2850.0 0.2946133567
2860.0 0.31126834049999996
2870.0 0.3398937971
2880.0 0.3635904363
2890.0 0.36944105575
2900.0 0.37280989330000003
2910.0 0.3857967152
2920.0 0.39931727289999996
2930.0 0.4093164452
2940.0 0.42032600090000005
2950.0 0.4298461934
2960.0 0.4260983142
2970.0 0.40520177685
2980.0 0.3806734802
2990.0 0.36933277745
3000.0 0.37851968505
3010.0 0.40633005465
3020.0 0.44052911435
3030.0 0.46522460269999993
3040.0 0.47546997420000003
3050.0 0.4829911333
3060.0 0.49232806219999997
3070.0 0.5032162252
3080.0 0.5229044547999999
3090.0 0.5416990969
3100.0 0.5460815542
3110.0 0.5383978001999999
3120.0 0.5282912114999999
3130.0 0.5188269073
3140.0 0.5054988913
3150.0 0.48830475525000006
3160.0 0.47039334095
3170.0 0.4542151315
3180.0 0.43959350499999994
3190.0 0.41910287185
3200.0 0.3882554455
3210.0 0.36131503719999997
3220.0 0.35308096004999995
3230.0 0.35561828380000005
3240.0 0.35543489344999996
3250.0 0.35001898425
3260.0 0.3451428864
3270.0 0.34521777875
3280.0 0.34883404075
3290.0 0.35381756345
3300.0 0.36242772475
3310.0 0.3778157916
3320.0 0.39808228849999994
3330.0 0.41749754084999996
3340.0 0.43348617455
3350.0 0.44852072719999997
3360.0 0.4626472513
3370.0 0.47232313504999995
3380.0 0.47869678415000005
3390.0 0.48787818234999997
3400.0 0.50341269615
3410.0 0.52357870565
3420.0 0.54417563135
3430.0 0.5622682896999999
3440.0 0.5774561507
3450.0 0.5901860757
3460.0 0.6020751834499999
3470.0 0.6160506806999999
3480.0 0.63203423595
3490.0 0.64810005195
3500.0 0.662998999
3510.0 0.6755030639499999
3520.0 0.6855948989499999
3530.0 0.69320704765
3540.0 0.6969644415499999
3550.0 0.6965148086
3560.0 0.6940692602999999
3570.0 0.6902540176999999
3580.0 0.6842355136499999
3590.0 0.6747725023
3600.0 0.6607746970499999
3610.0 0.64381539495
3620.0 0.6262642633
3630.0 0.6063529114499999
3640.0 0.5802657081
3650.0 0.54604313205
3660.0 0.50429592395
3670.0 0.45865982304999997
3680.0 0.41495841725
3690.0 0.37782340504999995
3700.0 0.3490177691
3710.0 0.32944776345
3720.0 0.3199174225
3730.0 0.3193998769
3740.0 0.32522829819999993
3750.0 0.33471905935
3760.0 0.34617861135
3770.0 0.35930463855
3780.0 0.37451258519999997
3790.0 0.39254821449999994
3800.0 0.4151264455
3810.0 0.44457470395
3820.0 0.48218460615
3830.0 0.5275475185499999
3840.0 0.5789187527499999
3850.0 0.63318620755
3860.0 0.68640946205
3870.0 0.7349436425499999
3880.0 0.77582308635
3890.0 0.8074420145999999
3900.0 0.82957691635
3910.0 0.8421039315000001
3920.0 0.8445313292000001
3930.0 0.8371582478999999
3940.0 0.8216250016
3950.0 0.7997331218499999
3960.0 0.77336692485
3970.0 0.7460804383499999
3980.0 0.7231701477
3990.0 0.7093778718
4000.0 0.7068869047499999
4010.0 0.7151233648
4020.0 0.7316862266999999
4030.0 0.7533319241499999
4040.0 0.77653707755
4050.0 0.7979867265499999
4060.0 0.8146608580499999
4070.0 0.82386084625
4080.0 0.8241226694999999
4090.0 0.8159520772000001
4100.0 0.8012981717
4110.0 0.7823877139
4120.0 0.7609347018
4130.0 0.738262642
4140.0 0.7157672547999999
4150.0 0.6946329091
4160.0 0.6750536422500001
4170.0 0.65608457525
4180.0 0.63630334495
4190.0 0.6147030747
4200.0 0.59126325635
4210.0 0.56683276
4220.0 0.54244040695
4230.0 0.51859839395
4240.0 0.49518017380000007
4250.0 0.47207125745
4260.0 0.44986153095
4270.0 0.42996395260000003
4280.0 0.41419920165
4290.0 0.40428113244999997
4300.0 0.40136871319999995
4310.0 0.40560847534999994
4320.0 0.41588040519999997
4330.0 0.43010054685000004
4340.0 0.4458696072999999
4350.0 0.4609355517
4360.0 0.47343277214999996
4370.0 0.48210748299999995
4380.0 0.48647570204999996
4390.0 0.4868779981
4400.0 0.48451164319999995
4410.0 0.4813743272
4420.0 0.47997141595
4430.0 0.48259836885
4440.0 0.49040109884999994
4450.0 0.5028359921
4460.0 0.51795007615
4470.0 0.5332469337
4480.0 0.5465394766
4490.0 0.55644937465
4500.0 0.5625070866999999
4510.0 0.564919511
4520.0 0.5642320697
4530.0 0.5611325759
4540.0 0.5563885768999999
4550.0 0.55076722285
4560.0 0.5449039791
4570.0 0.5391391863
4580.0 0.5333231358
4590.0 0.52671984105
4600.0 0.5182725872999999
4610.0 0.5071628146
4620.0 0.49326426304999993
4630.0 0.47728236399999996
4640.0 0.46057059619999996
4650.0 0.4447103855999999
4660.0 0.4310092007
4670.0 0.4201048306
4680.0 0.4118113584
4690.0 0.40526741645000003
4700.0 0.3993440763
4710.0 0.3931216146
4720.0 0.38620718239999996
4730.0 0.37880324169999996
4740.0 0.37154782664999997
4750.0 0.36513664264999995
4760.0 0.35982576695
4770.0 0.35512761764999995
4780.0 0.3499807142
4790.0 0.34325424379999997
4800.0 0.33427213884999996
4810.0 0.32309419154999997
4820.0 0.3104929347
4830.0 0.29772144414999996
4840.0 0.2862037308
4850.0 0.27722509035
4860.0 0.2716419641
4870.0 0.26965488745
4880.0 0.2707283332
4890.0 0.2736827912
4900.0 0.27698051355000003
4910.0 0.2793838879
4920.0 0.28072148064999997
4930.0 0.28169898509999997
4940.0 0.28286508509999997
4950.0 0.28424562075000004
4960.0 0.2857775466
4970.0 0.28760907565
4980.0 0.2900484132
4990.0 0.2933925852
5000.0 0.29778990605
5010.0 0.3032255629
5020.0 0.3096461433
5030.0 0.3170458928
5040.0 0.32538694695
5050.0 0.33444582014999996
5060.0 0.3437565625
5070.0 0.35269726244999994
5080.0 0.36063736409999997
5090.0 0.36706101184999995
5100.0 0.3716515504
5110.0 0.37435360689999997
5120.0 0.3754009675
5130.0 0.37527167404999995
5140.0 0.3745390337
5150.0 0.37363329509999993
5160.0 0.37260951
5170.0 0.37105821675
5180.0 0.3682260725
5190.0 0.36326311710000003
5200.0 0.3555468137
5210.0 0.34496769255
5220.0 0.33204750735000005
5230.0 0.31783312015000004
5240.0 0.30362547604999995
5250.0 0.2906697248
5260.0 0.27991687164999995
5270.0 0.2719047422
5280.0 0.26675063935
5290.0 0.26422508645
5300.0 0.26386793875
5310.0 0.2651080185
5320.0 0.2673586422
5330.0 0.27006111275
5340.0 0.2726690785
5350.0 0.27462541405
5360.0 0.2753933247
5370.0 0.27455252435
5380.0 0.2719202902
5390.0 0.2676171108
5400.0 0.26202343894999996
5410.0 0.2556787818
5420.0 0.2492456278
5430.0 0.24351499834999996
5440.0 0.2393191255
5450.0 0.2373584889
5460.0 0.23805634905
5470.0 0.2414862801
5480.0 0.24735930050000002
5490.0 0.2550643992
5500.0 0.2637626264
5510.0 0.27252335825
5520.0 0.28047911774999995
5530.0 0.28697868875
5540.0 0.29171197315
5550.0 0.29475311125
5560.0 0.29647993635
5570.0 0.2973937954
5580.0 0.29792461594999997
5590.0 0.29831389899999994
5600.0 0.29861335855
5610.0 0.2987584197
5620.0 0.2986371284
5630.0 0.29812109535
5640.0 0.29708112005
5650.0 0.29540703985
5660.0 0.29302182455
5670.0 0.28987925265
5680.0 0.28596676745
5690.0 0.28133926859999997
5700.0 0.2761624437
5710.0 0.27071326684999997
5720.0 0.26532230204999996
5730.0 0.2603049878
5740.0 0.2559346647
5750.0 0.25245198874999997
5760.0 0.2500603092
5770.0 0.24888157645
5780.0 0.24890428160000003
5790.0 0.24997010544999998
5800.0 0.2518091888
5810.0 0.25409860645
5820.0 0.25651799355
5830.0 0.2587921336
5840.0 0.26071490574999995
5850.0 0.2621657961
5860.0 0.2631253105
5870.0 0.26368396535
5880.0 0.2640273649
5890.0 0.2643650269
5900.0 0.2648113728
5910.0 0.26529456069999996
5920.0 0.26557449229999996
5930.0 0.2653590849
5940.0 0.2644133271
5950.0 0.2625739818
5960.0 0.2596887124
5970.0 0.25556446174999997
5980.0 0.24998017784999998
5990.0 0.24275121975
6000.0 0.2338002108
6010.0 0.2232006153
6020.0 0.21118543355
6030.0 0.1981295836
6040.0 0.18451794334999996
6050.0 0.17090732555
6060.0 0.1578837039
6070.0 0.14600749085
6080.0 0.1357559086
6090.0 0.12747225529999998
6100.0 0.1213430647
6110.0 0.11741929029999999
6120.0 0.11567229505
6130.0 0.11605225775000001
6140.0 0.1185156271
6150.0 0.12300403894999999
6160.0 0.12938448185
6170.0 0.1373939073
6180.0 0.14663459069999998
6190.0 0.15662461165
6200.0 0.16687111545
6210.0 0.1769362062
6220.0 0.1864790109
6230.0 0.19526580255
6240.0 0.20315068344999998
6250.0 0.21004361885
6260.0 0.21588839935
6270.0 0.2206629282
6280.0 0.22439384825
6290.0 0.22716249075
6300.0 0.22908612479999999
6310.0 0.2302810562
6320.0 0.2308327736
6330.0 0.23079223895
6340.0 0.23019722374999999
6350.0 0.2290934932
6360.0 0.22753781439999998
6370.0 0.22558659955
6380.0 0.2232862138
6390.0 0.22067422585
6400.0 0.21778838185
6410.0 0.2146749878
6420.0 0.21139217969999996
6430.0 0.20800849549999997
6440.0 0.2045992416
6450.0 0.2012427326
6460.0 0.19801708875000001
6470.0 0.19499589265
6480.0 0.19224049974999996
6490.0 0.18978874069999999
6500.0 0.1876446377
6510.0 0.1857742978
6520.0 0.18411002804999999
6530.0 0.18255967274999998
6540.0 0.18101913635
6550.0 0.179389951
6560.0 0.1776034013
6570.0 0.17564299285
6580.0 0.17354818715
6590.0 0.17138858685
6600.0 0.1692203084
6610.0 0.1670523088
6620.0 0.16484439985000002
6630.0 0.16253616405000001
6640.0 0.1600876329
6650.0 0.15750983365
6660.0 0.15487079725
6670.0 0.1522743742
6680.0 0.14982219265000002
6690.0 0.1475796218
6700.0 0.1455636715
6710.0 0.14375325055
6720.0 0.1421071145
6730.0 0.14057823065
6740.0 0.13912418
6750.0 0.13771356234999999
6760.0 0.1363261991
6770.0 0.13494865475
6780.0 0.13357132165
6790.0 0.1321898903
6800.0 0.13080815475000002
6810.0 0.1294369817
6820.0 0.12808944329999997
6830.0 0.12677618655
6840.0 0.12550583045
6850.0 0.12428979095
6860.0 0.12314653974999999
6870.0 0.12209912845
6880.0 0.1211667977
6890.0 0.1203562061
6900.0 0.11965820229999999
6910.0 0.11905117964999999
6920.0 0.11850746440000001
6930.0 0.117998842
6940.0 0.11749925265
6950.0 0.1169856532
6960.0 0.1164396311
6970.0 0.11585129985
6980.0 0.11522422534999999
6990.0 0.11457751304999998
7000.0 0.11394140550000001
7010.0 0.11334710854999999
7020.0 0.1128155782
7030.0 0.11235137745
7040.0 0.11194425644999999
7050.0 0.11157585334999999
7060.0 0.11122609094999998
7070.0 0.11087544975000001
7080.0 0.11050317655
7090.0 0.110084741
7100.0 0.10959235105000001
7110.0 0.10900003985000001
7120.0 0.10829228475000001
7130.0 0.10747238969999999
7140.0 0.10656409075
7150.0 0.10560564950000001
7160.0 0.10463765975
7170.0 0.10369043165
7180.0 0.1027773669
7190.0 0.1018961671
7200.0 0.10103478255
7210.0 0.1001781976
7220.0 0.0993135091
7230.0 0.09843206424999999
7240.0 0.09752890289999999
7250.0 0.09660111824999999
7260.0 0.0956467161
7270.0 0.09466503735
7280.0 0.09365766215
7290.0 0.09262873945
7300.0 0.09158384625
7310.0 0.0905279596
7320.0 0.08946305680000001
7330.0 0.0883862564
7340.0 0.08728925204999999
7350.0 0.086160087
7360.0 0.08498726925
7370.0 0.083764925205
7380.0 0.08249713706
7390.0 0.08120012374499999
7400.0 0.07990228993499998
7410.0 0.078641495855
7420.0 0.077459688995
7430.0 0.076394610435
7440.0 0.07547029281999999
7450.0 0.07469455578
7460.0 0.07406726664999999
7470.0 0.07359272225499999
7480.0 0.07328453808
7490.0 0.07315870744000001
7500.0 0.07322108702999999
7510.0 0.073458494005
7520.0 0.07383787619
7530.0 0.07431263859500001
7540.0 0.07483276905
7550.0 0.07535520382
7560.0 0.075851611745
7570.0 0.07631173537
7580.0 0.07674151082
7590.0 0.07715660186
7600.0 0.07757360766999999
7610.0 0.07800247897
7620.0 0.078443444755
7630.0 0.07888962926000001
7640.0 0.07933353987
7650.0 0.079773528835
7660.0 0.08021651078999999
7670.0 0.08067543705
7680.0 0.08116302909
7690.0 0.08168526106
7700.0 0.082237744875
7710.0 0.082805900905
7720.0 0.083367908715
7730.0 0.083899055435
7740.0 0.08437393191499999
7750.0 0.0847687776
7760.0 0.0850637502
7770.0 0.0852443943
7780.0 0.08530172755
7790.0 0.0852307729
7800.0 0.08502820950000001
7810.0 0.08469041229999999
7820.0 0.08421352049500001
7830.0 0.08359585084499999
7840.0 0.082841830305
7850.0 0.081965822185
7860.0 0.08099497211
7870.0 0.079971241935
7880.0 0.07895138608499999
7890.0 0.077999676105
7900.0 0.077168199485
7910.0 0.07647114124
7920.0 0.07587428394
7930.0 0.075316706465
7940.0 0.074753333135
7950.0 0.07418420282
7960.0 0.07364722728999999
7970.0 0.073184350655
7980.0 0.07281105585
7990.0 0.072509447465
8000.0 0.07224042904
8010.0 0.071957823015
8020.0 0.07161627993
8030.0 0.071177729155
8040.0 0.070621781685
8050.0 0.06995057959499999
8060.0 0.06918140397999999
8070.0 0.06833274513
8080.0 0.06741518413499999
8090.0 0.066432036775
8100.0 0.06538563862999999
8110.0 0.064282862085
8120.0 0.06313702603
8130.0 0.061967092264999996
8140.0 0.060795863959999995
8150.0 0.059648040464999996
8160.0 0.05854825015
8170.0 0.05751920408
8180.0 0.056580386265
8190.0 0.055747784105
8200.0 0.05503490239
8210.0 0.05445497044000001
8220.0 0.05402390805499999
8230.0 0.05376286642999999
8240.0 0.05369800423
8250.0 0.05385474835
8260.0 0.05424647007
8270.0 0.054863424005
8280.0 0.055671213585000004
8290.0 0.05662285765499999
8300.0 0.057677365264999995
8310.0 0.05881200253499999
8320.0 0.06002158285499999
8330.0 0.06130880261999999
8340.0 0.06267427192
8350.0 0.0641113668
8360.0 0.065605724795
8370.0 0.06713710731
8380.0 0.068683091425
8390.0 0.07022072862999999
8400.0 0.07172759009
8410.0 0.073183350175
8420.0 0.07457054020000001
8430.0 0.07587423155
8440.0 0.07708099295
8450.0 0.07817798378
8460.0 0.07915298703
8470.0 0.07999554160000001
8480.0 0.08069858498
8490.0 0.08125970553999999
8500.0 0.08168141293
8510.0 0.08197038940999998
8520.0 0.082136241785
8530.0 0.08219020686499999
8540.0 0.08214414845
8550.0 0.08200978331
8560.0 0.08179792913499999
8570.0 0.081517896135
8580.0 0.081177126225
8590.0 0.08078130540999999
8600.0 0.08033493162500001
8610.0 0.079842038055
8620.0 0.07930667056
8630.0 0.07873290373
8640.0 0.078124492745
8650.0 0.077484384965
8660.0 0.076814428405
8670.0 0.076115495105
8680.0 0.07538783772
8690.0 0.07463126021
8700.0 0.07384423481499999
8710.0 0.07302535292
8720.0 0.07217376699
8730.0 0.071288863555
8740.0 0.070370008865
8750.0 0.06941665873999998
8760.0 0.06842909963499999
8770.0 0.06740978373999999
8780.0 0.066364906595
8790.0 0.065305572345
8800.0 0.06424789683
8810.0 0.063211714735
8820.0 0.062218189929999994
8830.0 0.061287152875
8840.0 0.060435196835
8850.0 0.05967520299000001
8860.0 0.05901723528999999
8870.0 0.058469997235
8880.0 0.058041539984999994
8890.0 0.05773801683
8900.0 0.057560182354999996
8910.0 0.057499083785
8920.0 0.057458510265
8930.0 0.05743192741
8940.0 0.057430562735
8950.0 0.05743104692
8960.0 0.057422307085
8970.0 0.05740440238
8980.0 0.057383673685000004
8990.0 0.05736772262
9000.0 0.057362300255000005
9010.0 0.057370011725
9020.0 0.05739015567999999
9030.0 0.057419582805
9040.0 0.05745482690999999
9050.0 0.057495097075
9060.0 0.05754468759
9070.0 0.057612590945
9080.0 0.05770975073499999
9090.0 0.057845097765
9100.0 0.05802232806499999
9110.0 0.058238867764999994
9120.0 0.05848714904499999
9130.0 0.058757130770000006
9140.0 0.05903870336
9150.0 0.059323090645
9160.0 0.059603159979999994
9170.0 0.059873034389999996
9180.0 0.060127486705
9190.0 0.06036138862
9200.0 0.060569131869999994
9210.0 0.060743774779999996
9220.0 0.060875712235
9230.0 0.060950962865
9240.0 0.060949884645
9250.0 0.06084807651
9260.0 0.060621600455
9270.0 0.06025710717
9280.0 0.05976353084
9290.0 0.059178146105
9300.0 0.05856043674
9310.0 0.057974169825
9320.0 0.057466533539999996
9330.0 0.057055747775
9340.0 0.05673248542
9350.0 0.05647136521
9360.0 0.056244127809999996
9370.0 0.05602814411999999
9380.0 0.05580891985499999
9390.0 0.055578765514999996
9400.0 0.055334325605000005
9410.0 0.055074570914999996
9420.0 0.054799506515
9430.0 0.054509605605
9440.0 0.054205740225
9450.0 0.05388910436
9460.0 0.05356117422500001
9470.0 0.053223666015
9480.0 0.052878491964999996
9490.0 0.052527706269999995
9500.0 0.05217344593499999
9510.0 0.05181787247
9520.0 0.05146310936
9530.0 0.051111191364999996
9540.0 0.050764007060000005
9550.0 0.050423258275
9560.0 0.050090426295
9570.0 0.04976674312999999
9580.0 0.049453177995
9590.0 0.049150428015
9600.0 0.048858924984999996
9610.0 0.0485788472
