#lamb flux
1000.0 4.309545152e-06
1010.0 5.221714432e-06
1020.0 6.3474413440000005e-06
1030.0 7.72988608e-06
1040.0 9.422655360000001e-06
1050.0 1.1486965119999999e-05
1060.0 1.399110784e-05
1070.0 1.700922368e-05
1080.0 2.0619271039999998e-05
1090.0 2.490021312e-05
1100.0 2.9928531199999998e-05
1110.0 3.5774304e-05
1120.0 4.2497171199999994e-05
1130.0 5.014253056e-05
1140.0 5.873827328e-05
1150.0 6.8292256e-05
1160.0 7.879062400000001e-05
1170.0 9.01969792e-05
1180.0 0.0001024523648
1190.0 0.0001154759488
1200.0 0.0001291664896
1210.0 0.0001434044032
1220.0 0.000158054496
1230.0 0.0001729693248
1240.0 0.0001879930112
1250.0 0.0002029654784
1260.0 0.0002177268352
1270.0 0.00023212181760000003
1280.0 0.0002460040064
1290.0 0.0002592396416
1300.0 0.000271710976
1310.0 0.00028331894400000004
1320.0 0.0002939852288
1330.0 0.0003036536128
1340.0 0.0003122908544
1350.0 0.000319887104
1360.0 0.0003264561344
1370.0 0.00033203566080000006
1380.0 0.00033668814080000005
1390.0 0.00034050227839999995
1400.0 0.00034359579519999996
1410.0 0.00034611950720000003
1420.0 0.0003482628672
1430.0 0.0003502603712
1440.0 0.0003523980224
1450.0 0.0003550178368
1460.0 0.00035851819520000004
1470.0 0.0003633468224
1480.0 0.00036998357760000005
1490.0 0.0003789107584
1500.0 0.0003905702272
1510.0 0.00040530949759999996
1520.0 0.00042332170240000003
1530.0 0.00044458775040000004
1540.0 0.0004688309376000001
1550.0 0.0004954949568
1560.0 0.0005237542912
1570.0 0.0005525616768000001
1580.0 0.0005807316416
1590.0 0.0006070513664
1600.0 0.0006304056192
1610.0 0.0006498976639999999
1620.0 0.0006649486720000001
1630.0 0.0006753609599999999
1640.0 0.000681337728
1650.0 0.000683457408
1660.0 0.0006826106879999999
1670.0 0.0006799108479999999
1680.0 0.000676592
1690.0 0.0006739084799999999
1700.0 0.000673044608
1710.0 0.0006750415999999999
1720.0 0.0006807418240000001
1730.0 0.000690749632
1740.0 0.000705405888
1750.0 0.0007247733120000001
1760.0 0.0007486327040000001
1770.0 0.0007764909439999999
1780.0 0.000807602048
1790.0 0.00084100544
1800.0 0.0008755803519999999
1810.0 0.000910116096
1820.0 0.000943393792
1830.0 0.000974270976
1840.0 0.001001762816
1850.0 0.00102510848
1860.0 0.001043816896
1870.0 0.00105768672
1880.0 0.001066799232
1890.0 0.0010714875519999998
1900.0 0.0010722857599999999
1910.0 0.0010698672
1920.0 0.001064977792
1930.0 0.001058372608
1940.0 0.001050760256
1950.0 0.0010427603840000002
1960.0 0.0010348746880000002
1970.0 0.0010274731520000001
1980.0 0.001020794432
1990.0 0.0010149569920000002
2000.0 0.0010099799040000001
2010.0 0.001005809344
2020.0 0.001002346176
2030.0 0.00099947328
2040.0 0.0009970784
2050.0 0.0009950714880000002
2060.0 0.000993395392
2070.0 0.0009920304640000002
2080.0 0.0009909937280000003
2090.0 0.0009903341440000001
2100.0 0.0009901254399999999
2110.0 0.000990458112
2120.0 0.000991430592
2130.0 0.000993141248
2140.0 0.000995680192
2150.0 0.0009991224319999999
2160.0 0.00100352096
2170.0 0.001008902656
2180.0 0.001015266304
2190.0 0.001022584384
2200.0 0.001030809408
2210.0 0.001039884864
2220.0 0.001049759424
2230.0 0.00106040192
2240.0 0.0010718142080000002
2250.0 0.0010840384
2260.0 0.001097153984
2270.0 0.0011112645120000002
2280.0 0.001126472896
2290.0 0.00114284768
2300.0 0.001160385728
2310.0 0.001178977344
2320.0 0.0011983802240000002
2330.0 0.0012182095359999999
2340.0 0.0012379477759999998
2350.0 0.0012569760639999999
2360.0 0.0012746257919999998
2370.0 0.0012902460800000002
2380.0 0.0013032796160000002
2390.0 0.0013133390719999999
2400.0 0.0013202737280000002
2410.0 0.001324217792
2420.0 0.00132561248
2430.0 0.001325195008
2440.0 0.001323952768
2450.0 0.001323042048
2460.0 0.0013236777600000003
2470.0 0.001327002688
2480.0 0.0013339516800000002
2490.0 0.0013451273599999999
2500.0 0.001360706048
2510.0 0.001380390336
2520.0 0.001403418944
2530.0 0.0014286371200000001
2540.0 0.0014546195200000002
2550.0 0.0014798288000000001
2560.0 0.0015027856000000002
2570.0 0.001522223104
2580.0 0.0015372032
2590.0 0.0015471801599999998
2600.0 0.001552007872
2610.0 0.001551898624
2620.0 0.001547347136
2630.0 0.0015390390400000001
2640.0 0.0015277586560000001
2650.0 0.001514484096
2660.0 0.00150936384
2670.0 0.001611539584
2680.0 0.002019120576
2690.0 0.002730446592
2700.0 0.0035507404160000002
2710.0 0.0042798624
2720.0 0.004744535296
2730.0 0.00489174432
2740.0 0.004881700288
2750.0 0.004889690432
2760.0 0.004938791808
2770.0 0.005045422016000001
2780.0 0.005172197568
2790.0 0.00531430592
2800.0 0.005304295936000001
2810.0 0.0051874497920000005
2820.0 0.005067236032
2830.0 0.004935417664
2840.0 0.004851494784
2850.0 0.004874919552
2860.0 0.004941291264
2870.0 0.005079201344
2880.0 0.005312557376
2890.0 0.00566812448
2900.0 0.0060818834560000005
2910.0 0.006242486847999999
2920.0 0.006083409792
2930.0 0.006029223744
2940.0 0.00611318144
2950.0 0.00615835136
2960.0 0.006093349056
2970.0 0.005967849152
2980.0 0.005803937152000001
2990.0 0.00551887072
3000.0 0.00512844384
3010.0 0.004832196352
3020.0 0.004706567168
3030.0 0.0047184602879999996
3040.0 0.0047169974400000005
3050.0 0.0046341748480000005
3060.0 0.004612159296
3070.0 0.004628290624
3080.0 0.004635382272
3090.0 0.0046220242560000005
3100.0 0.004612268288000001
3110.0 0.004693678784
3120.0 0.004877428544
3130.0 0.005086102592000001
3140.0 0.005274599487999999
3150.0 0.0054717633919999994
3160.0 0.005749190144000001
3170.0 0.006092774976000001
3180.0 0.006398251328000001
3190.0 0.006571847040000001
3200.0 0.006593598720000001
3210.0 0.00646180224
3220.0 0.006219019136
3230.0 0.005928821632
3240.0 0.005662320384
3250.0 0.005434543296
3260.0 0.005277634112
3270.0 0.005212189376
3280.0 0.005175440384
3290.0 0.005139075456
3300.0 0.00515666112
3310.0 0.0052532811520000005
3320.0 0.005387309568
3330.0 0.005496770624000001
3340.0 0.005572128256
3350.0 0.00564580928
3360.0 0.0057576976
3370.0 0.005912899264
3380.0 0.006111673792000001
3390.0 0.006375948992000001
3400.0 0.00670882816
3410.0 0.0070883136
3420.0 0.0074474156800000005
3430.0 0.0077114720000000005
3440.0 0.007875249919999999
3450.0 0.00797740544
3460.0 0.00805314688
3470.0 0.00813571968
3480.0 0.00823112064
3490.0 0.00832646144
3500.0 0.008496848
3510.0 0.008885954560000001
3520.0 0.009452243200000002
3530.0 0.01004123008
3540.0 0.01054506048
3550.0 0.01093679936
3560.0 0.01124059264
3570.0 0.01143790592
3580.0 0.011515180160000001
3590.0 0.011536824319999998
3600.0 0.011491427200000001
3610.0 0.01132736192
3620.0 0.01114662208
3630.0 0.01116110336
3640.0 0.01150159296
3650.0 0.012185099520000001
3660.0 0.0131527296
3670.0 0.01429197696
3680.0 0.015486056319999999
3690.0 0.016640168320000003
3700.0 0.017595607040000003
3710.0 0.01813685952
3720.0 0.01814535616
3730.0 0.01765211776
3740.0 0.01680175616
3750.0 0.01570114816
3760.0 0.01441520256
3770.0 0.01305747392
3780.0 0.01174120576
3790.0 0.01056838656
3800.0 0.00966558336
3810.0 0.00915624896
3820.0 0.009139709440000001
3830.0 0.0097061152
3840.0 0.010890448000000002
3850.0 0.01260454208
3860.0 0.014659546240000002
3870.0 0.01684129152
3880.0 0.01897713856
3890.0 0.020981468800000003
3900.0 0.0228357024
3910.0 0.02453891008
3920.0 0.02609802368
3930.0 0.02751228032
3940.0 0.0287575392
3950.0 0.029791325440000002
3960.0 0.030524536320000004
3970.0 0.030830710400000003
3980.0 0.030617248000000003
3990.0 0.029884392319999998
4000.0 0.028731487360000002
4010.0 0.02731384128
4020.0 0.02579787712
4030.0 0.0243380416
4040.0 0.023061442560000003
4050.0 0.02204839808
4060.0 0.02129971776
4070.0 0.02072193216
4080.0 0.020181310079999997
4090.0 0.0195988032
4100.0 0.01899736896
4110.0 0.018457776640000003
4120.0 0.018041019520000003
4130.0 0.01776578176
4140.0 0.01763434752
4150.0 0.01764922752
4160.0 0.017812892800000004
4170.0 0.018119073280000002
4180.0 0.01853116352
4190.0 0.01897301312
4200.0 0.01936198848
4210.0 0.019657688320000002
4220.0 0.019872701439999998
4230.0 0.02003888384
4240.0 0.02017610368
4250.0 0.020297739519999997
4260.0 0.0204311328
4270.0 0.02062253632
4280.0 0.020920662400000005
4290.0 0.021342822400000003
4300.0 0.02183853632
4310.0 0.02228210624
4320.0 0.02250402432
4330.0 0.02234225216
4340.0 0.02170904128
4350.0 0.02065401536
4360.0 0.019340800000000002
4370.0 0.017940155519999997
4380.0 0.016566988799999998
4390.0 0.01529345984
4400.0 0.014185291519999999
4410.0 0.01331789504
4420.0 0.012759256960000001
4430.0 0.01254136256
4440.0 0.012643808000000001
4450.0 0.013009166079999999
4460.0 0.01358209728
4470.0 0.014333952640000001
4480.0 0.01526080448
4490.0 0.01637540864
4500.0 0.017701280000000003
4510.0 0.01926368576
4520.0 0.021080504320000002
4530.0 0.023153110400000003
4540.0 0.025451091199999998
4550.0 0.02789804352
4560.0 0.03037675904
4570.0 0.03275704
4580.0 0.03492741568
4590.0 0.036812076799999996
4600.0 0.038366588800000004
4610.0 0.0395533312
4620.0 0.04030462976
4630.0 0.040503526399999996
4640.0 0.04000658048
4650.0 0.03870840576
4660.0 0.036618046720000005
4670.0 0.03389840896
4680.0 0.0308350656
4690.0 0.027749826559999996
4700.0 0.02491180352
4710.0 0.022487011199999997
4720.0 0.020533015680000002
4730.0 0.0190279712
4740.0 0.01791812352
4750.0 0.01716172992
4760.0 0.0167499808
4770.0 0.01669753856
4780.0 0.01700775872
4790.0 0.0176333856
4800.0 0.01845774464
4810.0 0.019311820160000003
4820.0 0.020022741760000004
4830.0 0.020474428799999996
4840.0 0.02065641152
4850.0 0.020675616
4860.0 0.02071775424
4870.0 0.02097562048
4880.0 0.021585021439999998
4890.0 0.02259599808
4900.0 0.02397280704
4910.0 0.02560236544
4920.0 0.02730517568
4930.0 0.028856134400000004
4940.0 0.030018932480000007
4950.0 0.030589454719999996
4960.0 0.03044131904
4970.0 0.029564839040000002
4980.0 0.028082087040000002
4990.0 0.02621805248
5000.0 0.024237478399999998
5010.0 0.022375344
5020.0 0.020789040640000003
5030.0 0.019543578239999998
5040.0 0.01862690624
5050.0 0.017983287040000004
5060.0 0.0175466432
5070.0 0.01726001728
5080.0 0.01708050496
5090.0 0.01697705088
5100.0 0.01692702016
5110.0 0.01691441024
5120.0 0.01693134848
5130.0 0.01698191808
5140.0 0.01708423744
5150.0 0.01726721536
5160.0 0.01756260928
5170.0 0.017996528
5180.0 0.01858363136
5190.0 0.01932378688
5200.0 0.0202011552
5210.0 0.02118580288
5220.0 0.02223800384
5230.0 0.023316244479999998
5240.0 0.0243884896
5250.0 0.025441288960000003
5260.0 0.026477397120000003
5270.0 0.027499220480000003
5280.0 0.02848959232
5290.0 0.02940648896
5300.0 0.030196199040000003
5310.0 0.030813737600000005
5320.0 0.03123976384
5330.0 0.031494525440000004
5340.0 0.031642716800000005
5350.0 0.03177083584
5360.0 0.031947595520000004
5370.0 0.03220549952
5380.0 0.032550531199999996
5390.0 0.03297829952
5400.0 0.033486932479999995
5410.0 0.03408672512
5420.0 0.034800328320000004
5430.0 0.03565327872
5440.0 0.03666122304
5450.0 0.03782048256000001
5460.0 0.03910368384
5470.0 0.040459390080000004
5480.0 0.04181633984
5490.0 0.04309437824
5500.0 0.044220122880000004
5510.0 0.04513621056
5520.0 0.04579217472
5530.0 0.046130151040000004
5540.0 0.04609682368
5550.0 0.04567338496000001
5560.0 0.04488092288
5570.0 0.04375839552000001
5580.0 0.04234567616
5590.0 0.040683661440000005
5600.0 0.0388193248
5610.0 0.03680429952
5620.0 0.03469307776
5630.0 0.032544021119999995
5640.0 0.03042296
5650.0 0.0284054432
5660.0 0.026573776000000004
5670.0 0.02500884352
5680.0 0.023780764160000002
5690.0 0.0229428224
5700.0 0.0225295584
5710.0 0.0225558464
5720.0 0.023013964799999998
5730.0 0.0238701536
5740.0 0.02506530368
5750.0 0.02652159104
5760.0 0.028151420160000003
5770.0 0.029864158720000002
5780.0 0.0315703392
5790.0 0.033185936000000006
5800.0 0.034637386240000005
5810.0 0.03586484352
5820.0 0.03682175296
5830.0 0.03747292608
5840.0 0.037795496320000004
5850.0 0.03778414912
5860.0 0.03745845376
5870.0 0.03686451264
5880.0 0.03606615616
5890.0 0.03512765056
5900.0 0.03409553664
5910.0 0.03298924224
5920.0 0.03180587008
5930.0 0.03053615936
5940.0 0.029182379520000003
5950.0 0.02776922816
5960.0 0.02634371008
5970.0 0.024965226240000003
5980.0 0.0236907648
5990.0 0.02256206464
6000.0 0.02160040384
6010.0 0.020809727360000002
6020.0 0.02018351296
6030.0 0.019709880960000002
6040.0 0.019373273599999997
6050.0 0.019154782080000002
6060.0 0.01903337472
6070.0 0.018988217600000003
6080.0 0.019000467200000003
6090.0 0.01905381824
6100.0 0.01913464
6110.0 0.01923267264
6120.0 0.01934283584
6130.0 0.019467328
6140.0 0.01961593728
6150.0 0.01980251008
6160.0 0.02003722304
6170.0 0.02031687936
6180.0 0.02061748096
6190.0 0.02089344448
6200.0 0.0210856128
6210.0 0.02113635456
6220.0 0.0210064384
6230.0 0.020687194880000002
6240.0 0.02020381376
6250.0 0.01960971392
6260.0 0.018974983679999998
6270.0 0.01837324032
6280.0 0.017871571840000003
6290.0 0.0175266016
6300.0 0.017384444159999998
6310.0 0.01747622592
6320.0 0.017804764160000004
6330.0 0.01833519808
6340.0 0.01900946944
6350.0 0.01977730752
6360.0 0.020614542720000004
6370.0 0.021516734080000002
6380.0 0.022483281919999997
6390.0 0.02350806144
6400.0 0.024578183680000004
6410.0 0.02567570496
6420.0 0.026779017600000003
6430.0 0.0278636544
6440.0 0.0289033376
6450.0 0.029871521280000004
6460.0 0.030742870399999997
6470.0 0.03149405824
6480.0 0.032103823360000006
6490.0 0.032552828160000005
6500.0 0.032824255999999996
6510.0 0.03290563264
6520.0 0.032791209599999996
6530.0 0.03248339776
6540.0 0.0319920576
6550.0 0.0313317664
6560.0 0.030518794880000005
6570.0 0.029569710080000002
6580.0 0.028500968959999998
6590.0 0.02733071168
6600.0 0.02608048256
6610.0 0.02477502272
6620.0 0.023440114560000003
6630.0 0.022099884799999997
6640.0 0.020775059840000002
6650.0 0.01948275456
6660.0 0.018237384960000002
6670.0 0.01705196608
6680.0 0.01593916672
6690.0 0.014911646720000001
6700.0 0.01398139136
6710.0 0.01315808256
6720.0 0.012447112960000003
6730.0 0.011848126080000002
6740.0 0.011354786560000002
6750.0 0.010955907200000002
6760.0 0.010637493119999999
6770.0 0.01038502976
6780.0 0.01018547648
6790.0 0.010028734079999999
6800.0 0.00990845696
6810.0 0.00982203008
6820.0 0.00976946048
6830.0 0.009751328640000001
6840.0 0.0097665472
6850.0 0.009811141760000001
6860.0 0.0098786144
6870.0 0.00996156032
6880.0 0.010053417600000001
6890.0 0.010149145600000001
6900.0 0.010244635519999998
6910.0 0.0103356384
6920.0 0.0104173216
6930.0 0.010485015040000002
6940.0 0.010535738880000001
6950.0 0.010569464960000002
6960.0 0.01058920512
6970.0 0.01059986176
6980.0 0.010606616959999999
6990.0 0.010613861120000002
7000.0 0.01062516608
7010.0 0.0106440256
7020.0 0.01067461376
7030.0 0.010721979520000001
7040.0 0.01079150208
7050.0 0.01088779712
7060.0 0.0110135552
7070.0 0.011169039360000002
7080.0 0.01135273152
7090.0 0.01156271168
7100.0 0.011797724800000001
7110.0 0.012057309440000002
7120.0 0.01234111616
7130.0 0.012647761280000001
7140.0 0.01297337088
7150.0 0.013311121280000001
7160.0 0.013652300800000001
7170.0 0.01398794816
7180.0 0.014310176640000002
7190.0 0.014612671360000001
7200.0 0.01489078336
7210.0 0.015141644800000001
7220.0 0.01536412416
7230.0 0.015558300800000001
7240.0 0.01572461376
7250.0 0.0158632416
7260.0 0.01597424064
7270.0 0.01605850368
7280.0 0.01611904768
7290.0 0.01616192768
7300.0 0.01619625664
7310.0 0.01623323392
7320.0 0.01628442176
7330.0 0.01635970112
7340.0 0.0164653344
7350.0 0.01660257152
7360.0 0.016767158400000003
7370.0 0.016949919360000003
7380.0 0.017138252160000002
7390.0 0.017318021120000002
7400.0 0.01747523264
7410.0 0.01759713856
7420.0 0.01767293632
7430.0 0.01769345088
7440.0 0.017651232000000003
7450.0 0.017541413760000003
7460.0 0.017363331200000002
7470.0 0.017122458879999997
7480.0 0.01683180032
7490.0 0.016511841279999998
7500.0 0.0161887168
7510.0 0.01589049792
7520.0 0.0156418304
7530.0 0.01545845312
7540.0 0.0153446464
7550.0 0.015295504
7560.0 0.015302096000000001
7570.0 0.015355578239999999
7580.0 0.01544876544
7590.0 0.01557686592
7600.0 0.01573872448
7610.0 0.01593747904
7620.0 0.016178892800000004
7630.0 0.01646747648
7640.0 0.01680236928
7650.0 0.01717505024
7660.0 0.017569658880000002
7670.0 0.01796532096
7680.0 0.018339317759999998
7690.0 0.01867009408
7700.0 0.018939648
7710.0 0.01913518656
7720.0 0.019249841280000003
7730.0 0.01928259136
7740.0 0.0192379232
7750.0 0.01912438656
7760.0 0.0189526208
7770.0 0.018733324160000002
7780.0 0.018475519359999998
7790.0 0.01818532096
7800.0 0.01786539392
7810.0 0.01751531904
7820.0 0.01713295616
7830.0 0.01671647232
7840.0 0.016266296960000003
7850.0 0.01578617472
7860.0 0.01528290752
7870.0 0.014765047679999999
7880.0 0.014241282559999999
7890.0 0.01371927808
7900.0 0.013205328
7910.0 0.012704697599999999
7920.0 0.012222248960000001
7930.0 0.011762915839999999
7940.0 0.01133179328
7950.0 0.010933761279999999
7960.0 0.010572751360000002
7970.0 0.010250899199999998
7980.0 0.0099679072
7990.0 0.00972092992
8000.0 0.009505092480000001
8010.0 0.009314672000000001
8020.0 0.009144231039999999
8030.0 0.00898892096
8040.0 0.0088442496
8050.0 0.00870510848
8060.0 0.008564706560000001
8070.0 0.00841437056
8080.0 0.00824461696
8090.0 0.0080467968
8100.0 0.007814183680000001
8110.0 0.00754208832
8120.0 0.007227616
8130.0 0.006869909120000001
8140.0 0.00647111424
8150.0 0.00603756032
8160.0 0.005580386176
8170.0 0.005115095936000001
8180.0 0.004659986368
8190.0 0.004233846272
8200.0 0.0038535589120000002
8210.0 0.0035322050560000003
8220.0 0.003277999168
8230.0 0.0030940824960000004
8240.0 0.002978985152
8250.0 0.002927503488
8260.0 0.0029317646720000002
8270.0 0.0029823185280000004
8280.0 0.003069173632
8290.0 0.003182764992
8300.0 0.003314867136
8310.0 0.003459434624
8320.0 0.003613272192
8330.0 0.00377639296
8340.0 0.0039519438080000005
8350.0 0.004145662144
8360.0 0.00436493056
8370.0 0.00461757664
8380.0 0.004910623104
8390.0 0.00524920992
8400.0 0.005635782656000001
8410.0 0.006069660288
8420.0 0.006547255040000001
8430.0 0.007062400640000001
8440.0 0.00760670784
8450.0 0.008169889920000001
8460.0 0.00874010304
8470.0 0.00930443712
8480.0 0.00984967296
8490.0 0.010363361920000001
8500.0 0.010835160320000002
8510.0 0.01125818368
8520.0 0.011630016640000001
8530.0 0.01195298304
8540.0 0.01223348928
8550.0 0.012480633599999999
8560.0 0.012704517120000001
8570.0 0.012907900160000001
8580.0 0.0130955616
8590.0 0.01328144128
8600.0 0.013468571520000002
8610.0 0.0136578176
8620.0 0.0138484864
8630.0 0.014038963840000002
8640.0 0.0142271872
8650.0 0.01441085824
8660.0 0.01458745856
8670.0 0.014754192
8680.0 0.014907978879999999
8690.0 0.015045621120000002
8700.0 0.01516416064
8710.0 0.01526146496
8720.0 0.015336511360000001
8730.0 0.01538935488
8740.0 0.015420771839999998
8750.0 0.015431591679999999
8760.0 0.01542195456
8770.0 0.015390846080000001
8780.0 0.015336097919999998
8790.0 0.01525491008
8800.0 0.015144682240000002
8810.0 0.01500386112
8820.0 0.01483250496
8830.0 0.014632378880000001
8840.0 0.014406619520000002
8850.0 0.01415912448
8860.0 0.01389388992
8870.0 0.013614514559999999
8880.0 0.01332397568
8890.0 0.0130247136
8900.0 0.012718968320000001
8910.0 0.012409228800000002
8920.0 0.012105497599999999
8930.0 0.011806608000000001
8940.0 0.01151533568
8950.0 0.01123672384
8960.0 0.01097591296
8970.0 0.01073765952
8980.0 0.010525708160000001
8990.0 0.01034208064
9000.0 0.010186629760000001
9010.0 0.010057242240000002
9020.0 0.0099507424
9030.0 0.0098640544
9040.0 0.009794955519999999
9050.0 0.00974214016
9060.0 0.00970479488
9070.0 0.009682149760000001
9080.0 0.009673277440000001
9090.0 0.00967713408
9100.0 0.009692688
9110.0 0.00971904128
9120.0 0.009755516799999999
9130.0 0.009801702399999999
9140.0 0.0098574176
9150.0 0.009922563200000001
9160.0 0.0099968608
9170.0 0.01007958208
9180.0 0.01016939008
9190.0 0.010264353280000001
9200.0 0.01036210112
9210.0 0.01046000064
9220.0 0.010555252480000001
9230.0 0.010644884480000002
9240.0 0.010725762560000001
9250.0 0.010794785279999998
9260.0 0.01084938688
9270.0 0.0108882752
9280.0 0.01091209216
9290.0 0.01092358208
9300.0 0.010927002880000002
9310.0 0.01092694656
9320.0 0.01092710592
9330.0 0.0109295648
9340.0 0.010934818560000002
