#lamb flux
1000.0 8.049325200000001e-06
1010.0 9.7527521e-06
1020.0 1.18549641e-05
1030.0 1.4436569000000002e-05
1040.0 1.75976934e-05
1050.0 2.14526949e-05
1060.0 2.6129178600000003e-05
1070.0 3.1765713e-05
1080.0 3.850806050000001e-05
1090.0 4.650394490000001e-05
1100.0 5.58965589e-05
1110.0 6.681726800000001e-05
1120.0 7.937808900000001e-05
1130.0 9.366461300000002e-05
1140.0 0.00010972989300000002
1150.0 0.00012758972800000002
1160.0 0.000147219527
1170.0 0.000168552678
1180.0 0.00019148047100000002
1190.0 0.00021585333700000002
1200.0 0.000241483438
1210.0 0.000268148433
1220.0 0.00029559648300000004
1230.0 0.000323552376
1240.0 0.00035172455500000004
1250.0 0.000379812874
1260.0 0.000407516753
1270.0 0.00043454334000000007
1280.0 0.00046061537900000005
1290.0 0.00048547830800000003
1300.0 0.000508906496
1310.0 0.0005307082480000001
1320.0 0.000550729487
1330.0 0.000568856197
1340.0 0.000585015501
1350.0 0.00059917557
1360.0 0.0006113444189999999
1370.0 0.0006215677300000001
1380.0 0.000629926094
1390.0 0.0006365312940000001
1400.0 0.0006415224060000001
1410.0 0.000645061235
1420.0 0.0006473277720000001
1430.0 0.000648515287
1440.0 0.0006488255130000001
1450.0 0.0006484638650000001
1460.0 0.0006476347640000001
1470.0 0.0006465375070000001
1480.0 0.0006453622280000001
1490.0 0.0006442867060000001
1500.0 0.0006434735440000001
1510.0 0.0006430683350000001
1520.0 0.0006431981920000001
1530.0 0.0006439714960000001
1540.0 0.0006454779800000001
1550.0 0.0006477897790000001
1560.0 0.000650962872
1570.0 0.0006550391120000001
1580.0 0.000660048417
1590.0 0.0006660112340000001
1600.0 0.000672940765
1610.0 0.0006808452000000001
1620.0 0.0006897293550000001
1630.0 0.0006995962050000001
1640.0 0.0007104474300000001
1650.0 0.0007222840100000001
1660.0 0.00073510598
1670.0 0.00074891138
1680.0 0.0007636953800000001
1690.0 0.0007794481800000001
1700.0 0.0007961524200000001
1710.0 0.0008137796100000001
1720.0 0.0008322863500000001
1730.0 0.0008516088000000001
1740.0 0.00087165771
1750.0 0.0008923132400000001
1760.0 0.0009134207600000001
1770.0 0.00093479008
1780.0 0.0009561979700000001
1790.0 0.0009773972600000001
1800.0 0.0009981323100000002
1810.0 0.0010181612700000003
1820.0 0.0010372852
1830.0 0.00105537915
1840.0 0.00107242324
1850.0 0.0010885267400000003
1860.0 0.00110394165
1870.0 0.0011190599
1880.0 0.0011343929800000001
1890.0 0.0011505346300000002
1900.0 0.0011681112100000001
1910.0 0.00118772542
1920.0 0.00120990394
1930.0 0.00123505473
1940.0 0.00126344302
1950.0 0.0012951868300000002
1960.0 0.0013302710400000003
1970.0 0.0013685765800000003
1980.0 0.00140991417
1990.0 0.00145405701
2000.0 0.0015007626200000002
2010.0 0.0015497804700000002
2020.0 0.0016008449100000002
2030.0 0.00165365368
2040.0 0.00170783872
2050.0 0.00176293439
2060.0 0.0018183481400000003
2070.0 0.0018733396500000001
2080.0 0.0019270118000000002
2090.0 0.0019783167600000004
2100.0 0.00202608021
2110.0 0.0020690467000000004
2120.0 0.0021059476900000002
2130.0 0.0021355911500000003
2140.0 0.0021569674000000002
2150.0 0.00216936153
2160.0 0.0021724559500000003
2170.0 0.0021664067600000005
2180.0 0.00215187609
2190.0 0.00213000984
2200.0 0.00210235809
2210.0 0.00207074616
2220.0 0.0020371144500000004
2230.0 0.0020033517000000002
2240.0 0.0019711458200000003
2250.0 0.0019418749000000002
2260.0 0.0019165501600000002
2270.0 0.00189581315
2280.0 0.00187997873
2290.0 0.00186910808
2300.0 0.0018630917200000003
2310.0 0.0018617249000000002
2320.0 0.0018647598900000003
2330.0 0.00187193034
2340.0 0.0018829472200000003
2350.0 0.00189747586
2360.0 0.00191510592
2370.0 0.0019353280100000002
2380.0 0.0019575287900000004
2390.0 0.0019810093800000004
2400.0 0.00200502715
2410.0 0.00202885263
2420.0 0.0020518288700000003
2430.0 0.0020734182700000003
2440.0 0.0020932261700000003
2450.0 0.0021109936400000003
2460.0 0.00212656248
2470.0 0.00213982076
2480.0 0.0021506454900000003
2490.0 0.00215886013
2500.0 0.0021642205900000004
2510.0 0.00216643868
2520.0 0.00216523951
2530.0 0.00216044241
2540.0 0.00215204388
2550.0 0.00214028234
2560.0 0.00212566718
2570.0 0.0021089616800000002
2580.0 0.00209112288
2590.0 0.0020732100900000003
2600.0 0.00205628122
2610.0 0.0020412950600000005
2620.0 0.0020290357500000003
2630.0 0.00202006777
2640.0 0.0020147229200000003
2650.0 0.0020135612
2660.0 0.00203995897
2670.0 0.0023109613100000003
2680.0 0.0029921661
2690.0 0.0036772808100000005
2700.0 0.00434675822
2710.0 0.00480558554
2720.0 0.005048192450000001
2730.0 0.00541611238
2740.0 0.00578856271
2750.0 0.0059528368200000015
2760.0 0.0059815987
2770.0 0.005964779520000001
2780.0 0.00595425222
2790.0 0.00600828627
2800.0 0.006158658590000001
2810.0 0.006332498130000001
2820.0 0.006496730870000001
2830.0 0.006545991550000001
2840.0 0.006331048080000001
2850.0 0.006301351840000001
2860.0 0.0070194551
2870.0 0.008225441
2880.0 0.008897701400000001
2890.0 0.008756390300000002
2900.0 0.009028102999999999
2910.0 0.009671970000000002
2920.0 0.0100763558
2930.0 0.0102303271
2940.0 0.0103212921
2950.0 0.010238664800000002
2960.0 0.0098625345
2970.0 0.0093552732
2980.0 0.008969042600000001
2990.0 0.0085343167
3000.0 0.0077934906
3010.0 0.0071809549000000006
3020.0 0.007100479400000001
3030.0 0.007316363600000001
3040.0 0.007248692500000001
3050.0 0.00696912601
3060.0 0.007267426600000001
3070.0 0.008065710100000002
3080.0 0.0085452647
3090.0 0.0085622593
3100.0 0.008389433500000001
3110.0 0.0082539751
3120.0 0.0083566455
3130.0 0.0089393101
3140.0 0.009848036800000001
3150.0 0.0104746628
3160.0 0.0105751478
3170.0 0.010438141000000001
3180.0 0.0105241332
3190.0 0.0112274099
3200.0 0.012396467300000002
3210.0 0.0133147574
3220.0 0.013268144400000001
3230.0 0.012299939400000001
3240.0 0.011243113
3250.0 0.010684928800000002
3260.0 0.010562597500000001
3270.0 0.010906806400000002
3280.0 0.011437422500000002
3290.0 0.0115135783
3300.0 0.0114185267
3310.0 0.0115669393
3320.0 0.0117183948
3330.0 0.0117130916
3340.0 0.011461328900000001
3350.0 0.011014537800000002
3360.0 0.010818479700000001
3370.0 0.0110405554
3380.0 0.011602082100000003
3390.0 0.012335018500000001
3400.0 0.013042096200000002
3410.0 0.013585661600000002
3420.0 0.013902720300000001
3430.0 0.0140223706
3440.0 0.014054447400000003
3450.0 0.014094502100000003
3460.0 0.014221501000000001
3470.0 0.014542008600000001
3480.0 0.0151007724
3490.0 0.015873186
3500.0 0.016803948
3510.0 0.017803563400000003
3520.0 0.0187645682
3530.0 0.019566419600000003
3540.0 0.020210045800000003
3550.0 0.020836162200000004
3560.0 0.021479042200000003
3570.0 0.0220683113
3580.0 0.022525591200000004
3590.0 0.0227780931
3600.0 0.022772726200000003
3610.0 0.022537627
3620.0 0.022451455600000003
3630.0 0.0230480411
3640.0 0.024330929
3650.0 0.025927375600000004
3660.0 0.0275025877
3670.0 0.028812667800000004
3680.0 0.029649636800000004
3690.0 0.029840783000000003
3700.0 0.029315798400000002
3710.0 0.028158481400000004
3720.0 0.026583790800000003
3730.0 0.0248082233
3740.0 0.0229359914
3750.0 0.021014782600000004
3760.0 0.019166599200000002
3770.0 0.017605699300000003
3780.0 0.016543851800000002
3790.0 0.0161110649
3800.0 0.0163524928
3810.0 0.0173439021
3820.0 0.0192053155
3830.0 0.021908726700000002
3840.0 0.025275748400000003
3850.0 0.0290776465
3860.0 0.03304724500000001
3870.0 0.03690981420000001
3880.0 0.0404635812
3890.0 0.0436260412
3900.0 0.046405753800000005
3910.0 0.0488522496
3920.0 0.051023333200000014
3930.0 0.052953292000000006
3940.0 0.0545960002
3950.0 0.055781323500000014
3960.0 0.05626742310000001
3970.0 0.055878342100000006
3980.0 0.05461112370000001
3990.0 0.052647015400000004
4000.0 0.050299497500000005
4010.0 0.047928121500000004
4020.0 0.04583257000000001
4030.0 0.044171500100000004
4040.0 0.0429449769
4050.0 0.042036535800000004
4060.0 0.04128321470000001
4070.0 0.04054865640000001
4080.0 0.03978365230000001
4090.0 0.0390379605
4100.0 0.0383997061
4110.0 0.037928478700000004
4120.0 0.037641104200000004
4130.0 0.03754823520000001
4140.0 0.0376893167
4150.0 0.0381084921
4160.0 0.0387850239
4170.0 0.0396000507
4180.0 0.0403889731
4190.0 0.0410340343
4200.0 0.041508714800000006
4210.0 0.041847550500000004
4220.0 0.0421018437
4230.0 0.042332087000000004
4240.0 0.042613166400000006
4250.0 0.04301916010000001
4260.0 0.043587529300000004
4270.0 0.0442998157
4280.0 0.045084417
4290.0 0.04581987550000001
4300.0 0.046326947800000004
4310.0 0.0463794394
4320.0 0.0457723903
4330.0 0.0444258052
4340.0 0.0424416965
4350.0 0.04005987440000001
4360.0 0.0375516715
4370.0 0.0351367513
4380.0 0.032965821000000006
4390.0 0.0311464356
4400.0 0.029764625100000004
4410.0 0.028879726400000003
4420.0 0.028511637
4430.0 0.028642044200000005
4440.0 0.0292288269
4450.0 0.030232647200000004
4460.0 0.0316405026
4470.0 0.0334696866
4480.0 0.035760447800000005
4490.0 0.038577679700000006
4500.0 0.042012782
4510.0 0.04615292920000001
4520.0 0.0510212234
4530.0 0.05653588570000001
4540.0 0.06250647760000001
4550.0 0.06864242840000001
4560.0 0.074579386
4570.0 0.07994732900000001
4580.0 0.084446096
4590.0 0.087868235
4600.0 0.09007335400000001
4610.0 0.090958714
4620.0 0.09043354600000002
4630.0 0.088410931
4640.0 0.084839944
4650.0 0.07983623200000001
4660.0 0.073832836
4670.0 0.06747703830000001
4680.0 0.061320243600000005
4690.0 0.05569815300000001
4700.0 0.05080649280000001
4710.0 0.046754687
4720.0 0.043587669300000007
4730.0 0.0413177632
4740.0 0.0399553007
4750.0 0.0395107566
4760.0 0.0399539868
4770.0 0.041157706100000004
4780.0 0.042875490700000005
4790.0 0.04477943610000001
4800.0 0.04654337030000001
4810.0 0.04793881330000001
4820.0 0.0489185536
4830.0 0.04964695890000001
4840.0 0.0504256116
4850.0 0.0515452707
4860.0 0.05321607830000001
4870.0 0.05559654800000001
4880.0 0.0587641733
4890.0 0.0626209178
4900.0 0.0668467387
4910.0 0.070929719
4920.0 0.074255783
4930.0 0.076246044
4940.0 0.076509468
4950.0 0.07495548900000001
4960.0 0.071821813
4970.0 0.06761296010000001
4980.0 0.0629802334
4990.0 0.05856764340000001
5000.0 0.0548159941
5010.0 0.0518031934
5020.0 0.0493507112
5030.0 0.047305351100000004
5040.0 0.045618115900000006
5050.0 0.0442411599
5060.0 0.043093777300000004
5070.0 0.0421073142
5080.0 0.0412557327
5090.0 0.04055254490000001
5100.0 0.04003493480000001
5110.0 0.0397500859
5120.0 0.03974510750000001
5130.0 0.0400572795
5140.0 0.040708003000000006
5150.0 0.041706407400000006
5160.0 0.0430578302
5170.0 0.0447644743
5180.0 0.04681476100000001
5190.0 0.0491710261
5200.0 0.051771113800000004
5210.0 0.0545396439
5220.0 0.05739894160000001
5230.0 0.060277012600000006
5240.0 0.0631130465
5250.0 0.06585672100000001
5260.0 0.06845649720000001
5270.0 0.07084305200000002
5280.0 0.07292396300000002
5290.0 0.074600043
5300.0 0.075798611
5310.0 0.076509664
5320.0 0.07680993600000001
5330.0 0.07686252
5340.0 0.07688754500000002
5350.0 0.07711487
5360.0 0.077740285
5370.0 0.078901732
5380.0 0.080676302
5390.0 0.083087137
5400.0 0.08611064700000001
5410.0 0.08967385700000001
5420.0 0.09365035400000002
5430.0 0.09786578900000002
5440.0 0.102113676
5450.0 0.10617923400000001
5460.0 0.109868374
5470.0 0.11303546800000001
5480.0 0.11559837099999999
5490.0 0.11753144900000002
5500.0 0.118838573
5510.0 0.11952479700000002
5520.0 0.11958961000000001
5530.0 0.11904113200000001
5540.0 0.11790849700000003
5550.0 0.11624109000000002
5560.0 0.11409986000000001
5570.0 0.11154471300000002
5580.0 0.10862250700000001
5590.0 0.10536416800000001
5600.0 0.10179274700000002
5610.0 0.09794348900000002
5620.0 0.093878694
5630.0 0.08969018100000001
5640.0 0.08549317700000002
5650.0 0.08141702800000002
5660.0 0.07759629500000001
5670.0 0.074162739
5680.0 0.07123837
5690.0 0.0689303398
5700.0 0.067326511
5710.0 0.0664880671
5720.0 0.066437196
5730.0 0.0671448155
5740.0 0.0685271048
5750.0 0.07045493000000001
5760.0 0.07277199300000001
5770.0 0.075313266
5780.0 0.07791758800000001
5790.0 0.08043313600000002
5800.0 0.08272039300000002
5810.0 0.08465865100000002
5820.0 0.08615745600000001
5830.0 0.087166352
5840.0 0.087675315
5850.0 0.08770014400000001
5860.0 0.08726102000000001
5870.0 0.086373
5880.0 0.08504972700000002
5890.0 0.08330980700000001
5900.0 0.08117677400000001
5910.0 0.07867715100000001
5920.0 0.07584838099999999
5930.0 0.072757776
5940.0 0.069517497
5950.0 0.0662789267
5960.0 0.0632046366
5970.0 0.06043253230000001
5980.0 0.05804963640000001
5990.0 0.05608422680000001
6000.0 0.054514527900000005
6010.0 0.053287066699999996
6020.0 0.052336682300000006
6030.0 0.05160092350000001
6040.0 0.05102470100000001
6050.0 0.0505568224
6060.0 0.050145168500000004
6070.0 0.04973671360000001
6080.0 0.0492861215
6090.0 0.04876828110000001
6100.0 0.04818708230000001
6110.0 0.0475779087
6120.0 0.04700375120000001
6130.0 0.0465452785
6140.0 0.046284407400000005
6150.0 0.04628261050000001
6160.0 0.046559716
6170.0 0.047082038500000006
6180.0 0.0477662633
6190.0 0.0484992221
6200.0 0.049167512100000005
6210.0 0.04968708150000001
6220.0 0.050022250600000005
6230.0 0.05018839420000001
6240.0 0.05024208910000001
6250.0 0.050268159900000005
6260.0 0.0503679932
6270.0 0.050646447600000005
6280.0 0.0511963011
6290.0 0.052084132100000013
6300.0 0.05334206430000001
6310.0 0.05496754620000001
6320.0 0.05693119600000001
6330.0 0.05919007850000001
6340.0 0.0617011136
6350.0 0.0644280364
6360.0 0.06733998669999999
6370.0 0.07040362700000001
6380.0 0.07357413700000001
6390.0 0.07679068600000001
6400.0 0.07997902500000001
6410.0 0.08305965500000001
6420.0 0.08595758500000002
6430.0 0.08861020000000001
6440.0 0.090971692
6450.0 0.09301429200000001
6460.0 0.094726562
6470.0 0.09610888700000002
6480.0 0.09716718900000001
6490.0 0.097907089
6500.0 0.09833070800000002
6510.0 0.09843693300000002
6520.0 0.09822427300000001
6530.0 0.09769360300000002
6540.0 0.096848759
6550.0 0.095694151
6560.0 0.094231375
6570.0 0.092457939
6580.0 0.09036925100000001
6590.0 0.087964177
6600.0 0.085253091
6610.0 0.08226488900000001
6620.0 0.07905069900000002
6630.0 0.075682824
6640.0 0.072249261
6650.0 0.06884508330000001
6660.0 0.06556244450000001
6670.0 0.06248113270000001
6680.0 0.0596614977
6690.0 0.0571407767
6700.0 0.05493293890000001
6710.0 0.05303125310000001
6720.0 0.051412484900000006
6730.0 0.0500418555
6740.0 0.048878238500000004
6750.0 0.0478791901
6760.0 0.04700561950000001
6770.0 0.04622608970000001
6780.0 0.045520263600000006
6790.0 0.044879856700000005
6800.0 0.04430578040000001
6810.0 0.0438028675
6820.0 0.04337523680000001
6830.0 0.043023267000000004
6840.0 0.0427411726
6850.0 0.0425156641
6860.0 0.0423277435
6870.0 0.0421570401
6880.0 0.04198620300000001
6890.0 0.041803209
6900.0 0.041601315
6910.0 0.0413774354
6920.0 0.041129744600000004
6930.0 0.040855322900000005
6940.0 0.040548853800000006
6950.0 0.04020324630000001
6960.0 0.039812143
6970.0 0.0393731135
6980.0 0.038889926600000006
6990.0 0.038372980800000005
7000.0 0.03783810940000001
7010.0 0.0373046184
7020.0 0.036793283100000004
7030.0 0.0363246009
7040.0 0.0359173955
7050.0 0.035587896400000006
7060.0 0.0353493966
7070.0 0.03521238350000001
7080.0 0.0351850233
7090.0 0.0352738015
7100.0 0.035483828800000006
7110.0 0.0358179759
7120.0 0.036274319900000004
7130.0 0.0368426625
7140.0 0.037501799300000006
7150.0 0.038219374900000005
7160.0 0.03895537450000001
7170.0 0.0396679969
7180.0 0.040319639500000004
7190.0 0.0408811991
7200.0 0.0413343217
7210.0 0.04167239230000001
7220.0 0.0419009591
7230.0 0.042037335200000005
7240.0 0.042108666600000004
7250.0 0.042148432900000005
7260.0 0.04219245660000001
7270.0 0.04227563620000001
7280.0 0.04242967610000001
7290.0 0.04268103140000001
7300.0 0.043048401900000005
7310.0 0.0435402499
7320.0 0.044153669000000006
7330.0 0.0448753781
7340.0 0.04568412870000001
7350.0 0.04655290780000001
7360.0 0.0474497289
7370.0 0.04833705380000001
7380.0 0.049170989000000005
7390.0 0.049901729500000006
7400.0 0.050476284600000004
7410.0 0.050843837100000004
7420.0 0.05096280350000001
7430.0 0.050809439100000006
7440.0 0.050385041000000005
7450.0 0.0497185521
7460.0 0.0488637716
7470.0 0.04789203300000001
7480.0 0.0468825651
7490.0 0.04591253940000001
7500.0 0.045048011400000004
7510.0 0.044337339200000006
7520.0 0.04380997810000001
7530.0 0.0434827841
7540.0 0.043371062
7550.0 0.0434959693
7560.0 0.0438803407
7570.0 0.04453386560000001
7580.0 0.04543839160000001
7590.0 0.04654486480000001
7600.0 0.0477838914
7610.0 0.04908215340000001
7620.0 0.050375449600000004
7630.0 0.05161441600000001
7640.0 0.052764306700000006
7650.0 0.053801958000000004
7660.0 0.05471222890000001
7670.0 0.05548492530000001
7680.0 0.056112588700000014
7690.0 0.056589452500000005
7700.0 0.05691164850000001
7710.0 0.057078261100000006
7720.0 0.057092329000000004
7730.0 0.05696085290000001
7740.0 0.056693457100000004
7750.0 0.05630053590000001
7760.0 0.055791785
7770.0 0.055175684200000005
7780.0 0.05445980470000001
7790.0 0.0536514447
7800.0 0.05275820760000001
7810.0 0.051788420599999996
7820.0 0.050751465800000006
7830.0 0.0496579132
7840.0 0.0485192715
7850.0 0.047347266400000004
7860.0 0.046152868300000004
7870.0 0.044945544000000004
7880.0 0.04373318040000001
7890.0 0.0425228062
7900.0 0.041321827400000004
7910.0 0.040139163400000004
7920.0 0.038985566900000004
7930.0 0.0378725844
7940.0 0.0368102147
7950.0 0.0358043196
7960.0 0.03485565510000001
7970.0 0.0339617544
7980.0 0.0331205
7990.0 0.0323320186
8000.0 0.031596653200000005
8010.0 0.030911145300000005
8020.0 0.030265850300000004
8030.0 0.029644717900000006
8040.0 0.0290279269
8050.0 0.028393902600000007
8060.0 0.027719697600000003
8070.0 0.026980835000000005
8080.0 0.026152236600000003
8090.0 0.025211064200000004
8100.0 0.0241411345
8110.0 0.022937615400000003
8120.0 0.021610420300000002
8130.0 0.0201850985
8140.0 0.0187008843
8150.0 0.0172064669
8160.0 0.0157545591
8170.0 0.014396377800000004
8180.0 0.0131767965
8190.0 0.0121305898
8200.0 0.0112800282
8210.0 0.0106340066
8220.0 0.010188816400000002
8230.0 0.009930396700000002
8240.0 0.009837616600000001
8250.0 0.0098859068
8260.0 0.010050565000000003
8270.0 0.0103092241
8280.0 0.010643272500000002
8290.0 0.0110383728
8300.0 0.011484475800000001
8310.0 0.011975816300000003
8320.0 0.0125112904
8330.0 0.013095251400000002
8340.0 0.013738402300000003
8350.0 0.0144581241
8360.0 0.0152774881
8370.0 0.0162224839
8380.0 0.017317582800000005
8390.0 0.0185805697
8400.0 0.020017979800000002
8410.0 0.0216221278
8420.0 0.0233726822
8430.0 0.025241210400000002
8440.0 0.0271968697
8450.0 0.029211238
8460.0 0.031260276600000005
8470.0 0.033322795100000004
8480.0 0.0353766196
8490.0 0.0373950024
8500.0 0.0393457897
8510.0 0.04119444840000001
8520.0 0.0429099986
8530.0 0.04447135000000001
8540.0 0.045871388500000006
8550.0 0.047117304500000005
8560.0 0.048227416300000006
8570.0 0.0492263037
8580.0 0.05014049670000001
8590.0 0.050996139600000004
8600.0 0.051818233600000006
8610.0 0.052629747100000006
8620.0 0.053449314100000006
8630.0 0.05428801140000001
8640.0 0.05514708360000001
8650.0 0.0560181006
8660.0 0.056885485300000004
8670.0 0.0577302208
8680.0 0.058533359500000014
8690.0 0.0592784276
8700.0 0.0599524233
8710.0 0.06054692280000001
8720.0 0.0610561777
8730.0 0.0614743164
8740.0 0.061794648300000005
8750.0 0.06201015310000001
8760.0 0.062114684100000005
8770.0 0.062104036400000014
8780.0 0.06197625910000001
8790.0 0.061731187000000014
8800.0 0.06136975810000001
8810.0 0.06089374480000001
8820.0 0.06030607310000001
8830.0 0.0596114337
8840.0 0.058816641800000014
8850.0 0.0579305097
8860.0 0.056963367300000005
8870.0 0.055926599400000006
8880.0 0.054832437100000006
8890.0 0.0536939389
8900.0 0.05252492770000001
8910.0 0.0513396751
8920.0 0.0502372892
8930.0 0.049171321500000004
8940.0 0.048127676099999996
8950.0 0.047115107200000006
8960.0 0.0461399918
8970.0 0.045206942900000005
8980.0 0.044320472699999995
8990.0 0.043487129
9000.0 0.04271658510000001
9010.0 0.0420201579
9020.0 0.0414068214
9030.0 0.0408788947
9040.0 0.0404301919
9050.0 0.04004774760000001
9060.0 0.039715817400000006
9070.0 0.0394196803
9080.0 0.03914751190000001
9090.0 0.0388901499
