#lamb flux
1000.0 5.226632576e-05
1010.0 6.338702016e-05
1020.0 7.7143968e-05
1030.0 9.40851136e-05
1040.0 0.0001148958976
1050.0 0.00014036839040000002
1060.0 0.0001713993728
1070.0 0.000208980608
1080.0 0.0002541801856
1090.0 0.0003081145344
1100.0 0.0003719122816
1110.0 0.00044667224959999997
1120.0 0.0005334190528
1130.0 0.0006330598976
1140.0 0.000746345856
1150.0 0.000873839872
1160.0 0.001015892352
1170.0 0.0011726240640000001
1180.0 0.0013439160960000002
1190.0 0.0015294056320000003
1200.0 0.001728487744
1210.0 0.0019403223679999998
1220.0 0.002163847616
1230.0 0.002397799104
1240.0 0.0026407350400000002
1250.0 0.002891066944
1260.0 0.0031470949120000003
1270.0 0.0034070456960000003
1280.0 0.003669113088
1290.0 0.003931497344
1300.0 0.004192444096
1310.0 0.004450280191999999
1320.0 0.004703446016
1330.0 0.004950523264
1340.0 0.00519025888
1350.0 0.005421582912
1360.0 0.005643622144
1370.0 0.005855707968
1380.0 0.00605737952
1390.0 0.006248379264000001
1400.0 0.00642864512
1410.0 0.00659829376
1420.0 0.0067575961600000005
1430.0 0.006906943999999999
1440.0 0.00704680832
1450.0 0.0071776864
1460.0 0.00730003776
1470.0 0.007414213760000001
1480.0 0.00752038464
1490.0 0.007618462720000001
1500.0 0.007708042879999999
1510.0 0.00778835648
1520.0 0.00785827008
1530.0 0.007916312960000001
1540.0 0.007960773760000001
1550.0 0.00798983424
1560.0 0.008001767040000001
1570.0 0.007995152
1580.0 0.00796911552
1590.0 0.007923539200000001
1600.0 0.00785923648
1610.0 0.007778044160000001
1620.0 0.007682839680000001
1630.0 0.00757745728
1640.0 0.00746653248
1650.0 0.007355274240000001
1660.0 0.0072492064
1670.0 0.0071538944
1680.0 0.00707469056
1690.0 0.007016510080000001
1700.0 0.006983657599999999
1710.0 0.0069797068799999995
1720.0 0.00700743296
1730.0 0.00706879232
1740.0 0.00716494336
1750.0 0.0072962848
1760.0 0.00746250368
1770.0 0.00766260544
1780.0 0.00789491328
1790.0 0.00815703616
1800.0 0.00844580864
1810.0 0.008757217920000001
1820.0 0.009086368
1830.0 0.00942751808
1840.0 0.009774228480000001
1850.0 0.010119651839999999
1860.0 0.01045695552
1870.0 0.010779843840000001
1880.0 0.01108310656
1890.0 0.01136309888
1900.0 0.011618059520000001
1910.0 0.01184817856
1920.0 0.0120553792
1930.0 0.01224282688
1940.0 0.012414228480000001
1950.0 0.01257305216
1960.0 0.012721797120000001
1970.0 0.01286145088
1980.0 0.012991240320000002
1990.0 0.01310870976
2000.0 0.013210108160000001
2010.0 0.013291004799999999
2020.0 0.01334701248
2030.0 0.013374494080000002
2040.0 0.013371144320000002
2050.0 0.01333637696
2060.0 0.013271498880000001
2070.0 0.01317968448
2080.0 0.013065811839999998
2090.0 0.01293620864
2100.0 0.012798375680000001
2110.0 0.01266070784
2120.0 0.012532232320000001
2130.0 0.01242234624
2140.0 0.01234053056
2150.0 0.0122960064
2160.0 0.01229732096
2170.0 0.012351856000000001
2180.0 0.01246528704
2190.0 0.0126410464
2200.0 0.0128798656
2210.0 0.01317948608
2220.0 0.01353461184
2230.0 0.01393715776
2240.0 0.01437679296
2250.0 0.014841730560000002
2260.0 0.0153196512
2270.0 0.015798624
2280.0 0.01626787072
2290.0 0.01671826688
2300.0 0.01714250816
2310.0 0.01753498432
2320.0 0.01789144256
2330.0 0.01820860288
2340.0 0.018483898239999998
2350.0 0.01871546496
2360.0 0.01890245888
2370.0 0.01904565696
2380.0 0.019148202240000002
2390.0 0.019216291200000003
2400.0 0.01925954816
2410.0 0.01929087872
2420.0 0.019325680640000002
2430.0 0.019380412800000003
2440.0 0.01947067968
2450.0 0.019609116800000003
2460.0 0.01980342976
2470.0 0.02005497472
2480.0 0.02035817152
2490.0 0.020700944
2500.0 0.0210661632
2510.0 0.02143390528
2520.0 0.02178417856
2530.0 0.022099640960000003
2540.0 0.02236786688
2550.0 0.02258277568
2560.0 0.0227450208
2570.0 0.02286134272
2580.0 0.02294309824
2590.0 0.02300430784
2600.0 0.023059619200000003
2610.0 0.023122533759999998
2620.0 0.02320412288
2630.0 0.02331232
2640.0 0.023451781760000002
2650.0 0.0236308992
2660.0 0.02420119808
2670.0 0.02835891776
2680.0 0.03766463616
2690.0 0.04318065984
2700.0 0.04519542336
2710.0 0.04783290816
2720.0 0.049695649280000004
2730.0 0.05160285824
2740.0 0.05545543552
2750.0 0.05864659264
2760.0 0.05925521344
2770.0 0.05942251072
2780.0 0.06144955648
2790.0 0.06431189120000001
2800.0 0.0657876928
2810.0 0.0681633472
2820.0 0.0731406848
2830.0 0.07770184320000001
2840.0 0.0810463936
2850.0 0.08527672319999999
2860.0 0.08986528
2870.0 0.0957258624
2880.0 0.1062823232
2890.0 0.11898314240000002
2900.0 0.12914720640000002
2910.0 0.1379637632
2920.0 0.1465286656
2930.0 0.15256797440000003
2940.0 0.1543367296
2950.0 0.152989536
2960.0 0.1488199936
2970.0 0.14078688
2980.0 0.1311268096
2990.0 0.12354047359999999
3000.0 0.11961865600000002
3010.0 0.11854462080000001
3020.0 0.1178748608
3030.0 0.11692933760000002
3040.0 0.114609792
3050.0 0.11148702720000002
3060.0 0.1093745088
3070.0 0.1090962368
3080.0 0.11076934399999999
3090.0 0.11389175039999999
3100.0 0.11765128320000001
3110.0 0.1226508096
3120.0 0.1302729792
3130.0 0.14216495359999998
3140.0 0.1575459904
3150.0 0.17201588480000002
3160.0 0.1809194304
3170.0 0.18399321600000001
3180.0 0.18348082559999998
3190.0 0.17942186240000002
3200.0 0.1711448384
3210.0 0.1594858432
3220.0 0.14711809280000002
3230.0 0.1378471232
3240.0 0.1331491136
3250.0 0.1314226112
3260.0 0.1317505984
3270.0 0.1342598784
3280.0 0.1370455168
3290.0 0.13754334080000002
3300.0 0.13709459840000002
3310.0 0.1389759424
3320.0 0.1432333312
3330.0 0.1479986368
3340.0 0.1522117632
3350.0 0.154873856
3360.0 0.1561365312
3370.0 0.1579276672
3380.0 0.16134665599999998
3390.0 0.16595726719999998
3400.0 0.1711007488
3410.0 0.17642460799999998
3420.0 0.18164022400000002
3430.0 0.1863615616
3440.0 0.190413824
3450.0 0.1947489792
3460.0 0.2009758784
3470.0 0.2095695808
3480.0 0.22063712640000002
3490.0 0.23541162240000002
3500.0 0.2544942592
3510.0 0.2756927296
3520.0 0.295547904
3530.0 0.3123987776
3540.0 0.3266109824
3550.0 0.33906382720000006
3560.0 0.34942518400000006
3570.0 0.3558949312
3580.0 0.3570888256
3590.0 0.3536453376
3600.0 0.3485106944
3610.0 0.34643674239999994
3620.0 0.351229248
3630.0 0.3621692992
3640.0 0.374241312
3650.0 0.3808126016
3660.0 0.3769311296
3670.0 0.36162361600000004
3680.0 0.33787489919999997
3690.0 0.3107511296
3700.0 0.284980128
3710.0 0.263121312
3720.0 0.24499478400000002
3730.0 0.2289944768
3740.0 0.21457856
3750.0 0.20280983679999998
3760.0 0.1949181184
3770.0 0.1914592768
3780.0 0.1924528128
3790.0 0.1977880256
3800.0 0.2079077824
3810.0 0.22379164799999998
3820.0 0.2459075968
3830.0 0.273887936
3840.0 0.3068517376
3850.0 0.3436315072
3860.0 0.3827649024
3870.0 0.4221631424
3880.0 0.45904782720000004
3890.0 0.49070350079999997
3900.0 0.5153297472
3910.0 0.5319598080000001
3920.0 0.539930752
3930.0 0.5387651648
3940.0 0.528413312
3950.0 0.5096455744
3960.0 0.48477314560000007
3970.0 0.45769954560000004
3980.0 0.43274355200000003
3990.0 0.4134678144
4000.0 0.402238272
4010.0 0.39990714239999997
4020.0 0.40553768320000005
4030.0 0.4167086208
4040.0 0.43022555520000005
4050.0 0.4427874112
4060.0 0.4518214976
4070.0 0.4563470784
4080.0 0.45698396160000004
4090.0 0.4549752896
4100.0 0.45141336960000006
4110.0 0.447189216
4120.0 0.4430432192
4130.0 0.43942138880000003
4140.0 0.4363383424
4150.0 0.43343845119999996
4160.0 0.4302448704
4170.0 0.426392672
4180.0 0.421609536
4190.0 0.41555692800000005
4200.0 0.40789228800000005
4210.0 0.39852288640000005
4220.0 0.3876873536
4230.0 0.37580620159999995
4240.0 0.3632355584
4250.0 0.35012552319999996
4260.0 0.33632990720000006
4270.0 0.3216990784
4280.0 0.3066592256
4290.0 0.2924021824
4300.0 0.2803345536
4310.0 0.2713068672
4320.0 0.2653532352
4330.0 0.2619878336
4340.0 0.2605626432
4350.0 0.2604235008
4360.0 0.261079968
4370.0 0.2625286208
4380.0 0.2653590912
4390.0 0.27029813760000004
4400.0 0.2775715264
4410.0 0.28672880640000004
4420.0 0.2969941248
4430.0 0.3076588288
4440.0 0.31824592
4450.0 0.32862925440000007
4460.0 0.3390325376
4470.0 0.34979854079999995
4480.0 0.3610090496
4490.0 0.37227308800000003
4500.0 0.3828912576
4510.0 0.39218971519999996
4520.0 0.39968441600000004
4530.0 0.4050718272
4540.0 0.40826085120000005
4550.0 0.4094403072
4560.0 0.40897239679999997
4570.0 0.40710585600000004
4580.0 0.40376606079999994
4590.0 0.39855211520000006
4600.0 0.391066432
4610.0 0.38145175680000004
4620.0 0.370198016
4630.0 0.35750847360000004
4640.0 0.3435178176
4650.0 0.3289478784
4660.0 0.3150287552
4670.0 0.3027422464
4680.0 0.292201312
4690.0 0.2827832384
4700.0 0.273815008
4710.0 0.26508895359999995
4720.0 0.2568766848
4730.0 0.2496642048
4740.0 0.24386139519999997
4750.0 0.23956753279999998
4760.0 0.2364682368
4770.0 0.2339362368
4780.0 0.2312838528
4790.0 0.2279699712
4800.0 0.2237471872
4810.0 0.2187458688
4820.0 0.21345949440000003
4830.0 0.2086313024
4840.0 0.205095104
4850.0 0.20360204799999998
4860.0 0.2046309376
4870.0 0.20820360960000003
4880.0 0.2137092672
4890.0 0.21966952319999997
4900.0 0.223718976
4910.0 0.2237930496
4920.0 0.2201073984
4930.0 0.2148301632
4940.0 0.20951692160000002
4950.0 0.20440140159999998
4960.0 0.19966126080000002
4970.0 0.1959463168
4980.0 0.19392265600000003
4990.0 0.1938609344
5000.0 0.19559256319999999
5010.0 0.1987174912
5020.0 0.20286452479999997
5030.0 0.2078229248
5040.0 0.2134974336
5050.0 0.2197995712
5060.0 0.2266059648
5070.0 0.23378744320000003
5080.0 0.24123192319999998
5090.0 0.24882659200000004
5100.0 0.2564194496
5110.0 0.26378654720000005
5120.0 0.2706338048
5130.0 0.276655968
5140.0 0.2816257728
5150.0 0.28545115520000003
5160.0 0.2881738816
5170.0 0.28991543680000004
5180.0 0.2907712384
5190.0 0.29066545279999995
5200.0 0.2892694464
5210.0 0.2860968832
5220.0 0.28072392960000003
5230.0 0.2730341504
5240.0 0.263388224
5250.0 0.2526286464
5260.0 0.2418756736
5270.0 0.23219341440000002
5280.0 0.22430988799999999
5290.0 0.2185203904
5300.0 0.21474805119999998
5310.0 0.21266120959999998
5320.0 0.2117912704
5330.0 0.2116429504
5340.0 0.21178782080000003
5350.0 0.2119213376
5360.0 0.21186685440000003
5370.0 0.2115235712
5380.0 0.210783104
5390.0 0.20946677760000001
5400.0 0.20736828159999998
5410.0 0.2043608128
5420.0 0.20050477439999997
5430.0 0.1961076544
5440.0 0.19172744320000001
5450.0 0.1880962624
5460.0 0.1859248576
5470.0 0.18567640959999998
5480.0 0.18747232
5490.0 0.19113890560000002
5500.0 0.19630292480000003
5510.0 0.2024892992
5520.0 0.209177152
5530.0 0.2157863552
5540.0 0.221686624
5550.0 0.22634609920000004
5560.0 0.2295251136
5570.0 0.2313031744
5580.0 0.2319353472
5590.0 0.23169681279999998
5600.0 0.2307931648
5610.0 0.2293411328
5620.0 0.2273776832
5630.0 0.22489676160000002
5640.0 0.22189488640000002
5650.0 0.2183851968
5660.0 0.21438961280000002
5670.0 0.2099422464
5680.0 0.20512206079999998
5690.0 0.20009784320000001
5700.0 0.19514531200000002
5710.0 0.1906083328
5720.0 0.186817568
5730.0 0.18401388800000004
5740.0 0.18231805439999998
5750.0 0.181748832
5760.0 0.182258944
5770.0 0.18375710080000002
5780.0 0.18610803839999998
5790.0 0.1891252608
5800.0 0.19257731839999997
5810.0 0.1962157632
5820.0 0.19981356160000002
5830.0 0.20319264
5840.0 0.2062174464
5850.0 0.2087723904
5860.0 0.210767264
5870.0 0.21214068480000003
5880.0 0.21287126400000003
5890.0 0.2129873216
5900.0 0.2125669824
5910.0 0.21172631679999998
5920.0 0.21059571200000002
5930.0 0.20928722560000002
5940.0 0.2078611328
5950.0 0.2063009728
5960.0 0.2044996096
5970.0 0.20225277440000003
5980.0 0.19926244480000002
5990.0 0.19516385279999998
6000.0 0.18958899199999998
6010.0 0.18225996160000002
6020.0 0.17308300799999998
6030.0 0.1622082688
6040.0 0.1500324032
6050.0 0.1371502208
6060.0 0.12426257920000001
6070.0 0.1120691584
6080.0 0.10119041279999999
6090.0 0.09211735680000001
6100.0 0.0851884224
6110.0 0.0805893888
6120.0 0.0783673344
6130.0 0.078447488
6140.0 0.0806488512
6150.0 0.08470197760000002
6160.0 0.09027188480000002
6170.0 0.0969828736
6180.0 0.1044410752
6190.0 0.1122556224
6200.0 0.12006218879999998
6210.0 0.1275481024
6220.0 0.13447199999999998
6230.0 0.1406698432
6240.0 0.14604606080000002
6250.0 0.1505574976
6260.0 0.15420116479999998
6270.0 0.1570101504
6280.0 0.159051584
6290.0 0.160417344
6300.0 0.1612054272
6310.0 0.1614994368
6320.0 0.16135800320000002
6330.0 0.16082280959999998
6340.0 0.1599550464
6350.0 0.158859648
6360.0 0.1576612416
6370.0 0.1564496128
6380.0 0.1552471936
6390.0 0.15402477440000004
6400.0 0.1527443328
6410.0 0.151393504
6420.0 0.14999085439999998
6430.0 0.14856817919999998
6440.0 0.147151776
6450.0 0.1457541568
6460.0 0.14437271040000002
6470.0 0.1429923136
6480.0 0.1415922368
6490.0 0.1401552384
6500.0 0.138674304
6510.0 0.1371538816
6520.0 0.1356040064
6530.0 0.1340284352
6540.0 0.1324133632
6550.0 0.13072784640000001
6560.0 0.12894174079999998
6570.0 0.1270520128
6580.0 0.12509536640000002
6590.0 0.1231337088
6600.0 0.1212209088
6610.0 0.11937488640000002
6620.0 0.117575008
6630.0 0.115783968
6640.0 0.1139753792
6650.0 0.1121477568
6660.0 0.1103198272
6670.0 0.10851598080000001
6680.0 0.1067547328
6690.0 0.1050465088
6700.0 0.10339833600000001
6710.0 0.1018182272
6720.0 0.10031392
6730.0 0.0988878976
6740.0 0.097535424
6750.0 0.096249664
6760.0 0.09502981120000001
6770.0 0.0938833344
6780.0 0.0928175744
6790.0 0.0918266816
6800.0 0.09088560000000001
6810.0 0.0899580224
6820.0 0.0890132992
6830.0 0.08804039679999999
6840.0 0.08705055360000001
6850.0 0.0860672896
6860.0 0.08510956160000001
6870.0 0.0841797632
6880.0 0.08326124160000001
6890.0 0.0823258432
6900.0 0.0813473856
6910.0 0.08031491840000002
6920.0 0.0792394496
6930.0 0.0781513792
6940.0 0.0770903744
6950.0 0.0760927232
6960.0 0.0751820928
6970.0 0.0743662784
6980.0 0.0736393088
6990.0 0.07298611840000001
7000.0 0.07238743040000001
7010.0 0.071823456
7020.0 0.071275776
7030.0 0.0707275648
7040.0 0.07016416
7050.0 0.069576256
7060.0 0.06896528
7070.0 0.0683456704
7080.0 0.06773957759999999
7090.0 0.0671663296
7100.0 0.06663495679999999
7110.0 0.06614542080000001
7120.0 0.06569612159999999
7130.0 0.0652907072
7140.0 0.06494064640000001
7150.0 0.06465909759999999
7160.0 0.06445200640000001
7170.0 0.0643129088
7180.0 0.0642243968
7190.0 0.0641640576
7200.0 0.06411052160000001
7210.0 0.0640459776
7220.0 0.06395438976
7230.0 0.0638168576
7240.0 0.06360736512
7250.0 0.06329408576
7260.0 0.06285010367999999
7270.0 0.06226904384
7280.0 0.061571260800000006
7290.0 0.060790614400000005
7300.0 0.059951274240000005
7310.0 0.05905497984
7320.0 0.05808683712
7330.0 0.057029438079999994
7340.0 0.055872384000000004
7350.0 0.054614064000000004
7360.0 0.05325970624
7370.0 0.051819608319999995
7380.0 0.050308867199999996
7390.0 0.04874879424
7400.0 0.047170411520000004
7410.0 0.04561761216
7420.0 0.04414362304
7430.0 0.04280144959999999
7440.0 0.04163132352
7450.0 0.04065270464
7460.0 0.03986501952
7470.0 0.03925441024
7480.0 0.03880093376
7490.0 0.03848286336
7500.0 0.03827828096
7510.0 0.038165993599999996
7520.0 0.0381275392
7530.0 0.03815031424
7540.0 0.03823006208
7550.0 0.03837056064
7560.0 0.03857972416
7570.0 0.038863384960000004
7580.0 0.0392191968
7590.0 0.03963292928
7600.0 0.04007879552
7610.0 0.04052475456
7620.0 0.04094211072
7630.0 0.041315383680000005
7640.0 0.04164619136
7650.0 0.04194809664
7660.0 0.042236676480000006
7670.0 0.04252266496
7680.0 0.04281178304
7690.0 0.04310834624
7700.0 0.043417952
7710.0 0.043747414400000004
7720.0 0.044103038080000004
7730.0 0.04448842944
7740.0 0.04490348864
7750.0 0.0453444768
7760.0 0.045803684479999995
7770.0 0.04626929408000001
7780.0 0.046725879680000006
7790.0 0.0471557408
7800.0 0.04754068992
7810.0 0.0478636384
7820.0 0.048109554560000004
7830.0 0.048266059519999994
7840.0 0.04832432768
7850.0 0.04828060032
7860.0 0.048137799679999996
7870.0 0.04790613824000001
7880.0 0.047602031360000005
7890.0 0.047245763839999996
7900.0 0.046859092479999996
7910.0 0.046463088
7920.0 0.04605405888
7930.0 0.04565241280000001
7940.0 0.045258160639999996
7950.0 0.044848075519999996
7960.0 0.04439247872
7970.0 0.043870291840000006
7980.0 0.0432809728
7990.0 0.04264604352
8000.0 0.041999300479999994
8010.0 0.041370781440000004
8020.0 0.04077286784
8030.0 0.04019621632
8040.0 0.039617640319999994
8050.0 0.03901437184
8060.0 0.03837501952
8070.0 0.037700624
8080.0 0.03699720704
8090.0 0.03626756096
8100.0 0.035509130879999996
8110.0 0.034718359680000005
8120.0 0.033896692480000004
8130.0 0.03305385856
8140.0 0.03220757184
8150.0 0.031381172480000004
8160.0 0.0306006912
8170.0 0.029892023039999997
8180.0 0.029278394880000003
8190.0 0.02877833088
8200.0 0.02840430976
8210.0 0.028162143360000003
8220.0 0.028050873599999998
8230.0 0.028062975360000002
8240.0 0.028184872960000003
8250.0 0.0283981408
8260.0 0.028681815680000004
8270.0 0.02901588992
8280.0 0.02938536064
8290.0 0.029783636479999997
8300.0 0.03021408384
8310.0 0.030689074559999998
8320.0 0.031226858240000006
8330.0 0.03184725248
8340.0 0.032567360000000004
8350.0 0.03339818688
8360.0 0.034342581760000004
8370.0 0.03539460736
8380.0 0.036540300160000004
8390.0 0.037759672960000004
8400.0 0.03902951616
8410.0 0.040326375680000005
8420.0 0.04162902336
8430.0 0.042919863679999996
8440.0 0.044185162880000003
8450.0 0.04541435327999999
8460.0 0.04659892224
8470.0 0.04773139328
8480.0 0.048804782080000005
8490.0 0.04981262208000001
8500.0 0.05074944000000001
8510.0 0.05161135168000001
8520.0 0.052396431359999995
8530.0 0.053104622080000004
8540.0 0.05373717824
8550.0 0.0542958432
8560.0 0.054782085120000004
8570.0 0.055196681600000005
8580.0 0.05553980544
8590.0 0.05581151744
8600.0 0.05601242112
8610.0 0.05614413696
8620.0 0.05620940800000001
8630.0 0.05621184512
8640.0 0.05615551168
8650.0 0.05604459904
8660.0 0.05588331456000001
8670.0 0.055675937280000004
8680.0 0.05542686336
8690.0 0.05514042752
8700.0 0.05482033664
8710.0 0.0544686656
8720.0 0.05408462784
8730.0 0.05366366016
8740.0 0.053197363840000005
8750.0 0.05267473408
8760.0 0.052084601599999995
8770.0 0.051418682880000004
8780.0 0.05067424192
8790.0 0.04985545344
8800.0 0.0489730848
8810.0 0.04804280576
8820.0 0.047082929280000005
8830.0 0.04611241408
8840.0 0.04514955456
8850.0 0.0442112384
8860.0 0.0433123776
8870.0 0.04246515456
8880.0 0.04167810432
8890.0 0.040955373440000005
8900.0 0.040296589439999995
8910.0 0.03969752320000001
8920.0 0.03915130432
8930.0 0.03864966784
8940.0 0.03818372224
8950.0 0.03774417024
8960.0 0.03732140288
8970.0 0.03690625408
8980.0 0.03649193472
8990.0 0.036076776959999994
9000.0 0.03566635328
9010.0 0.03527327104
9020.0 0.034913966080000004
9030.0 0.03460358784
9040.0 0.034351125120000006
9050.0 0.03415655552
9060.0 0.03401064896
9070.0 0.03389691456
9080.0 0.033794863359999996
9090.0 0.033683908480000004
9100.0 0.033547230080000004
9110.0 0.03337492928
9120.0 0.033165863680000005
9130.0 0.03292783552
9140.0 0.03267619968
9150.0 0.0324312416
9160.0 0.03221477888
9170.0 0.03204644416000001
9180.0 0.03194016128
9190.0 0.031901406720000004
9200.0 0.031925836160000005
9210.0 0.03199953856
9220.0 0.03210075072
9230.0 0.03220256704
9240.0 0.032276071680000004
9250.0 0.03229371776
9260.0 0.03223333632
9270.0 0.03208318592
9280.0 0.031840601600000004
9290.0 0.03152923392
9300.0 0.0311879136
9310.0 0.030854911999999998
9320.0 0.030559413759999998
9330.0 0.030314034559999998
9340.0 0.030115249280000003
9350.0 0.029949777280000003
9360.0 0.02980215616
9370.0 0.029659764479999996
9380.0 0.029514417920000004
9390.0 0.029361712
9400.0 0.029199665280000002
9410.0 0.029027582720000004
9420.0 0.02884539008
9430.0 0.02865332096
9440.0 0.02845179392
9450.0 0.0282413728
9460.0 0.028022746879999998
9470.0 0.02779671616
9480.0 0.02756417344
9490.0 0.02732608448
9500.0 0.027083461120000003
9510.0 0.026837336320000002
9520.0 0.02658873152
9530.0 0.026338633599999998
9540.0 0.026087963520000004
9550.0 0.0258375552
9560.0 0.0255881376
9570.0 0.0253403232
9580.0 0.025094601600000002
9590.0 0.024851340800000003
9600.0 0.02461080064
9610.0 0.02437314496
9620.0 0.024138462720000003
9630.0 0.0239067936
9640.0 0.02367815104
9650.0 0.023452548479999998
9660.0 0.02323002048
9670.0 0.02301064384
