#lamb flux
1000.0 0.00022211456125
1010.0 0.00027336285425000003
1020.0 0.00033755285
1030.0 0.0004175790955
1040.0 0.0005170813455000001
1050.0 0.00064032395175
1060.0 0.0007922028745
1070.0 0.0009782097
1080.0 0.0012043428775
1090.0 0.0014769603575000001
1100.0 0.0018025771
1110.0 0.0021876147325
1120.0 0.00263812257
1130.0 0.00315949031
1140.0 0.0037561720125000005
1150.0 0.0044314408825
1160.0 0.0051871841975
1170.0 0.0060237453175
1180.0 0.006939815182500001
1190.0 0.007932373389999999
1200.0 0.0089966821825
1210.0 0.01012633205
1220.0 0.011313346625
1230.0 0.01254833725
1240.0 0.01382071915
1250.0 0.015118967749999998
1260.0 0.016430910975
1270.0 0.01774405485
1280.0 0.019045904475
1290.0 0.020324297025
1300.0 0.021567694975000003
1310.0 0.022765473775000003
1320.0 0.023908147549999998
1330.0 0.024987567050000003
1340.0 0.025997064875
1350.0 0.026931546125
1360.0 0.0277875402
1370.0 0.028563205425
1380.0 0.029258285575
1390.0 0.029874038650000004
1400.0 0.03041312125
1410.0 0.030879449825000002
1420.0 0.03127803325
1430.0 0.031614793375000005
1440.0 0.031896352275
1450.0 0.032129837075
1460.0 0.032322658875
1470.0 0.032482313875
1480.0 0.03261618912500001
1490.0 0.032731394175
1500.0 0.032834614000000005
1510.0 0.032931991525
1520.0 0.0330290527
1530.0 0.0331306584
1540.0 0.033240987775
1550.0 0.033363559525
1560.0 0.033501262425
1570.0 0.033656422850000006
1580.0 0.03383086305000001
1590.0 0.03402598070000001
1600.0 0.034242817349999996
1610.0 0.03448212595
1620.0 0.0347444356
1630.0 0.035030098725
1640.0 0.035339334550000004
1650.0 0.0356722624
1660.0 0.036028926674999996
1670.0 0.03640931535
1680.0 0.036813369225
1690.0 0.037240996725
1700.0 0.037692069275000004
1710.0 0.0381664324
1720.0 0.03866390110000001
1730.0 0.0391842617
1740.0 0.039727270925
1750.0 0.04029265312500001
1760.0 0.040880098425
1770.0 0.041489260875
1780.0 0.042119755675
1790.0 0.04277115825
1800.0 0.043442999625
1810.0 0.044134762725
1820.0 0.044845884225
1830.0 0.045575748075
1840.0 0.046323686425
1850.0 0.047088972225
1860.0 0.04787082570000001
1870.0 0.0486684051
1880.0 0.049480811325
1890.0 0.05030708515
1900.0 0.051146210925000005
1910.0 0.051997118424999995
1920.0 0.052858680075
1930.0 0.053729721125000005
1940.0 0.054609009475
1950.0 0.0554952566
1960.0 0.056387103675
1970.0 0.057283090125000005
1980.0 0.0581816009
1990.0 0.059080786
2000.0 0.059978421724999995
2010.0 0.06087172290000001
2020.0 0.06175707925000001
2030.0 0.06262971315
2040.0 0.06348327725000001
2050.0 0.06430940585
2060.0 0.065097282
2070.0 0.065833294325
2080.0 0.06650088995
2090.0 0.06708074470000001
2100.0 0.067551357875
2110.0 0.067890159475
2120.0 0.06807513635000001
2130.0 0.06808690975
2140.0 0.06791108205
2150.0 0.0675405696
2160.0 0.06697758499999999
2170.0 0.066234897875
2180.0 0.06533607907500001
2190.0 0.064314538675
2200.0 0.06321135870000001
2210.0 0.062072110199999996
2220.0 0.060943020975
2230.0 0.05986700455
2240.0 0.05888004805
2250.0 0.058008462175000004
2260.0 0.05726731610000001
2270.0 0.056660221950000006
2280.0 0.056180402250000004
2290.0 0.0558128461
2300.0 0.05553718315
2310.0 0.055330866525
2320.0 0.055172264175000006
2330.0 0.055043306225000005
2340.0 0.054931396025
2350.0 0.0548304665
2360.0 0.0547411041
2370.0 0.054669780125000005
2380.0 0.0546273476
2390.0 0.05462697297500001
2400.0 0.0546817635
2410.0 0.05480237147500001
2420.0 0.0549948686
2430.0 0.055259186425
2440.0 0.0555883412
2450.0 0.05596862535
2460.0 0.056380782225
2470.0 0.056802071625000006
2480.0 0.05720896247500001
2490.0 0.057580089125000004
2500.0 0.05789900785
2510.0 0.0581563521
2520.0 0.05835099245000001
2530.0 0.05849005324999999
2540.0 0.058587769325
2550.0 0.05866342045000001
2560.0 0.058738705275
2570.0 0.058835027375
2580.0 0.058971104125
2590.0 0.059161243425
2600.0 0.059414436274999996
2610.0 0.05973424485000001
2620.0 0.060119349175
2630.0 0.060564514675000014
2640.0 0.06106176877500001
2650.0 0.061607224625000005
2660.0 0.06248869875
2670.0 0.06648944215
2680.0 0.07604875105
2690.0 0.08607682035
2700.0 0.0953931965
2710.0 0.10262265425000001
2720.0 0.10688527625000001
2730.0 0.10951949124999999
2740.0 0.11627503450000001
2750.0 0.127296502
2760.0 0.13827060025000001
2770.0 0.1528445765
2780.0 0.174661497
2790.0 0.19644130650000002
2800.0 0.216826882
2810.0 0.245357249
2820.0 0.2752974085
2830.0 0.29960540025
2840.0 0.317126852
2850.0 0.32747270875
2860.0 0.33252557675
2870.0 0.33435915800000005
2880.0 0.3345737395
2890.0 0.334535389
2900.0 0.33795980375
2910.0 0.34426354
2920.0 0.34964623525
2930.0 0.3561400497500001
2940.0 0.36840986025
2950.0 0.38483134825000004
2960.0 0.3992421545
2970.0 0.408097827
2980.0 0.41424127925000004
2990.0 0.42456781275
3000.0 0.44564185650000004
3010.0 0.47996286225000007
3020.0 0.521217261
3030.0 0.5575854305000001
3040.0 0.582042375
3050.0 0.595176968
3060.0 0.59946603575
3070.0 0.59552472175
3080.0 0.5825987255
3090.0 0.5611374305
3100.0 0.5347827190000001
3110.0 0.50683507425
3120.0 0.4764572510000001
3130.0 0.4427072940000001
3140.0 0.40891700700000005
3150.0 0.37831123600000005
3160.0 0.3509883825
3170.0 0.32808378225
3180.0 0.312958876
3190.0 0.30709342325000005
3200.0 0.3051589615
3210.0 0.29922709375
3220.0 0.29416115550000005
3230.0 0.2941751045
3240.0 0.29698001900000004
3250.0 0.300218407
3260.0 0.30521204725
3270.0 0.31440830475
3280.0 0.32805290575
3290.0 0.345587807
3300.0 0.36667185
3310.0 0.3901689127500001
3320.0 0.41367526250000003
3330.0 0.433890231
3340.0 0.44906680775
3350.0 0.46076633725000005
3360.0 0.47194361175000005
3370.0 0.48492123225
3380.0 0.50146901975
3390.0 0.5226821002500001
3400.0 0.54894240625
3410.0 0.5799750740000001
3420.0 0.6127855085
3430.0 0.6432507165
3440.0 0.66886281025
3450.0 0.6854855227500001
3460.0 0.6928716755000001
3470.0 0.6958406387499999
3480.0 0.69660635375
3490.0 0.6948139165
3500.0 0.6904968397500001
3510.0 0.68376015725
3520.0 0.675116023
3530.0 0.66546164075
3540.0 0.6548737947500001
3550.0 0.64252737575
3560.0 0.62763848325
3570.0 0.6095840095
3580.0 0.58745618725
3590.0 0.55857988875
3600.0 0.5182912454999999
3610.0 0.469397614
3620.0 0.42370989375
3630.0 0.38471167175
3640.0 0.34962212975
3650.0 0.318135583
3660.0 0.29167583775
3670.0 0.27208246
3680.0 0.2609814795
3690.0 0.25924895449999996
3700.0 0.26717689825
3710.0 0.284624017
3720.0 0.31023141175
3730.0 0.34053039725
3740.0 0.3704909345
3750.0 0.39551470975
3760.0 0.41380028550000003
3770.0 0.4274391885
3780.0 0.44046227275000005
3790.0 0.45617663525
3800.0 0.4765535805
3810.0 0.5025140570000001
3820.0 0.53348304775
3830.0 0.5668987467500001
3840.0 0.5987430835
3850.0 0.6251601400000001
3860.0 0.6456168295000001
3870.0 0.66316921325
3880.0 0.68002147375
3890.0 0.6961206085
3900.0 0.71005056275
3910.0 0.71938457125
3920.0 0.7214545917499999
3930.0 0.71468196375
3940.0 0.69969603875
3950.0 0.6791244735
3960.0 0.65673119475
3970.0 0.63669367825
3980.0 0.6227210630000001
3990.0 0.61680934175
4000.0 0.6186710799999999
4010.0 0.62662298125
4020.0 0.6386792092500001
4030.0 0.6526392722500001
4040.0 0.6660588855
4050.0 0.6766308215
4060.0 0.68239585625
4070.0 0.6818385530000001
4080.0 0.6744397092500001
4090.0 0.6610235832500001
4100.0 0.6434187335
4110.0 0.6236763660000001
4120.0 0.6034635805
4130.0 0.58383675475
4140.0 0.5650550830000001
4150.0 0.5464957349999999
4160.0 0.5272375125
4170.0 0.5069561197500001
4180.0 0.48612051325
4190.0 0.46552490725000006
4200.0 0.44588564950000004
4210.0 0.427710713
4220.0 0.41126337124999995
4230.0 0.396574584
4240.0 0.38357316325000007
4250.0 0.372391162
4260.0 0.3633731705
4270.0 0.35686757150000004
4280.0 0.35322605000000007
4290.0 0.352976892
4300.0 0.35670388350000004
4310.0 0.36449730450000006
4320.0 0.37545895225000003
4330.0 0.38774378475
4340.0 0.39905248325
4350.0 0.40723593975
4360.0 0.41092594975
4370.0 0.41013775725000007
4380.0 0.40644763625
4390.0 0.4023986152500001
4400.0 0.40042467449999997
4410.0 0.40197133925000006
4420.0 0.407277093
4430.0 0.415591511
4440.0 0.4255375920000001
4450.0 0.43552393825
4460.0 0.44417166150000004
4470.0 0.45060332524999996
4480.0 0.45445547850000007
4490.0 0.45572295975000005
4500.0 0.45464847050000007
4510.0 0.45169681400000006
4520.0 0.447495686
4530.0 0.44267762
4540.0 0.43772951750000005
4550.0 0.43292120100000003
4560.0 0.42824392000000006
4570.0 0.42335692300000005
4580.0 0.41763815675000004
4590.0 0.41036637099999995
4600.0 0.4010657735
4610.0 0.38988994200000004
4620.0 0.3777273575
4630.0 0.3658753787500001
4640.0 0.35547484525
4650.0 0.34709168125000006
4660.0 0.34063562525
4670.0 0.3355360725
4680.0 0.33103850975000004
4690.0 0.32654062325000005
4700.0 0.32186072450000003
4710.0 0.31728388925
4720.0 0.31334514674999997
4730.0 0.31050632175
4740.0 0.3088871185
4750.0 0.30809110050000005
4760.0 0.30719246299999997
4770.0 0.304983785
4780.0 0.3004301025
4790.0 0.29306753725
4800.0 0.2831760775
4810.0 0.27170695625
4820.0 0.260007991
4830.0 0.24943253075000005
4840.0 0.24097642125000004
4850.0 0.23508641900000005
4860.0 0.23168006949999997
4870.0 0.23030743425000003
4880.0 0.23034722775000002
4890.0 0.23114611324999998
4900.0 0.23209709650000004
4910.0 0.23280523025
4920.0 0.23332832700000003
4930.0 0.23408135100000002
4940.0 0.235398107
4950.0 0.23733711975000002
4960.0 0.239822419
4970.0 0.24278593400000004
4980.0 0.24620233824999999
4990.0 0.25005400125
5000.0 0.25428045574999997
5010.0 0.2587884525
5020.0 0.26355498675000005
5030.0 0.26868148475
5040.0 0.27426210225000003
5050.0 0.28015292775
5060.0 0.28588298824999997
5070.0 0.290824551
5080.0 0.29448859625
5090.0 0.29672587525
5100.0 0.2977420525
5110.0 0.29797588325
5120.0 0.297921262
5130.0 0.29794744875
5140.0 0.29815242875000003
5150.0 0.29828425050000007
5160.0 0.29777034825000004
5170.0 0.295876938
5180.0 0.291965372
5190.0 0.28573187099999997
5200.0 0.27735901150000003
5210.0 0.26751250675
5220.0 0.25717184849999997
5230.0 0.24735986475000002
5240.0 0.23888810425000004
5250.0 0.23222227675000004
5260.0 0.22749409299999998
5270.0 0.22460128499999998
5280.0 0.22330890275
5290.0 0.22329780275
5300.0 0.2241690325
5310.0 0.22545675275000002
5320.0 0.22668624425000003
5330.0 0.22745418850000002
5340.0 0.227475075
5350.0 0.22657026775
5360.0 0.22463683275000002
5370.0 0.221655123
5380.0 0.21774793225000003
5390.0 0.21322860424999998
5400.0 0.20857055400000002
5410.0 0.20431696925
5420.0 0.20101138925
5430.0 0.19914242675000002
5440.0 0.1990349325
5450.0 0.20072313149999998
5460.0 0.203907629
5470.0 0.2080254885
5480.0 0.2123909705
5490.0 0.216363309
5500.0 0.21950647750000002
5510.0 0.221691568
5520.0 0.22308887300000002
5530.0 0.22404233525000003
5540.0 0.22489044000000002
5550.0 0.22583024925
5560.0 0.22688594250000002
5570.0 0.2279695985
5580.0 0.22897195625
5590.0 0.22982175375000002
5600.0 0.23049035300000004
5610.0 0.23095723750000002
5620.0 0.2311701725
5630.0 0.23102667725000003
5640.0 0.23038655875
5650.0 0.22910886550000004
5660.0 0.22709539025000003
5670.0 0.22432381275000002
5680.0 0.220866579
5690.0 0.21689988300000002
5700.0 0.212697645
5710.0 0.20859397500000001
5720.0 0.20491167025
5730.0 0.20188600450000002
5740.0 0.19962544325000003
5750.0 0.19812375200000001
5760.0 0.19730151025
5770.0 0.19704872625000003
5780.0 0.197256435
5790.0 0.19783542950000002
5800.0 0.198718638
5810.0 0.19984554700000004
5820.0 0.20113842875000001
5830.0 0.2024857005
5840.0 0.2037401855
5850.0 0.20473858425000002
5860.0 0.20534001000000002
5870.0 0.20547344125000003
5880.0 0.20517035574999998
5890.0 0.20454745150000003
5900.0 0.203730214
5910.0 0.20276100825
5920.0 0.20156185675000002
5930.0 0.19998189199999997
5940.0 0.19788593450000003
5950.0 0.1952094285
5960.0 0.19194618575000003
5970.0 0.1880984355
5980.0 0.18364173
5990.0 0.17853037425
6000.0 0.17273103125
6010.0 0.16625693775
6020.0 0.1591852665
6030.0 0.15165784775000002
6040.0 0.143874426
6050.0 0.1360850935
6060.0 0.1285830845
6070.0 0.12169128874999999
6080.0 0.11573823850000002
6090.0 0.11102666775
6100.0 0.10779913
6110.0 0.106208389
6120.0 0.106298817
6130.0 0.10800047475
6140.0 0.1111356235
6150.0 0.1154401295
6160.0 0.12060117625
6170.0 0.126304865
6180.0 0.132277812
6190.0 0.13830674925
6200.0 0.144231772
6210.0 0.14992384274999998
6220.0 0.155263655
6230.0 0.16013409450000002
6240.0 0.16442929500000003
6250.0 0.16807681975000002
6260.0 0.1710617485
6270.0 0.17342945249999997
6280.0 0.17525210025000004
6290.0 0.17658819800000003
6300.0 0.17748499475
6310.0 0.17801509375
6320.0 0.17828569325000002
6330.0 0.1783946305
6340.0 0.17836947050000002
6350.0 0.17814512100000002
6360.0 0.17760561475
6370.0 0.17665962650000003
6380.0 0.17529232849999998
6390.0 0.17356596400000002
6400.0 0.17158611250000003
6410.0 0.16946411625
6420.0 0.16729495425000002
6430.0 0.16515104475000003
6440.0 0.16308358650000002
6450.0 0.1611249545
6460.0 0.1592918265
6470.0 0.15758952125
6480.0 0.15601709525000002
6490.0 0.15457204175
6500.0 0.1532527975
6510.0 0.1520567725
6520.0 0.150973209
6530.0 0.14997371875
6540.0 0.14900810200000003
6550.0 0.14801193250000003
6560.0 0.14692559400000002
6570.0 0.1457146765
6580.0 0.1443800495
6590.0 0.14295450425
6600.0 0.14148615
6610.0 0.140019359
6620.0 0.13858272300000002
6630.0 0.13718675
6640.0 0.135829738
6650.0 0.1345071545
6660.0 0.13321952675
6670.0 0.13197440275000002
6680.0 0.13078185575
6690.0 0.12964774099999998
6700.0 0.12857073575
6710.0 0.12754526224999999
6720.0 0.12656703775
6730.0 0.12563578475
6740.0 0.12475328850000002
6750.0 0.12391930850000002
6760.0 0.12312902550000002
6770.0 0.12237330975
6780.0 0.12164045999999999
6790.0 0.12091812750000001
6800.0 0.12019491625000002
6810.0 0.11946199250000002
6820.0 0.11871484225000001
6830.0 0.11795530625
6840.0 0.11719421625
6850.0 0.11645347625000001
6860.0 0.11576195550000001
6870.0 0.1151456465
6880.0 0.11461474275
6890.0 0.11415462
6900.0 0.113727455
6910.0 0.11328493499999999
6920.0 0.11278623975
6930.0 0.11221297100000001
6940.0 0.11157484125
6950.0 0.11090479900000001
6960.0 0.11024607875
6970.0 0.1096365685
6980.0 0.10909652575
6990.0 0.10862425775
7000.0 0.10820098700000001
7010.0 0.10780195125000001
7020.0 0.10740800300000002
7030.0 0.10701239900000001
7040.0 0.10662068
7050.0 0.10624560175000002
7060.0 0.10589990150000002
7070.0 0.10558940675
7080.0 0.10530802175000001
7090.0 0.10503597925000001
7100.0 0.10474304100000001
7110.0 0.10439580525000001
7120.0 0.103966448
7130.0 0.10343928125
7140.0 0.10281373150000002
7150.0 0.10210550525
7160.0 0.1013470515
7170.0 0.10058408375000001
7180.0 0.0998615755
7190.0 0.09920171750000001
7200.0 0.09859087525
7210.0 0.0979911885
7220.0 0.097368349
7230.0 0.09671084975
7240.0 0.09602856975
7250.0 0.09534013850000002
7260.0 0.09466242800000002
7270.0 0.09400556700000001
7280.0 0.09337075800000001
7290.0 0.0927499165
7300.0 0.09212805565
7310.0 0.0914885458
7320.0 0.09081907057500001
7330.0 0.09011486992500001
7340.0 0.0893775478
7350.0 0.0886105526
7360.0 0.087814646525
7370.0 0.08698651715000001
7380.0 0.08612141275000001
7390.0 0.085218066075
7400.0 0.08428310845
7410.0 0.08333290405
7420.0 0.08239299675
7430.0 0.0814966588
7440.0 0.08068198447500001
7450.0 0.0799874436
7460.0 0.0794457673
7470.0 0.07907737865000002
7480.0 0.07888582595000002
7490.0 0.078857508
7500.0 0.078966053975
7510.0 0.079179473675
7520.0 0.07946703490000001
7530.0 0.07980352215000001
7540.0 0.080170415075
7550.0 0.080555165125
7560.0 0.0809501096
7570.0 0.081351564225
7580.0 0.081758416225
7590.0 0.08216953155000001
7600.0 0.082580556225
7610.0 0.082982074675
7620.0 0.083360741
7630.0 0.08370298082500001
7640.0 0.08399858307500001
7650.0 0.08424103205000001
7660.0 0.084423602075
7670.0 0.08453428017499999
7680.0 0.08455568930000001
7690.0 0.08447389340000001
7700.0 0.08429104495
7710.0 0.084029141375
7720.0 0.08371757085
7730.0 0.083372681825
7740.0 0.0829857571
7750.0 0.082526978375
7760.0 0.081958765675
7770.0 0.081248343475
7780.0 0.08037522672500001
7790.0 0.07933441302500001
7800.0 0.07813658705
7810.0 0.07680545377500002
7820.0 0.0753724965
7830.0 0.073870406575
7840.0 0.0723267934
7850.0 0.07075904512500002
7860.0 0.069170945
7870.0 0.06755351775000001
7880.0 0.06589498905
7890.0 0.064201205825
7900.0 0.06251567082500001
7910.0 0.060919784974999995
7920.0 0.05950521115000001
7930.0 0.05833583447500001
7940.0 0.05742758437500001
7950.0 0.05675708147500001
7960.0 0.056285800450000006
7970.0 0.05598053935
7980.0 0.055821599375
7990.0 0.055800191175
8000.0 0.05590946235
8010.0 0.056134460275000006
8020.0 0.056447493225000006
8030.0 0.05681265084999999
8040.0 0.05719570075
8050.0 0.057570199950000005
8060.0 0.057917150800000004
8070.0 0.05822091895000001
8080.0 0.058466450950000005
8090.0 0.058639798725000004
8100.0 0.058730433
8110.0 0.05873319597500001
8120.0 0.05864896177500001
8130.0 0.058484398725000004
8140.0 0.05825157345
8150.0 0.05796777420000001
8160.0 0.057655367475000004
8170.0 0.057341097800000004
8180.0 0.05705416002500001
8190.0 0.05682273520000001
8200.0 0.0566693813
8210.0 0.05660649332500001
8220.0 0.05663347280000001
8230.0 0.05673701545
8240.0 0.056895376375
8250.0 0.057084037525000006
8260.0 0.057283054975000004
8270.0 0.057482950250000005
8280.0 0.057686782325
8290.0 0.0579085446
8300.0 0.05816825315
8310.0 0.05848537645
8320.0 0.05887288115
8330.0 0.05933398162500001
8340.0 0.05986247112500001
8350.0 0.060445833475
8360.0 0.06106916692500001
8370.0 0.061717537350000004
8380.0 0.06237720942500001
8390.0 0.06303577335
8400.0 0.063681372475
8410.0 0.06430225375
8420.0 0.06488685652500001
8430.0 0.065424201975
8440.0 0.06590435745
8450.0 0.066318893425
8460.0 0.06666139225
8470.0 0.06692794025
8480.0 0.067117390425
8490.0 0.067231246825
8500.0 0.06727323997500001
8510.0 0.06724895780000001
8520.0 0.067165838225
8530.0 0.067033433725
8540.0 0.06686335397500001
8550.0 0.06666818452500001
8560.0 0.066459293625
8570.0 0.066244429075
8580.0 0.066026552725
8590.0 0.0658046702
8600.0 0.06557603425
8610.0 0.06533810112499999
8620.0 0.065089061525
8630.0 0.06482696739999999
8640.0 0.0645485868
8650.0 0.064249109725
8660.0 0.063923043525
8670.0 0.0635657225
8680.0 0.063174429
8690.0 0.062748554375
8700.0 0.06228892187500001
8710.0 0.061796218775
8720.0 0.0612699354
8730.0 0.06070820325
8740.0 0.06010838977500001
8750.0 0.05946812327500001
8760.0 0.05878643435
8770.0 0.058064774325000006
8780.0 0.05730778022500001
8790.0 0.056523636450000005
8800.0 0.055723887
8810.0 0.054922789825
8820.0 0.054136424200000005
8830.0 0.05338187950000001
8840.0 0.05267654665000001
8850.0 0.05203728932499999
8860.0 0.051479074949999995
8870.0 0.051012949875000005
8880.0 0.050643828625
8890.0 0.050368986149999996
8900.0 0.05017801157500001
8910.0 0.050054298375
8920.0 0.049965868375
8930.0 0.049894704425000005
8940.0 0.049828742675
8950.0 0.049755823075
8960.0 0.04967167675
8970.0 0.04958017205
8980.0 0.04949161440000001
8990.0 0.0494195014
9000.0 0.049376608225
9010.0 0.04937154755
9020.0 0.049407129525
9030.0 0.04948153097500001
9040.0 0.0495922211
9050.0 0.049740947225000005
9060.0 0.049936655950000006
9070.0 0.050193385075000006
9080.0 0.050522784975000005
9090.0 0.050924917625
9100.0 0.051383305075
9110.0 0.05186799305
9120.0 0.05234489715
9130.0 0.05278549315000001
9140.0 0.0531716011
9150.0 0.053494434425
9160.0 0.053750896225000004
9170.0 0.053940541575
9180.0 0.05406456095000001
9190.0 0.05412602535
9200.0 0.05412998805
9210.0 0.054082654875000004
9220.0 0.05398975250000001
9230.0 0.05385485327500001
9240.0 0.0536784937
9250.0 0.05345880065
9260.0 0.05319397037500001
9270.0 0.052886239525
9280.0 0.052545735924999996
9290.0 0.052191658875
9300.0 0.051848822424999996
9310.0 0.051540338625
9320.0 0.051280094500000005
9330.0 0.0510692167
9340.0 0.050898043600000005
9350.0 0.050751615175
9360.0 0.05061521745
9370.0 0.050477604275000004
9380.0 0.050331642975
9390.0 0.050173441150000005
9400.0 0.050001147875
9410.0 0.049814032400000006
9420.0 0.049611968
9430.0 0.049395204425000006
9440.0 0.0491642791
9450.0 0.04891998752500001
9460.0 0.0486633546
9470.0 0.048395614275000005
9480.0 0.048118171625000004
9490.0 0.047832564
