#lamb flux
1000.0 5.587020627500001e-06
1010.0 6.7697198e-06
1020.0 8.2293896875e-06
1030.0 1.0022042925e-05
1040.0 1.2217258475e-05
1050.0 1.489451465e-05
1060.0 1.8142510625e-05
1070.0 2.2057578675e-05
1080.0 2.6741075675000002e-05
1090.0 3.229574045e-05
1100.0 3.882119735e-05
1110.0 4.640887337500001e-05
1120.0 5.5136788575e-05
1130.0 6.5064621175e-05
1140.0 7.62294794e-05
1150.0 8.8642621425e-05
1160.0 0.00010228726774999999
1170.0 0.00011711749675
1180.0 0.00013305821600000003
1190.0 0.00015000601049999999
1200.0 0.00016783099175
1210.0 0.00018637946175000002
1220.0 0.00020547738175000002
1230.0 0.00022493470125000003
1240.0 0.00024455026050000005
1250.0 0.00026411720174999997
1260.0 0.0002834286395
1270.0 0.00030228342324999997
1280.0 0.00032049151175
1290.0 0.00033787897725
1300.0 0.00035429228825
1310.0 0.00036960180600000003
1320.0 0.00038370440225
1330.0 0.00039652523525
1340.0 0.0004080187025
1350.0 0.00041816877375000006
1360.0 0.0004269889355
1370.0 0.00043452185800000004
1380.0 0.0004408393305
1390.0 0.00044604260350000004
1400.0 0.00045026357275
1410.0 0.00045366698075
1420.0 0.0004564537097500001
1430.0 0.0004588647685000001
1440.0 0.00046118526975000003
1450.0 0.00046374693700000007
1460.0 0.000466927235
1470.0 0.000471142682
1480.0 0.0004768339757500001
1490.0 0.0004844412035
1500.0 0.0004943685070000001
1510.0 0.0005069399137500001
1520.0 0.0005223504322500001
1530.0 0.00054061888625
1540.0 0.00056155104425
1550.0 0.00058472164675
1560.0 0.0006094827775
1570.0 0.00063500231575
1580.0 0.0006603315445
1590.0 0.00068449525475
1600.0 0.0007065931995
1610.0 0.00072589856925
1620.0 0.0007419391145
1630.0 0.0007545494545
1640.0 0.0007638876070000001
1650.0 0.0007704155725000001
1660.0 0.0007748489032499999
1670.0 0.00077808490475
1680.0 0.000781120616
1690.0 0.0007849713632499999
1700.0 0.000790597611
1710.0 0.000798845059
1720.0 0.000810398716
1730.0 0.000825750127
1740.0 0.0008451753675
1750.0 0.0008687220935
1760.0 0.00089620525875
1770.0 0.0009272124149999999
1780.0 0.0009611204175
1790.0 0.0009971258575
1800.0 0.0010342893050000002
1810.0 0.0010715930750000002
1820.0 0.001108008105
1830.0 0.0011425637925
1840.0 0.00117441515
1850.0 0.001202897565
1860.0 0.0012275657425000002
1870.0 0.0012482104475
1880.0 0.001264854435
1890.0 0.00127772803
1900.0 0.0012872294450000002
1910.0 0.0012938760325
1920.0 0.0012982512825000002
1930.0 0.00130095478
1940.0 0.001302557805
1950.0 0.0013035689225000002
1960.0 0.0013044093775
1970.0 0.0013053998675
1980.0 0.0013067578600000002
1990.0 0.0013086023100000001
2000.0 0.0013109663325
2010.0 0.0013138145000000001
2020.0 0.001317061435
2030.0 0.00132059253
2040.0 0.0013242816150000002
2050.0 0.0013280068675000003
2060.0 0.00133166182
2070.0 0.0013351635
2080.0 0.0013384560375
2090.0 0.001341510665
2100.0 0.0013443245150000002
2110.0 0.0013469169199999999
2120.0 0.0013493242325
2130.0 0.001351595385
2140.0 0.0013537861549999999
2150.0 0.0013559542625000002
2160.0 0.0013581541900000002
2170.0 0.0013604342225
2180.0 0.0013628334875000001
2190.0 0.0013653821400000004
2200.0 0.0013681033050000002
2210.0 0.0013710176100000001
2220.0 0.0013741495675
2230.0 0.0013775341425
2240.0 0.001381222765
2250.0 0.0013852865675
2260.0 0.0013898148125
2270.0 0.00139490851
2280.0 0.0014006685775
2290.0 0.00140717993
2300.0 0.0014144936275
2310.0 0.001422610595
2320.0 0.00143147006
2330.0 0.0014409456675
2340.0 0.0014508529725
2350.0 0.0014609670149999998
2360.0 0.0014710531224999999
2370.0 0.0014809056675000002
2380.0 0.0014903936700000002
2390.0 0.0014995085275
2400.0 0.0015084079525000001
2410.0 0.0015174487175
2420.0 0.0015272040450000001
2430.0 0.0015384557449999998
2440.0 0.00155215888
2450.0 0.0015693736849999999
2460.0 0.0015911659450000002
2470.0 0.0016184829525
2480.0 0.0016520137400000002
2490.0 0.00169205329
2500.0 0.0017383902400000002
2510.0 0.001790240005
2520.0 0.0018462414475000001
2530.0 0.0019045281025000002
2540.0 0.0019628704425
2550.0 0.0020188747525
2560.0 0.00207020994
2570.0 0.0021148283325
2580.0 0.00215114522
2590.0 0.0021781533699999998
2600.0 0.0021954590100000003
2610.0 0.002203245475
2620.0 0.002202179135
2630.0 0.0021932813750000003
2640.0 0.0021777906775000003
2650.0 0.00215701712
2660.0 0.0021316981124999998
2670.0 0.0021170538825
2680.0 0.002341489315
2690.0 0.0032149522925000004
2700.0 0.004603874480000001
2710.0 0.00606122641
2720.0 0.00703891626
2730.0 0.007370709967500002
2740.0 0.007442183885000001
2750.0 0.0075418326550000005
2760.0 0.0076134490225000006
2770.0 0.007704527667500001
2780.0 0.00790591321
2790.0 0.0083261955625
2800.0 0.008470211679999999
2810.0 0.00836238591
2820.0 0.008191609635000001
2830.0 0.007891919255000001
2840.0 0.0076442376475
2850.0 0.00764990096
2860.0 0.007713510250000001
2870.0 0.0078283442825
2880.0 0.00806637629
2890.0 0.008599931830000001
2900.0 0.0093417341
2910.0 0.0096642076
2920.0 0.00942735395
2930.0 0.00937181695
2940.0 0.00954808495
2950.0 0.00964365965
2960.0 0.009535787075
2970.0 0.009324974025
2980.0 0.009050848702500001
2990.0 0.0085579879825
3000.0 0.0078915811675
3010.0 0.007405017200000001
3020.0 0.007216988750000001
3030.0 0.007257349552500001
3040.0 0.007190737435
3050.0 0.0068941754049999995
3060.0 0.006753131590000001
3070.0 0.006734213305
3080.0 0.006740871177500001
3090.0 0.006718778200000001
3100.0 0.00668511338
3110.0 0.0068322252875
3120.0 0.007159226477500001
3130.0 0.007481329607500001
3140.0 0.0077138747925
3150.0 0.007906935705
3160.0 0.00823476218
3170.0 0.008733361785000001
3180.0 0.009238593547500002
3190.0 0.009572766725
3200.0 0.009697042325
3210.0 0.009578940175000002
3220.0 0.009256070775
3230.0 0.008779495882500002
3240.0 0.008281692702500001
3250.0 0.007829470562500001
3260.0 0.007496583782499999
3270.0 0.007339772602500002
3280.0 0.007239730800000001
3290.0 0.0071291365050000005
3300.0 0.007113996475000001
3310.0 0.0072606617
3320.0 0.007503483357500001
3330.0 0.007698238500000001
3340.0 0.00780548966
3350.0 0.007896179065
3360.0 0.0080634692
3370.0 0.0083049453525
3380.0 0.0085765481075
3390.0 0.008868291720000001
3400.0 0.0091815188275
3410.0 0.009577094800000002
3420.0 0.01004519105
3430.0 0.010455373975
3440.0 0.0107342698
3450.0 0.010888124125000002
3460.0 0.010960573825000002
3470.0 0.01103709445
3480.0 0.011107253850000002
3490.0 0.011055751700000001
3500.0 0.011003123825
3510.0 0.011324531725
3520.0 0.011998779025
3530.0 0.012760677475000003
3540.0 0.0134378413
3550.0 0.013957786575000002
3560.0 0.014317552375
3570.0 0.014489058474999999
3580.0 0.014490530150000002
3590.0 0.014471553775
3600.0 0.014480516100000002
3610.0 0.014533298449999999
3620.0 0.014709387925
3630.0 0.015037189425000002
3640.0 0.015572193699999999
3650.0 0.016400028
3660.0 0.017541369775
3670.0 0.018968013000000002
3680.0 0.0206530004
3690.0 0.022548725
3700.0 0.024387736925
3710.0 0.025701704975000003
3720.0 0.026143472025000003
3730.0 0.025673005925000002
3740.0 0.02456352485
3750.0 0.023060302725000002
3760.0 0.021252062775
3770.0 0.019241401375
3780.0 0.0171682146
3790.0 0.015197745375
3800.0 0.013552233275
3810.0 0.012465800425000001
3820.0 0.012106220550000001
3830.0 0.012555851025
3840.0 0.013824457075000001
3850.0 0.015843321375
3860.0 0.01843662085
3870.0 0.0213128473
3880.0 0.024175592800000003
3890.0 0.026891156925000003
3900.0 0.0294699265
3910.0 0.0319039086
3920.0 0.03412347755
3930.0 0.036081628549999994
3940.0 0.0377927583
3950.0 0.03926284415
3960.0 0.040401290675
3970.0 0.041047503075000005
3980.0 0.041082315450000004
3990.0 0.04048444725000001
4000.0 0.03930406400000001
4010.0 0.03764424955
4020.0 0.035683254175000005
4030.0 0.0336683609
4040.0 0.03185155915
4050.0 0.030407414925
4060.0 0.029365644774999998
4070.0 0.028598906724999998
4080.0 0.027902119025
4090.0 0.027130550625000003
4100.0 0.02629580935
4110.0 0.025526508125
4120.0 0.024938930550000002
4130.0 0.024565917825000002
4140.0 0.02438572135
4150.0 0.024370629050000002
4160.0 0.024507983225
4170.0 0.024796259475
4180.0 0.025217041975
4190.0 0.025706469650000004
4200.0 0.0261719463
4210.0 0.026549554424999997
4220.0 0.02683710455
4230.0 0.027069591275000002
4240.0 0.027279078800000002
4250.0 0.02748550735
4260.0 0.027715077549999998
4270.0 0.028012145925000002
4280.0 0.028427890875
4290.0 0.028985703800000002
4300.0 0.029640165349999997
4310.0 0.030261549825
4320.0 0.030656115050000002
4330.0 0.0306093785
4340.0 0.0299654601
4350.0 0.028731064250000004
4360.0 0.0270769552
4370.0 0.025212159825
4380.0 0.023300837875000004
4390.0 0.021469535825
4400.0 0.01983942035
4410.0 0.01853167015
4420.0 0.017641933925
4430.0 0.017223598975
4440.0 0.017273169725
4450.0 0.0177285019
4460.0 0.018506524950000002
4470.0 0.0195474848
4480.0 0.020828938175
4490.0 0.022358862275
4500.0 0.024163558550000002
4510.0 0.026272487325000003
4520.0 0.028705650800000003
4530.0 0.0314638935
4540.0 0.0345143659
4550.0 0.037776042625000006
4560.0 0.041120258025
4570.0 0.04439236412500001
4580.0 0.047444891875000006
4590.0 0.050161685325
4600.0 0.052455665900000004
4610.0 0.0542429768
4620.0 0.055415034125000005
4630.0 0.055830886375
4640.0 0.055337454375000004
4650.0 0.0538178394
4660.0 0.05126181095000001
4670.0 0.04782666897500001
4680.0 0.0438349545
4690.0 0.0396904254
4700.0 0.035761472175
4710.0 0.032299861325000005
4720.0 0.029421538825000003
4730.0 0.027134918475000002
4740.0 0.025390610825000003
4750.0 0.02413275975
4760.0 0.023337169100000003
4770.0 0.023018211525000002
4780.0 0.023193424100000002
4790.0 0.023827329375
4800.0 0.024795402
4810.0 0.025896679250000002
4820.0 0.026906837525
4830.0 0.02764649065
4840.0 0.028045399675
4850.0 0.028179609775
4860.0 0.0282519383
4870.0 0.028513911250000003
4880.0 0.029173231825
4890.0 0.030336542350000002
4900.0 0.031996492775
4910.0 0.03404080475
4920.0 0.036267996625
4930.0 0.0384104178
4940.0 0.04016664315
4950.0 0.041244709375
4960.0 0.041420291025
4970.0 0.04060352435
4980.0 0.03888475965
4990.0 0.0365201988
5000.0 0.03385992285
5010.0 0.031251190675
5020.0 0.028957403425000004
5030.0 0.027117548825
5040.0 0.025751512525000003
5050.0 0.024799467375000002
5060.0 0.024170520100000002
5070.0 0.023777772500000002
5080.0 0.023553085375
5090.0 0.023447378225000003
5100.0 0.023424435450000006
5110.0 0.023455385025
5120.0 0.023519855675
5130.0 0.023613743175000004
5140.0 0.023755601175000002
5150.0 0.023982860725
5160.0 0.0243386222
5170.0 0.024858886599999998
5180.0 0.025567443999999998
5190.0 0.0264748653
5200.0 0.027575436775000003
5210.0 0.028841471325000003
5220.0 0.03022221975
5230.0 0.03165501515
5240.0 0.033086679274999996
5250.0 0.03449149065
5260.0 0.035869742499999996
5270.0 0.037225165350000006
5280.0 0.038539306375
5290.0 0.039764491075000005
5300.0 0.040838363350000004
5310.0 0.041704104150000004
5320.0 0.042327865875
5330.0 0.042724071125
5340.0 0.042973669425000006
5350.0 0.043186813475
5360.0 0.04343073875
5370.0 0.043709284925
5380.0 0.044002635724999996
5390.0 0.044306222575000005
5400.0 0.044644600525
5410.0 0.0450712355
5420.0 0.045655810525
5430.0 0.046464742450000006
5440.0 0.04754152015000001
5450.0 0.0488915706
5460.0 0.050474142
5470.0 0.052203911425
5480.0 0.05396364252500001
5490.0 0.05562386305
5500.0 0.057060873675000005
5510.0 0.058167325375
5520.0 0.05885778052500001
5530.0 0.059074934450000005
5540.0 0.05879585085000001
5550.0 0.058030945225000005
5560.0 0.056812947775
5570.0 0.05518364815000001
5580.0 0.053188137324999996
5590.0 0.05087886095
5600.0 0.048320509824999996
5610.0 0.04558520805
5620.0 0.042747442175000004
5630.0 0.039881842125
5640.0 0.037066985725
5650.0 0.0343927321
5660.0 0.031963601625
5670.0 0.029892152925
5680.0 0.02828378975
5690.0 0.02722083525
5700.0 0.026752754725000005
5710.0 0.026893008775
5720.0 0.027619172625
5730.0 0.02887510895
5740.0 0.030577165375000003
5750.0 0.032624221825
5760.0 0.034907029325
5770.0 0.037313304900000004
5780.0 0.039730591675
5790.0 0.0420508219
5800.0 0.044176383099999994
5810.0 0.0460239781
5820.0 0.047524931199999995
5830.0 0.04862546845
5840.0 0.049290919925
5850.0 0.049512345500000006
5860.0 0.049312644475
5870.0 0.048745403025
5880.0 0.047883026450000005
5890.0 0.046798603625
5900.0 0.045548751025
5910.0 0.04416460600000001
5920.0 0.042654693349999995
5930.0 0.041018009450000004
5940.0 0.03926106352500001
5950.0 0.037411134750000005
5960.0 0.035519953750000006
5970.0 0.0336565579
5980.0 0.031893272025
5990.0 0.030291900925
6000.0 0.02889593625
6010.0 0.027729687925000003
6020.0 0.026800990700000003
6030.0 0.026103785825
6040.0 0.025619515025
6050.0 0.025318570900000004
6060.0 0.025163663925
6070.0 0.025115917275
6080.0 0.025142237225000003
6090.0 0.025220788225000002
6100.0 0.025341870725
6110.0 0.025504204525000004
6120.0 0.02570981445
6130.0 0.02596080395
6140.0 0.026258708525
6150.0 0.026604127575
6160.0 0.026993641375000002
6170.0 0.027413034524999998
6180.0 0.027829580525
6190.0 0.028188943025
6200.0 0.028421526875000002
6210.0 0.028458469525000002
6220.0 0.028251632125000002
6230.0 0.027789207975
6240.0 0.027100999650000002
6250.0 0.026252646075000004
6260.0 0.0253323275
6270.0 0.024435059000000002
6280.0 0.02364933625
6290.0 0.023049376625000003
6300.0 0.0226926661
6310.0 0.022617970500000004
6320.0 0.02283868475
6330.0 0.02333550595
6340.0 0.024061751200000002
6350.0 0.024963817675000003
6360.0 0.0260018499
6370.0 0.027154866099999998
6380.0 0.02841202065
6390.0 0.029761809325
6400.0 0.03118594395
6410.0 0.032657743825
6420.0 0.0341434668
6430.0 0.035605169375
6440.0 0.037003559400000004
6450.0 0.038299653675
6460.0 0.03945534220000001
6470.0 0.04043389045
6480.0 0.041201313
6490.0 0.041728745225
6500.0 0.04199517575
6510.0 0.041989558225
6520.0 0.041711416275
6530.0 0.041169682625
6540.0 0.040380267275
6550.0 0.039363353725
6560.0 0.038141749700000005
6570.0 0.036740408925
6580.0 0.035186666075000005
6590.0 0.03351180095
6600.0 0.031751761825
6610.0 0.029945605900000002
6620.0 0.0281317771
6630.0 0.026343951900000002
6640.0 0.024608527949999997
6650.0 0.022944697150000002
6660.0 0.021366619400000002
6670.0 0.019886261425
6680.0 0.018515509475
6690.0 0.017266634600000004
6700.0 0.016150935675
6710.0 0.015176187325000003
6720.0 0.014344068425
6730.0 0.013648893924999999
6740.0 0.013078412200000002
6750.0 0.012616432975000001
6760.0 0.012246170275000001
6770.0 0.01195290735
6780.0 0.011725191775
6790.0 0.01155479475
6800.0 0.011436180150000001
6810.0 0.011365995775
6820.0 0.01134238515
6830.0 0.011363785025
6840.0 0.011427388025000002
6850.0 0.011528316625000002
6860.0 0.011659860875
6870.0 0.011814713275
6880.0 0.011986249900000003
6890.0 0.01216865065
6900.0 0.012355784625000001
6910.0 0.012539987275000003
6920.0 0.012712073349999999
6930.0 0.012863094400000002
6940.0 0.012987129500000002
6950.0 0.013083540400000001
6960.0 0.0131573406
6970.0 0.01321744895
6980.0 0.013273810125
6990.0 0.01333494615
7000.0 0.013407004575000003
7010.0 0.013494342150000003
7020.0 0.0136007819
7030.0 0.013730593625
7040.0 0.013888642825000002
7050.0 0.014079619250000001
7060.0 0.014306709525
7070.0 0.014570505650000001
7080.0 0.014868959675
7090.0 0.015198516825000001
7100.0 0.015555811025000003
7110.0 0.01593917635
7120.0 0.016349159475000003
7130.0 0.016787176575
7140.0 0.017251957625
7150.0 0.01773708405
7160.0 0.01823212
7170.0 0.018725643575
7180.0 0.019207838675
7190.0 0.019671017625000002
7200.0 0.0201089043
7210.0 0.0205159524
7220.0 0.020886901450000002
7230.0 0.021216367025000002
7240.0 0.021498739
7250.0 0.021728786500000003
7260.0 0.021903066675
7270.0 0.02202160635
7280.0 0.0220892109
7290.0 0.022115886975
7300.0 0.02211624865
7310.0 0.022107948625000002
7320.0 0.022109291725000004
7330.0 0.022136288775000002
7340.0 0.022199723425
7350.0 0.02230300245
7360.0 0.022441529525000004
7370.0 0.02260386425
7380.0 0.0227742141
7390.0 0.022935329675
7400.0 0.023070731174999998
7410.0 0.023165974725
7420.0 0.023209438625
7430.0 0.023190712
7440.0 0.023099956550000002
7450.0 0.022928771424999998
7460.0 0.022672397500000004
7470.0 0.022332815200000005
7480.0 0.021921840475
7490.0 0.021463288375
7500.0 0.020992986
7510.0 0.020554506400000002
7520.0 0.02018908515
7530.0 0.0199227795
7540.0 0.019759210825
7550.0 0.019683867725
7560.0 0.019676060725000003
7570.0 0.019718656975000002
7580.0 0.019801039325000002
7590.0 0.019918621625
7600.0 0.020072864450000002
7610.0 0.02027115485
7620.0 0.020523986025
7630.0 0.020839374025000003
7640.0 0.021217112575000002
7650.0 0.0216457585
7660.0 0.02210344295
7670.0 0.022561603775
7680.0 0.02298984455
7690.0 0.023360365325
7700.0 0.023651156649999998
7710.0 0.023847829225
7720.0 0.0239436287
7730.0 0.023938437599999998
7740.0 0.023838886325000003
7750.0 0.023656857425
7760.0 0.023407246175000004
7770.0 0.0231053641
7780.0 0.022764370250000002
7790.0 0.022393216775000002
7800.0 0.021995618475
7810.0 0.021570425575
7820.0 0.021113477425
7830.0 0.020620485725000002
7840.0 0.0200899603
7850.0 0.019525039675
7860.0 0.0189334439
7870.0 0.018325718900000003
7880.0 0.017712709375
7890.0 0.017103539525000003
7900.0 0.016504894325
7910.0 0.0159216402
7920.0 0.015358042325000001
7930.0 0.0148190254
7940.0 0.014310329975000001
7950.0 0.013838060125000001
7960.0 0.013407596575000002
7970.0 0.013022406225
7980.0 0.012683153225000002
7990.0 0.012387404825
8000.0 0.012129949575
8010.0 0.011903976699999999
8020.0 0.01170206585
8030.0 0.011516021525
8040.0 0.011337055300000001
8050.0 0.0111558848
8060.0 0.01096292425
8070.0 0.010748698875
8080.0 0.010504365675
8090.0 0.0102220418
8100.0 0.009894812875
8110.0 0.009516673800000002
8120.0 0.00908297756
8130.0 0.0085917834125
8140.0 0.0080459453525
8150.0 0.0074551047475
8160.0 0.00683648519
8170.0 0.0062136959175
8180.0 0.005613567942500001
8190.0 0.005061946320000001
8200.0 0.004579829475000001
8210.0 0.0041810148924999995
8220.0 0.0038716402250000004
8230.0 0.0036512091175
8240.0 0.0035142876575
8250.0 0.0034521539275000003
8260.0 0.00345404731
8270.0 0.003508026425
8280.0 0.0036016462300000004
8290.0 0.0037227106
8300.0 0.0038602670725
8310.0 0.0040058259975
8320.0 0.0041545814450000005
8330.0 0.00430628052
8340.0 0.004465415115
8350.0 0.0046405630324999995
8360.0 0.0048429232475
8370.0 0.00508430764
8380.0 0.0053750069275
8390.0 0.005722025487500001
8400.0 0.0061279345425
8410.0 0.006590607609999999
8420.0 0.0071041479075
8430.0 0.007659950437500002
8440.0 0.008247587212500001
8450.0 0.00885529436
8460.0 0.009470149075
8470.0 0.010078277375
8480.0 0.010665463675
8490.0 0.011218405550000001
8500.0 0.01172654135
8510.0 0.01218401675
8520.0 0.012590956625
8530.0 0.012953253225000001
8540.0 0.013280710625
8550.0 0.01358429285
8560.0 0.013873692050000002
8570.0 0.014137256
8580.0 0.014370771325
8590.0 0.014599484975
8600.0 0.014823864075000002
8610.0 0.015043578400000002
8620.0 0.015258086825000001
8630.0 0.015466827875
8640.0 0.015668949625
8650.0 0.01586281575
8660.0 0.016045654025
8670.0 0.016213704324999998
8680.0 0.016362938275000002
8690.0 0.016490103575
8700.0 0.016593625875000004
8710.0 0.016673939000000002
8720.0 0.016733014125
8730.0 0.016773259025000004
8740.0 0.01679622955
8750.0 0.01680166115
8760.0 0.016787196925
8770.0 0.016748847350000002
8780.0 0.016681966150000005
8790.0 0.016582372325
8800.0 0.016447289025
8810.0 0.0162759226
8820.0 0.016069630025000003
8830.0 0.015831732050000002
8840.0 0.015567047000000002
8850.0 0.015281266399999998
8860.0 0.014980261225000001
8870.0 0.0146694122
8880.0 0.014353118625
8890.0 0.014034567125
8900.0 0.0137158519
8910.0 0.013398403925000002
8920.0 0.013083541325000001
8930.0 0.012772953149999999
8940.0 0.012468943575000002
8950.0 0.012174412475000002
8960.0 0.01189265655
8970.0 0.011627105700000001
8980.0 0.011381077900000001
8990.0 0.011157563675000001
9000.0 0.010959080875
9010.0 0.01078756645
9020.0 0.010644336675000001
9030.0 0.01053008715
9040.0 0.010444932575
9050.0 0.010388452075
9060.0 0.010359736375
9070.0 0.010357425725000001
9080.0 0.010379764475
9090.0 0.0104246612
9100.0 0.010489791375
9110.0 0.010572750925
9120.0 0.0106712773
9130.0 0.01078345205
9140.0 0.0109078405
9150.0 0.011043478800000001
