#lamb flux
1000.0 2.8081448105e-06
1010.0 3.402597137e-06
1020.0 4.136263815e-06
1030.0 5.037299725e-06
1040.0 6.14067909e-06
1050.0 7.4863533000000004e-06
1060.0 9.118908405e-06
1070.0 1.10867702e-05
1080.0 1.3440890359999998e-05
1090.0 1.623291993e-05
1100.0 1.9512944375e-05
1110.0 2.3326934904999998e-05
1120.0 2.7714126079999996e-05
1130.0 3.270453746e-05
1140.0 3.831684785e-05
1150.0 4.455674727e-05
1160.0 5.1415839399999996e-05
1170.0 5.887107025e-05
1180.0 6.688474464999999e-05
1190.0 7.540492879999999e-05
1200.0 8.436636595e-05
1210.0 9.369185379999999e-05
1220.0 0.00010329394685
1230.0 0.00011307716799999998
1240.0 0.0001229404287
1250.0 0.0001327797789
1260.0 0.00014249126855
1270.0 0.00015197379455
1280.0 0.00016113184585
1290.0 0.00016987798664999998
1300.0 0.00017813503889999998
1310.0 0.00018583782345
1320.0 0.00019293445499999996
1330.0 0.00019938726360000002
1340.0 0.000205173236
1350.0 0.00021028418054999998
1360.0 0.0002147266496
1370.0 0.00021852173095
1380.0 0.00022170492175
1390.0 0.00022432617699999998
1400.0 0.00022645029755
1410.0 0.00022815783705
1420.0 0.000229546426
1430.0 0.00023073244500000002
1440.0 0.00023185268829999998
1450.0 0.00023306536774999999
1460.0 0.00023454954535
1470.0 0.00023650195164999998
1480.0 0.00023913008419999997
1490.0 0.00024264075184999998
1500.0 0.00024722386119999996
1510.0 0.00025303218240000004
1520.0 0.0002601589761
1530.0 0.00026861641579999996
1540.0 0.00027831879229999997
1550.0 0.0002890743075
1560.0 0.00030058894954999995
1570.0 0.00031248411775
1580.0 0.0003243275704
1590.0 0.00033567465465
1600.0 0.00034611470644999997
1610.0 0.00035531607795
1620.0 0.00036306326425
1630.0 0.00036928081389999996
1640.0 0.00037404091915
1650.0 0.00037755455499999995
1660.0 0.00038014846595
1670.0 0.00038223234605000005
1680.0 0.0003842613969
1690.0 0.0003866990845
1700.0 0.00038998375669999997
1710.0 0.00039450120675
1720.0 0.00040056374069999997
1730.0 0.00040839516180000003
1740.0 0.00041812070674999996
1750.0 0.00042976112385
1760.0 0.00044323069905
1770.0 0.0004583396373
1780.0 0.00047480177890000006
1790.0 0.0004922483249999999
1800.0 0.0005102481785
1810.0 0.000528334265
1820.0 0.000546034146
1830.0 0.0005629017185
1840.0 0.0005785480610000001
1850.0 0.0005926665565
1860.0 0.0006050504009999999
1870.0 0.000615600412
1880.0 0.000624323137
1890.0 0.0006313197954999999
1900.0 0.00063676814
1910.0 0.0006409000975
1920.0 0.0006439778105
1930.0 0.000646270648
1940.0 0.0006480351265
1950.0 0.0006494990989999999
1960.0 0.000650850794
1970.0 0.0006522327045
1980.0 0.000653740327
1990.0 0.000655424732
2000.0 0.0006572981414999999
2010.0 0.0006593418345000001
2020.0 0.0006615150225
2030.0 0.000663763919
2040.0 0.00066603013
2050.0 0.0006682576865
2060.0 0.0006703982339999999
2070.0 0.0006724146215
2080.0 0.0006742824535
2090.0 0.0006759902355
2100.0 0.0006775386464999999
2110.0 0.000678938793
2120.0 0.0006802097355000001
2130.0 0.0006813767425
2140.0 0.0006824681864999999
2150.0 0.000683513604
2160.0 0.000684541222
2170.0 0.0006855764059999999
2180.0 0.0006866406415
2190.0 0.000687751243
2200.0 0.000688922421
2210.0 0.000690167319
2220.0 0.0006915009234999999
2230.0 0.0006929429255
2240.0 0.0006945206305
2250.0 0.0006962704135
2260.0 0.0006982368460000001
2270.0 0.0007004699315
2280.0 0.0007030196735
2290.0 0.0007059286549999999
2300.0 0.0007092240359999999
2310.0 0.000712910036
2320.0 0.000716962793
2330.0 0.0007213285689999999
2340.0 0.0007259273875
2350.0 0.000730661133
2360.0 0.000735428101
2370.0 0.000740141137
2380.0 0.0007447493645
2390.0 0.0007492605435000001
2400.0 0.0007537622164999999
2410.0 0.000758437568
2420.0 0.0007635738634999999
2430.0 0.0007695591999999999
2440.0 0.0007768651915
2450.0 0.0007860143284999999
2460.0 0.000797531187
2470.0 0.0008118809305
2480.0 0.000829400537
2490.0 0.000850230608
2500.0 0.0008742585749999999
2510.0 0.0009010846524999999
2520.0 0.0009300188309999999
2530.0 0.000960115603
2540.0 0.000990244288
2550.0 0.0010191888455000002
2560.0 0.0010457620925
2570.0 0.0010689173019999998
2580.0 0.001087840353
2590.0 0.001102008464
2600.0 0.0011112100295
2610.0 0.0011155275964999998
2620.0 0.0011152907709999999
2630.0 0.001111012392
2640.0 0.0011033184974999998
2650.0 0.0010928626735
2660.0 0.0010794234205000002
2670.0 0.0010652095255
2680.0 0.0011626773565
2690.0 0.0015962690539999998
2700.0 0.0023066993335
2710.0 0.003062061856
2720.0 0.0035707386345
2730.0 0.003743283059
2740.0 0.0037824810499999997
2750.0 0.003836409849
2760.0 0.00387233215
2770.0 0.0039137888345
2780.0 0.0040159938545
2790.0 0.0042376872575
2800.0 0.0043171552835
2810.0 0.004266291345
2820.0 0.004181018353999999
2830.0 0.004024136859
2840.0 0.0038930580915
2850.0 0.0038951596934999996
2860.0 0.0039265990909999994
2870.0 0.0039803313194999995
2880.0 0.0040941798315
2890.0 0.0043630882755
2900.0 0.0047465689
2910.0 0.004940173139999999
2920.0 0.00487479805
2930.0 0.0048782318499999994
2940.0 0.00495201296
2950.0 0.004949383775
2960.0 0.00486563349
2970.0 0.004755859075
2980.0 0.0046207362805
2990.0 0.004373846497
3000.0 0.0040340856155
3010.0 0.003780425717
3020.0 0.0036758571464999995
3030.0 0.0036916213925
3040.0 0.0036515717899999996
3050.0 0.0034882394069999994
3060.0 0.003409361723
3070.0 0.00339881404
3080.0 0.0034041753269999997
3090.0 0.0033953283935
3100.0 0.0033810704605
3110.0 0.003461902743
3120.0 0.003635880585
3130.0 0.0038031130955
3140.0 0.0039165175415
3150.0 0.004004139144999999
3160.0 0.0041641540795
3170.0 0.004419365250499999
3180.0 0.0046827524545
3190.0 0.004859740255
3200.0 0.004930610879999999
3210.0 0.00487754606
3220.0 0.004717150061
3230.0 0.0044735040545000005
3240.0 0.004215739601
3250.0 0.0039802575025
3260.0 0.0038078228819999997
3270.0 0.003731269706
3280.0 0.0036875360434999995
3290.0 0.0036351943585
3300.0 0.003627657992
3310.0 0.0037009868394999998
3320.0 0.0038233018024999995
3330.0 0.003922492596
3340.0 0.0039777301675
3350.0 0.004024730499
3360.0 0.004112166977999999
3370.0 0.00423926666
3380.0 0.004381835708
3390.0 0.004531602544
3400.0 0.004687771283
3410.0 0.0048833966150000005
3420.0 0.005116420684999999
3430.0 0.005322297364999999
3440.0 0.00546405947
3450.0 0.005543204679999999
3460.0 0.005580113665
3470.0 0.005618738095
3480.0 0.00565774325
3490.0 0.005646502405000001
3500.0 0.00564413027
3510.0 0.005824600224999999
3520.0 0.00617327109
3530.0 0.006563196054999999
3540.0 0.00691209778
3550.0 0.00718411585
3560.0 0.00737773852
3570.0 0.007482212855
3580.0 0.00750390739
3590.0 0.0075063163850000005
3600.0 0.007510399115
3610.0 0.007525028655000001
3620.0 0.007593933575
3630.0 0.00773889474
3640.0 0.007992958595
3650.0 0.008400217945
3660.0 0.008972352559999999
3670.0 0.00969410822
3680.0 0.010543803
3690.0 0.01149050263
3700.0 0.012407508619999999
3710.0 0.013080392284999999
3720.0 0.01333969317
3730.0 0.013143314245
3740.0 0.012611900715
3750.0 0.011870061689999998
3760.0 0.010962872585
3770.0 0.009937160149999999
3780.0 0.008865506575
3790.0 0.007842059575
3800.0 0.0069872325249999995
3810.0 0.00642133501
3820.0 0.006232226235000001
3830.0 0.006467644265
3840.0 0.00713622889
3850.0 0.00820034702
3860.0 0.009565098219999998
3870.0 0.011080868720000001
3880.0 0.0125985443
3890.0 0.01404755261
3900.0 0.015426069565
3910.0 0.016723861179999997
3920.0 0.017901641
3930.0 0.018932188885
3940.0 0.019820271415
3950.0 0.020568787435
3960.0 0.021136408155
3970.0 0.02144901636
3980.0 0.02145013186
3990.0 0.02112622752
4000.0 0.02049671983
4010.0 0.019611061330000002
4020.0 0.01856318391
4030.0 0.01748558375
4040.0 0.016511835185
4050.0 0.015734040685
4060.0 0.015170484749999998
4070.0 0.014758385585
4080.0 0.014391821129999998
4090.0 0.013992932395
4100.0 0.013563992090000001
4110.0 0.013169346135
4120.0 0.01286908409
4130.0 0.012680596115
4140.0 0.012591237775
4150.0 0.01258397878
4160.0 0.012651298234999999
4170.0 0.01279478694
4180.0 0.013008970214999999
4190.0 0.013263167445
4200.0 0.013508162285
4210.0 0.013707188825000001
4220.0 0.013856197315
4230.0 0.013973325299999999
4240.0 0.014077701664999998
4250.0 0.01418206639
4260.0 0.014299847185
4270.0 0.014451885469999998
4280.0 0.014662868229999999
4290.0 0.014944456804999999
4300.0 0.015273948829999998
4310.0 0.01558646343
4320.0 0.01578547833
4330.0 0.01576390165
4340.0 0.015441957195
4350.0 0.01481782573
4360.0 0.013971780575
4370.0 0.01300923939
4380.0 0.012018806824999999
4390.0 0.01107048293
4400.0 0.010228106314999999
4410.0 0.009552300525000001
4420.0 0.009089981064999999
4430.0 0.008867481495000001
4440.0 0.00888422224
4450.0 0.009111768235
4460.0 0.009510640479999999
4470.0 0.010050584674999998
4480.0 0.010718038765
4490.0 0.011514584335
4500.0 0.012452294005
4510.0 0.013546159609999999
4520.0 0.014806639690000001
4530.0 0.01623365325
4540.0 0.017809371204999997
4550.0 0.019491842995
4560.0 0.021215392344999997
4570.0 0.022900743095
4580.0 0.024471633844999997
4590.0 0.0258679891
4600.0 0.02704543815
4610.0 0.027962126949999996
4620.0 0.028564505679999998
4630.0 0.028783796005
4640.0 0.028545507260000002
4650.0 0.027791376395
4660.0 0.02651303231
4670.0 0.024783634345
4680.0 0.022759918979999995
4690.0 0.020642838690000002
4700.0 0.018620030759999996
4710.0 0.016824087885
4720.0 0.015320337625
4730.0 0.014117803889999999
4740.0 0.01319245784
4750.0 0.012514329870000002
4760.0 0.01206974298
4770.0 0.01186665796
4780.0 0.011916603745
4790.0 0.012205261194999999
4800.0 0.01267311014
4810.0 0.013220550494999999
4820.0 0.013733351665
4830.0 0.014116703909999999
4840.0 0.014329211025000002
4850.0 0.014404785179999999
4860.0 0.014445301595
4870.0 0.014580972099999999
4880.0 0.01492094934
4890.0 0.01552169265
4900.0 0.0163796237
4910.0 0.017436598749999997
4920.0 0.018588877269999998
4930.0 0.019699027235
4940.0 0.02061222646
4950.0 0.021178282085
4960.0 0.021281209755
4970.0 0.020873049759999998
4980.0 0.019997730489999997
4990.0 0.018785235339999998
5000.0 0.017416312655000002
5010.0 0.016072556135
5020.0 0.014892666080000002
5030.0 0.01394978437
5040.0 0.013253955355
5050.0 0.012773178735
5060.0 0.012459359485
5070.0 0.012266862015
5080.0 0.01216007908
5090.0 0.01211335612
5100.0 0.012107767464999999
5110.0 0.01212836784
5120.0 0.01216463808
5130.0 0.012214234665
5140.0 0.01228636726
5150.0 0.012400279694999999
5160.0 0.01257866706
5170.0 0.01284079695
5180.0 0.013199415649999999
5190.0 0.013660124909999998
5200.0 0.014220095725
5210.0 0.014865330509999998
5220.0 0.015570028719999997
5230.0 0.016302253104999997
5240.0 0.0170349169
5250.0 0.017754911525
5260.0 0.018462232614999997
5270.0 0.019158516075
5280.0 0.019834293734999998
5290.0 0.020465697289999998
5300.0 0.021021748335
5310.0 0.021474005985
5320.0 0.021804771134999998
5330.0 0.022020200860000002
5340.0 0.022160490989999997
5350.0 0.022280694360000002
5360.0 0.02241291215
5370.0 0.022556066205
5380.0 0.022697615395
5390.0 0.022834363570000002
5400.0 0.02297985484
5410.0 0.023164053474999998
5420.0 0.023426101884999998
5430.0 0.0238032277
5440.0 0.024319706625
5450.0 0.024978813865
5460.0 0.025759128425
5470.0 0.026616231094999998
5480.0 0.027489863535
5490.0 0.028314057985
5500.0 0.029025869205
5510.0 0.029570341844999997
5520.0 0.029903416080000002
5530.0 0.029995511275
5540.0 0.02983493311
5550.0 0.02942722659
5560.0 0.028789382234999997
5570.0 0.027943089245
5580.0 0.026911834715
5590.0 0.025722950334999998
5600.0 0.0244098075
5610.0 0.02300924487
5620.0 0.02155918314
5630.0 0.020097737975
5640.0 0.018665240035000003
5650.0 0.017307828825
5660.0 0.016079009545
5670.0 0.015036273125000001
5680.0 0.01423347154
5690.0 0.013712722674999999
5700.0 0.013499280965
5710.0 0.013599786059999997
5720.0 0.014002373405
5730.0 0.014677936695000001
5740.0 0.015583294925000001
5750.0 0.0166661035
5760.0 0.017869430695
5770.0 0.019134440675
5780.0 0.020402135614999997
5790.0 0.021615877214999996
5800.0 0.022724488759999998
5810.0 0.023684302789999997
5820.0 0.024459713515
5830.0 0.02502383981
5840.0 0.025360795984999997
5850.0 0.025468487325
5860.0 0.02536077804
5870.0 0.025066357334999997
5880.0 0.024622624529999998
5890.0 0.024066731595
5900.0 0.023427132024999995
5910.0 0.02271914406
5920.0 0.02194645855
5930.0 0.02110786348
5940.0 0.020206027805
5950.0 0.019254358864999998
5960.0 0.018278993309999998
5970.0 0.01731528861
5980.0 0.016400790555
5990.0 0.015568145949999999
6000.0 0.01484085062
6010.0 0.014232394355
6020.0 0.013747341975
6030.0 0.013382617610000001
6040.0 0.013128392735000001
6050.0 0.012969039194999999
6060.0 0.01288499985
6070.0 0.01285605214
6080.0 0.01286525841
6090.0 0.012901906464999998
6100.0 0.01296188593
6110.0 0.013045448035
6120.0 0.013154129745
6130.0 0.013288816669999998
6140.0 0.013449413265
6150.0 0.013634936435
6160.0 0.013842323404999999
6170.0 0.014063315595
6180.0 0.014280725089999998
6190.0 0.014466835109999998
6200.0 0.01458641283
6210.0 0.014604542615
6220.0 0.01449657046
6230.0 0.01425602889
6240.0 0.013897512039999999
6250.0 0.013454033859999999
6260.0 0.012970546575
6270.0 0.01249607544
6280.0 0.01207683659
6290.0 0.01175199717
6300.0 0.011552164075
6310.0 0.0114983315
6320.0 0.011598510190000001
6330.0 0.011843655865000002
6340.0 0.0122097974
6350.0 0.012668528345000001
6360.0 0.013198373869999998
6370.0 0.013788014559999999
6380.0 0.01443163963
6390.0 0.015123029924999998
6400.0 0.015852319575
6410.0 0.016605286925
6420.0 0.017364116954999998
6430.0 0.018108923695
6440.0 0.018819289615000002
6450.0 0.01947517985
6460.0 0.0200572332
6470.0 0.020546956614999997
6480.0 0.020927359574999995
6490.0 0.02118411324
6500.0 0.021306919605000002
6510.0 0.02129057268
6520.0 0.0211352427
6530.0 0.020845867934999998
6540.0 0.02043092764
6550.0 0.019901089389999998
6560.0 0.01926838652
6570.0 0.01854589948
6580.0 0.017747793665
6590.0 0.016890063889999998
6600.0 0.01599092045
6610.0 0.015070085384999998
6620.0 0.014147017864999998
6630.0 0.013238871855
6640.0 0.012359182249999998
6650.0 0.011517790669999998
6660.0 0.01072181643
6670.0 0.00997703006
6680.0 0.009288938735
6690.0 0.008663106375
6700.0 0.008104592984999999
6710.0 0.007616781925
6720.0 0.00720017905
6730.0 0.0068518219800000005
6740.0 0.006565668585
6750.0 0.0063338516800000005
6760.0 0.006148257214999999
6770.0 0.0060017683
6780.0 0.00588880501
6790.0 0.0058053006199999995
6800.0 0.005748454255
6810.0 0.00571649615
6820.0 0.005708353
6830.0 0.005723077115
6840.0 0.005759128619999999
6850.0 0.0058140151
6860.0 0.005884424005
6870.0 0.00596677555
6880.0 0.00605774991
6890.0 0.006154262969999999
6900.0 0.006252920699999999
6910.0 0.00634952106
6920.0 0.00643920144
6930.0 0.0065174106
6940.0 0.006581286069999999
6950.0 0.0066306794399999995
6960.0 0.0066682465699999995
6970.0 0.00669853967
6980.0 0.006726610985
6990.0 0.006756853644999999
7000.0 0.006792543825
7010.0 0.006836074515
7020.0 0.0068895001749999995
7030.0 0.006954967899999999
7040.0 0.007034807630000001
7050.0 0.007131216899999999
7060.0 0.007245691935
7070.0 0.007378540710000001
7080.0 0.00752884221
7090.0 0.007694942099999999
7100.0 0.007875213205
7110.0 0.008068760699999998
7120.0 0.008275690315
7130.0 0.00849652488
7140.0 0.00873058006
7150.0 0.00897481636
7160.0 0.009224334794999999
7170.0 0.00947370676
7180.0 0.00971811281
7190.0 0.009953567215
7200.0 0.01017659592
7210.0 0.010383957184999999
7220.0 0.0105724859
7230.0 0.010738985914999999
7240.0 0.010880272235
7250.0 0.01099355514
7260.0 0.0110771769
7270.0 0.01113144549
7280.0 0.011159231625
7290.0 0.01116608904
7300.0 0.011159847575
7310.0 0.01114973872
7320.0 0.01114516711
7330.0 0.011154262799999998
7340.0 0.01118247622
7350.0 0.011231563069999999
7360.0 0.011299298655
7370.0 0.01138003418
7380.0 0.01146589082
7390.0 0.01154815652
7400.0 0.011618364150000001
7410.0 0.011668929764999999
7420.0 0.011693575040000001
7430.0 0.01168661529
7440.0 0.011642733944999999
7450.0 0.01155747822
7460.0 0.011428388195
7470.0 0.011256533779999998
7480.0 0.011048075929999998
7490.0 0.010815369049999999
7500.0 0.01057693238
7510.0 0.01035514382
7520.0 0.0101709738
7530.0 0.010037459605
7540.0 0.00995618767
7550.0 0.009919671535
7560.0 0.009917423075
7570.0 0.00994070744
7580.0 0.009983823939999999
7590.0 0.01004385239
7600.0 0.01012088203
7610.0 0.010218248205
7620.0 0.010341294645
7630.0 0.010494525545
7640.0 0.010678505445
7650.0 0.010888084129999998
7660.0 0.011112618275
7670.0 0.011337808624999998
7680.0 0.011548214719999998
7690.0 0.01172959308
7700.0 0.011870621865
7710.0 0.011963894639999998
7720.0 0.012005968389999998
7730.0 0.011996870274999998
7740.0 0.011940088415
7750.0 0.01184182499
7760.0 0.011709892865
7770.0 0.01155239542
7780.0 0.01137635012
7790.0 0.01118652791
7800.0 0.01098483969
7810.0 0.010770515279999998
7820.0 0.01054112386
7830.0 0.010294142459999999
7840.0 0.01002850699
7850.0 0.009745541984999998
7860.0 0.00944889998
7870.0 0.00914364777
7880.0 0.008835013655000001
7890.0 0.008527428595
7900.0 0.008224229875
7910.0 0.007927996239999999
7920.0 0.007640893700000001
7930.0 0.007365992304999999
7940.0 0.007106466379999999
7950.0 0.0068655586349999995
7960.0 0.00664601223
7970.0 0.006449503325
7980.0 0.006276273935
7990.0 0.006125077125
8000.0 0.005993396715
8010.0 0.005878013760000001
8020.0 0.00577543141
8030.0 0.0056817362
8040.0 0.005592616964999999
8050.0 0.0055033823
8060.0 0.00540906823
8070.0 0.005304699625
8080.0 0.005185606905
8090.0 0.005047648169999999
8100.0 0.004887256245
8110.0 0.0047014396985
8120.0 0.0044880158365
8130.0 0.00424627394
8140.0 0.003977974219499999
8150.0 0.0036882735344999995
8160.0 0.0033860315254999997
8170.0 0.0030831167729999994
8180.0 0.0027927544994999997
8190.0 0.002527403191
8200.0 0.002296874349
8210.0 0.0021072686915
8220.0 0.0019609010265000002
8230.0 0.001856969261
8240.0 0.001792521588
8250.0 0.0017633285165
8260.0 0.0017644691880000002
8270.0 0.0017906451715000002
8280.0 0.001836362872
8290.0 0.0018961621594999999
8300.0 0.0019650175125000002
8310.0 0.0020389214245000002
8320.0 0.0021155243614999998
8330.0 0.0021946261155
8340.0 0.00227832727
8350.0 0.002370741692
8360.0 0.0024772952704999996
8370.0 0.0026037435975
8380.0 0.002755118936
8390.0 0.0029348443674999994
8400.0 0.0031441450989999993
8410.0 0.0033818870065
8420.0 0.003644985781
8430.0 0.003928907012
8440.0 0.0042281043365
8450.0 0.0045362923000000005
8460.0 0.00484659239
8470.0 0.005151714135
8480.0 0.0054443384
8490.0 0.00571780274
8500.0 0.005967032115
8510.0 0.0061894793049999995
8520.0 0.006385685570000001
8530.0 0.00655908859
8540.0 0.006715024335
8550.0 0.006859308440000001
8560.0 0.006996987329999999
8570.0 0.007123265325
8580.0 0.0072364182499999995
8590.0 0.007347753879999999
8600.0 0.007457418199999999
8610.0 0.007565247765
8620.0 0.0076710723400000005
8630.0 0.00777475661
8640.0 0.007875989690000001
8650.0 0.00797396163
8660.0 0.008067161654999998
8670.0 0.008153487774999999
8680.0 0.00823069444
8690.0 0.008297021100000001
8700.0 0.008351706305
8710.0 0.008395133204999999
8720.0 0.008428500235
8730.0 0.00845312708
8740.0 0.008469700985
8750.0 0.008477774294999999
8760.0 0.008475712074999999
8770.0 0.008461075260000001
8780.0 0.008431249215
8790.0 0.008384079085000001
8800.0 0.00831832133
8810.0 0.008233841605
8820.0 0.008131590994999998
8830.0 0.008013424625
8840.0 0.00788184267
8850.0 0.007739692079999999
8860.0 0.007589861514999999
8870.0 0.007434991314999999
8880.0 0.007277251855000001
8890.0 0.0071182310249999995
8900.0 0.006958982729999999
8910.0 0.006800223315
8920.0 0.006642599285
8930.0 0.006486929805
8940.0 0.00633434638
8950.0 0.006186296250000001
8960.0 0.006044459455
8970.0 0.005910614004999999
8980.0 0.00578650008
8990.0 0.0056736978099999995
9000.0 0.005573532215
9010.0 0.00548701452
9020.0 0.005414834879999999
9030.0 0.0053573876
9040.0 0.005314819635000001
9050.0 0.005287061629999999
9060.0 0.005273840045
9070.0 0.005274650965
9080.0 0.00528873585
9090.0 0.005315059709999999
9100.0 0.005352341659999999
9110.0 0.00539913737
9120.0 0.005453989415
9130.0 0.005515597024999999
9140.0 0.005582965465
9150.0 0.005655477815
9160.0 0.00573285423
9170.0 0.005815008379999999
