#lamb flux
1000.0 1.1496550580000001e-05
1010.0 1.393160463e-05
1020.0 1.693799935e-05
1030.0 2.063183113e-05
1040.0 2.5157510175e-05
1050.0 3.068035116e-05
1060.0 3.738535782e-05
1070.0 4.547417327e-05
1080.0 5.5159942399999995e-05
1090.0 6.666008779999999e-05
1100.0 8.018731010000001e-05
1110.0 9.593934864999999e-05
1120.0 0.00011408847059999999
1130.0 0.0001347714411
1140.0 0.00015808082724999998
1150.0 0.00018405817415
1160.0 0.00021268931495
1170.0 0.00024390172275000002
1180.0 0.00027756396255
1190.0 0.00031348685524999997
1200.0 0.00035142647009999995
1210.0 0.00039108873705
1220.0 0.00043213570809999996
1230.0 0.00047419336579999997
1240.0 0.000516860814
1250.0 0.0005597204095
1260.0 0.0006023489024999999
1270.0 0.00064432832
1280.0 0.0006852567424999999
1290.0 0.000724758489
1300.0 0.0007624931865000001
1310.0 0.0007981627054999998
1320.0 0.0008315175134999999
1330.0 0.0008623605065
1340.0 0.000890549531
1350.0 0.00091599816
1360.0 0.0009386751595
1370.0 0.0009586022574999999
1380.0 0.0009758512825000001
1390.0 0.0009905399924999999
1400.0 0.0010028268855
1410.0 0.0010129061069999998
1420.0 0.001021000951
1430.0 0.001027357555
1440.0 0.0010322381100000002
1450.0 0.0010359142159999998
1460.0 0.0010386603345
1470.0 0.001040747241
1480.0 0.001042436787
1490.0 0.0010439764195
1500.0 0.0010455955435
1510.0 0.0010475021755
1520.0 0.001049881149
1530.0 0.0010528933385
1540.0 0.0010566755139999999
1550.0 0.0010613416505000002
1560.0 0.0010669845285
1570.0 0.0010736783044999999
1580.0 0.001081480354
1590.0 0.0010904346664999999
1600.0 0.001100573737
1610.0 0.0011119213789999999
1620.0 0.0011244943735
1630.0 0.0011383041665
1640.0 0.0011533582270000001
1650.0 0.001169660823
1660.0 0.0011872134579999998
1670.0 0.0012060150165
1680.0 0.001226061182
1690.0 0.001247343661
1700.0 0.001269848825
1710.0 0.001293555431
1720.0 0.001318432342
1730.0 0.0013444350834999998
1740.0 0.0013715029334999999
1750.0 0.0013995553819999998
1760.0 0.0014284902395
1770.0 0.001458183249
1780.0 0.0014884900745
1790.0 0.001519252218
1800.0 0.001550305992
1810.0 0.001581495275
1820.0 0.0016126855764999999
1830.0 0.0016437777625000001
1840.0 0.0016747179010000001
1850.0 0.0017055002205
1860.0 0.001736159641
1870.0 0.001766753732
1880.0 0.001797333176
1890.0 0.0018279060239999997
1900.0 0.0018583996229999998
1910.0 0.0018886286544999998
1920.0 0.0019182767045
1930.0 0.0019468969425000002
1940.0 0.0019739356925
1950.0 0.001998778314
1960.0 0.0020208110879999996
1970.0 0.002039491057
1980.0 0.002054409463
1990.0 0.002065337774
2000.0 0.002072243398
2010.0 0.0020752697494999996
2020.0 0.0020746803774999998
2030.0 0.0020707774855
2040.0 0.0020638109455
2050.0 0.002053901183
2060.0 0.0020410002315
2070.0 0.0020249092895
2080.0 0.0020053638865
2090.0 0.001982179771
2100.0 0.0019554391020000002
2110.0 0.0019256828484999998
2120.0 0.0018940662319999997
2130.0 0.001862437442
2140.0 0.0018333080995
2150.0 0.0018097035375
2160.0 0.0017949024045
2170.0 0.0017920976494999999
2180.0 0.0018040275825
2190.0 0.0018326338040000002
2200.0 0.0018788001779999996
2210.0 0.0019422148495
2220.0 0.002021376889
2230.0 0.002113744266
2240.0 0.0022159993865
2250.0 0.002324388884
2260.0 0.0024350865935
2270.0 0.002544529414
2280.0 0.0026496847375
2290.0 0.002748223303
2300.0 0.0028385912674999997
2310.0 0.0029199907575
2320.0 0.0029922921325000002
2330.0 0.003055906818
2340.0 0.003111649032
2350.0 0.0031606095395
2360.0 0.003204052202
2370.0 0.0032433366684999996
2380.0 0.0032798590115
2390.0 0.003314999153
2400.0 0.0033500617429999997
2410.0 0.003386202682
2420.0 0.0034243372135
2430.0 0.0034650360369999997
2440.0 0.003508421324
2450.0 0.0035540807759999998
2460.0 0.0036010214039999995
2470.0 0.0036476820415
2480.0 0.003692019626
2490.0 0.0037316727895
2500.0 0.0037641952405000003
2510.0 0.0037873344449999994
2520.0 0.003799320153
2530.0 0.0037991169864999997
2540.0 0.0037865974389999996
2550.0 0.0037626010455
2560.0 0.0037288651244999998
2570.0 0.0036878372769999996
2580.0 0.0036424026225
2590.0 0.0035955746115
2600.0 0.0035502007275
2610.0 0.0035087260495000002
2620.0 0.0034730407194999997
2630.0 0.0034444165044999996
2640.0 0.0034235263905
2650.0 0.003411545387
2660.0 0.0034620507165
2670.0 0.0040731621625
2680.0 0.0055946350499999995
2690.0 0.00677117909
2700.0 0.007303342914999999
2710.0 0.007654437325
2720.0 0.008067822709999999
2730.0 0.008590877265
2740.0 0.009089239499999999
2750.0 0.009413965429999999
2760.0 0.009775069269999999
2770.0 0.01020944206
2780.0 0.010326603995000001
2790.0 0.010125906144999999
2800.0 0.010045941769999999
2810.0 0.01022582924
2820.0 0.01013401389
2830.0 0.00983061923
2840.0 0.01017326882
2850.0 0.011566594764999999
2860.0 0.013753478195
2870.0 0.016160427949999997
2880.0 0.018192402865
2890.0 0.019613933015
2900.0 0.020534235064999996
2910.0 0.021116765654999998
2920.0 0.021318395674999997
2930.0 0.02126751772
2940.0 0.020933409465
2950.0 0.01994259472
2960.0 0.018692909285
2970.0 0.017811626455
2980.0 0.01729974727
2990.0 0.017064703659999996
3000.0 0.017068369774999998
3010.0 0.017002145934999997
3020.0 0.016236328025000003
3030.0 0.01500173676
3040.0 0.01430885121
3050.0 0.01466724584
3060.0 0.015447979924999997
3070.0 0.01564782466
3080.0 0.01506007741
3090.0 0.014412108195
3100.0 0.014676300304999999
3110.0 0.016407541755
3120.0 0.019108809395000002
3130.0 0.021661997805
3140.0 0.023512318395000002
3150.0 0.024852992254999998
3160.0 0.026109916315
3170.0 0.027123486775
3180.0 0.02704252039
3190.0 0.025728041864999995
3200.0 0.024247418345
3210.0 0.02314375477
3220.0 0.021970963174999997
3230.0 0.021151600779999998
3240.0 0.02089763053
3250.0 0.020752667425000003
3260.0 0.02050809696
3270.0 0.020447745014999998
3280.0 0.02092246641
3290.0 0.02168865486
3300.0 0.022294881094999996
3310.0 0.022652674325
3320.0 0.02307318048
3330.0 0.023661727980000002
3340.0 0.024312309889999998
3350.0 0.025032264745
3360.0 0.025928227555
3370.0 0.02708888057
3380.0 0.028539308960000002
3390.0 0.030093133044999998
3400.0 0.031462180859999994
3410.0 0.03250808627
3420.0 0.033313578635
3430.0 0.034065290805
3440.0 0.03488940911
3450.0 0.035815580629999996
3460.0 0.0369087134
3470.0 0.03836214976
3480.0 0.04042540766
3490.0 0.04327052048
3500.0 0.046449624184999996
3510.0 0.04919182825
3520.0 0.05154094515
3530.0 0.053882573649999994
3540.0 0.05610967425
3550.0 0.05796150125
3560.0 0.05932129575
3570.0 0.06020840924999999
3580.0 0.06051230055
3590.0 0.059989839149999995
3600.0 0.0590685477
3610.0 0.05886482345
3620.0 0.05980402595
3630.0 0.06169677240000001
3640.0 0.06451112555
3650.0 0.06836836935
3660.0 0.0725844501
3670.0 0.07558332635
3680.0 0.07614041675
3690.0 0.0740464147
3700.0 0.0700601221
3710.0 0.0654252196
3720.0 0.06115282550000001
3730.0 0.05762719560000001
3740.0 0.05474009245
3750.0 0.0523048735
3760.0 0.050277709299999994
3770.0 0.0487546153
3780.0 0.047993920929999996
3790.0 0.04835894745
3800.0 0.050181708400000004
3810.0 0.05366513359999999
3820.0 0.058866981699999994
3830.0 0.06573460595
3840.0 0.074108873
3850.0 0.08363557279999999
3860.0 0.09364530835
3870.0 0.1032548607
3880.0 0.11173328634999999
3890.0 0.11875457314999999
3900.0 0.12431511269999998
3910.0 0.1285867017
3920.0 0.13188277140000002
3930.0 0.13451326105
3940.0 0.13635898675
3950.0 0.1366455781
3960.0 0.1344602166
3970.0 0.12959761145
3980.0 0.12274874699999999
3990.0 0.11501364689999999
4000.0 0.10747805640000001
4010.0 0.10104584575
4020.0 0.09629117734999999
4030.0 0.0933444192
4040.0 0.09191626879999999
4050.0 0.09141388639999999
4060.0 0.0911326058
4070.0 0.09053897065000001
4080.0 0.08949049765
4090.0 0.0882176782
4100.0 0.0870874051
4110.0 0.08638193864999999
4120.0 0.0862467255
4130.0 0.0867588855
4140.0 0.0879795432
4150.0 0.08989810620000001
4160.0 0.09230131999999999
4170.0 0.0947292688
4180.0 0.09663797175
4190.0 0.0976688926
4200.0 0.09779692775
4210.0 0.09725364045
4220.0 0.09634706875
4230.0 0.09533945214999999
4240.0 0.09441837410000001
4250.0 0.09371485735
4260.0 0.09330886385
4270.0 0.0932041572
4280.0 0.09327226574999999
4290.0 0.09322876125
4300.0 0.0926836649
4310.0 0.09124104695000002
4320.0 0.08862178505000001
4330.0 0.08479183704999999
4340.0 0.08002419975
4350.0 0.07481805940000001
4360.0 0.06971283785
4370.0 0.06512860814999999
4380.0 0.0613208683
4390.0 0.0584299094
4400.0 0.05654726064999999
4410.0 0.05574018185
4420.0 0.05603327219999999
4430.0 0.05737715385
4440.0 0.05962967814999999
4450.0 0.0626009288
4460.0 0.06615703124999998
4470.0 0.07030735569999999
4480.0 0.0752121801
4490.0 0.08113031015
4500.0 0.08834949149999999
4510.0 0.09708721755
4520.0 0.10734448255000001
4530.0 0.11878083105
4540.0 0.13072042525
4550.0 0.14231680919999998
4560.0 0.15279711115
4570.0 0.16165391925
4580.0 0.1686652102
4590.0 0.17372728129999998
4600.0 0.1766454293
4610.0 0.17703797375
4620.0 0.17443396025
4630.0 0.168566891
4640.0 0.1596291849
4650.0 0.14831278175
4660.0 0.1356745596
4670.0 0.12291265275
4680.0 0.1110926547
4690.0 0.10091239315000002
4700.0 0.09261830145
4710.0 0.0860992564
4720.0 0.0810794579
4730.0 0.07730176864999999
4740.0 0.07463686824999999
4750.0 0.07309080949999999
4760.0 0.07270491439999999
4770.0 0.0734057297
4780.0 0.0749116547
4790.0 0.07677617899999999
4800.0 0.07852933275
4810.0 0.07982343885000001
4820.0 0.08054532255
4830.0 0.0808669212
4840.0 0.08119310795
4850.0 0.08200122465
4860.0 0.0836478045
4870.0 0.0862523321
4880.0 0.08969339739999999
4890.0 0.0936541984
4900.0 0.09766129265
4910.0 0.10113853895000001
4920.0 0.1035162175
4930.0 0.10437109789999999
4940.0 0.10352822610000001
4950.0 0.10108263784999999
4960.0 0.09735621794999999
4970.0 0.09283058109999999
4980.0 0.0880578998
4990.0 0.08353777255
5000.0 0.07960876815000001
5010.0 0.07640530435
5020.0 0.07389995925000001
5030.0 0.07198745875
5040.0 0.0705504183
5050.0 0.06948397605000001
5060.0 0.0686963215
5070.0 0.06811443789999999
5080.0 0.0677077654
5090.0 0.067512582
5100.0 0.06762918570000001
5110.0 0.06818999120000001
5120.0 0.06932614734999999
5130.0 0.07115204625
5140.0 0.07375670965
5150.0 0.0771851892
5160.0 0.0814155726
5170.0 0.0863491866
5180.0 0.09181833275000001
5190.0 0.09759966854999999
5200.0 0.10342934914999999
5210.0 0.10903838385
5220.0 0.1141906698
5230.0 0.1187132948
5240.0 0.1225079348
5250.0 0.125542832
5260.0 0.12783309415
5270.0 0.1294177783
5280.0 0.1303407818
5290.0 0.13064461005
5300.0 0.1303840341
5310.0 0.1296541382
5320.0 0.12861194110000002
5330.0 0.12746767574999998
5340.0 0.1264383263
5350.0 0.12568266235
5360.0 0.1252540533
5370.0 0.12509717035
5380.0 0.12508529755
5390.0 0.12507251295
5400.0 0.1249191608
5410.0 0.12450078039999998
5420.0 0.1237157691
5430.0 0.12250109144999999
5440.0 0.12085232909999999
5450.0 0.1188317221
5460.0 0.11655148975
5470.0 0.1141421795
5480.0 0.11173043939999999
5490.0 0.10941926889999999
5500.0 0.1072301244
5510.0 0.105048284
5520.0 0.10269277964999998
5530.0 0.1000667035
5540.0 0.09719661899999998
5550.0 0.09414979080000001
5560.0 0.09097257519999999
5570.0 0.0876967494
5580.0 0.0843637421
5590.0 0.08103162235
5600.0 0.07776331405
5610.0 0.07461168705
5620.0 0.0716118311
5630.0 0.06878669155
5640.0 0.06615844744999999
5650.0 0.06375581565
5660.0 0.06161669890000001
5670.0 0.05979133835
5680.0 0.058345849199999994
5690.0 0.0573595629
5700.0 0.05691128225000001
5710.0 0.05705834394999999
5720.0 0.057819178000000006
5730.0 0.059168928149999994
5740.0 0.061051421700000004
5750.0 0.06340277444999999
5760.0 0.0661747871
5770.0 0.06934395169999999
5780.0 0.07289741575000001
5790.0 0.0767997888
5800.0 0.0809576356
5810.0 0.0852025205
5820.0 0.089303729
5830.0 0.0930040462
5840.0 0.0960610206
5850.0 0.098282437
5860.0 0.09955444165
5870.0 0.09986170855000001
5880.0 0.09928771589999999
5890.0 0.09798078155
5900.0 0.09609806975
5910.0 0.0937657581
5920.0 0.0910835432
5930.0 0.08815959459999999
5940.0 0.08513266595
5950.0 0.0821537814
5960.0 0.0793412858
5970.0 0.0767459538
5980.0 0.07435087829999999
5990.0 0.07210334950000001
6000.0 0.0699568365
6010.0 0.0678986808
6020.0 0.06594849095000001
6030.0 0.06412823745
6040.0 0.062422017149999995
6050.0 0.06075240465
6060.0 0.0589927034
6070.0 0.0570141847
6080.0 0.0547440161
6090.0 0.052203042899999996
6100.0 0.049508669049999995
6110.0 0.04684822289
6120.0 0.044439183755
6130.0 0.04249020009999999
6140.0 0.04116845482
6150.0 0.040574284715
6160.0 0.040725217684999995
6170.0 0.04155428299
6180.0 0.04292637709
6190.0 0.044670439029999995
6200.0 0.046618185934999994
6210.0 0.04863733745
6220.0 0.05064977705
6230.0 0.05263096325
6240.0 0.05459390374999999
6250.0 0.05656659275
6260.0 0.05857358094999999
6270.0 0.06062816705
6280.0 0.06273056444999998
6290.0 0.06485753194999999
6300.0 0.06694075245
6310.0 0.06886529549999999
6320.0 0.07051757894999999
6330.0 0.07184878755
6340.0 0.0728887003
6350.0 0.0737037234
6360.0 0.07435399684999999
6370.0 0.07488003755
6380.0 0.07530795304999999
6390.0 0.07565519365
6400.0 0.07593207045
6410.0 0.07614236645
6420.0 0.076285553
6430.0 0.0763597871
6440.0 0.0763632888
6450.0 0.0762931966
6460.0 0.07614348195
6470.0 0.07590417325
6480.0 0.07556245194999998
6490.0 0.07510399115000001
6500.0 0.0745136637
6510.0 0.07377632305
6520.0 0.07287843769999999
6530.0 0.07181005060000001
6540.0 0.07056521565
6550.0 0.0691405427
6560.0 0.06753413055
6570.0 0.06574776885
6580.0 0.06379483874999999
6590.0 0.06170695254999999
6600.0 0.059533381399999995
6610.0 0.057332344699999996
6620.0 0.055158734749999994
6630.0 0.05305459619999999
6640.0 0.051045488550000004
6650.0 0.04914209635
6660.0 0.0473445651
6670.0 0.045647710635
6680.0 0.044045888525
6690.0 0.042536572405
6700.0 0.041121734284999996
6710.0 0.039806552994999994
6720.0 0.03859616711
6730.0 0.037492446789999995
6740.0 0.03649282299
6750.0 0.03559173955
6760.0 0.03478325716
6770.0 0.034062665015
6780.0 0.03342633288999999
6790.0 0.032871138354999996
6800.0 0.03239484459
6810.0 0.031996388475
6820.0 0.03167400655
6830.0 0.03142188609
6840.0 0.031228874520000005
6850.0 0.031080750185000002
6860.0 0.030963826385
6870.0 0.030867653794999998
6880.0 0.030785421560000005
6890.0 0.030712501325
6900.0 0.030644374830000005
6910.0 0.030575359814999998
6920.0 0.030499108115
6930.0 0.030410832294999995
6940.0 0.030309867905
6950.0 0.030200520289999994
6960.0 0.030089950959999997
6970.0 0.029983926564999996
6980.0 0.029883182364999997
6990.0 0.029783123954999997
7000.0 0.029677439059999998
7010.0 0.02956345048
7020.0 0.02944586514
7030.0 0.029336662540000003
7040.0 0.029251338914999998
7050.0 0.029203703185
7060.0 0.029201724385
7070.0 0.029245742015
7080.0 0.029328851615
7090.0 0.029438591594999997
7100.0 0.029559223219999996
7110.0 0.02967428947
7120.0 0.029769223369999997
7130.0 0.02983348199
7140.0 0.029861948580000002
7150.0 0.029855285165
7160.0 0.029819518355
7170.0 0.029765427274999996
7180.0 0.029707536219999997
7190.0 0.02966189578
7200.0 0.029642537005
7210.0 0.029658181649999997
7220.0 0.029711083995
7230.0 0.029797945069999998
7240.0 0.029911197905
7250.0 0.030039721449999997
7260.0 0.030169623365
7270.0 0.030285831305
7280.0 0.030374176964999996
7290.0 0.03042312268
7300.0 0.030424637334999997
7310.0 0.030374360295000003
7320.0 0.030271488884999996
7330.0 0.030118645014999997
7340.0 0.029921617159999997
7350.0 0.029688625099999998
7360.0 0.029428893050000002
7370.0 0.02915072712
7380.0 0.02885943418
7390.0 0.02855495894
7400.0 0.02822853842
7410.0 0.027858839410000003
7420.0 0.027412491
7430.0 0.026856534044999998
7440.0 0.02618331573
7450.0 0.0254314406
7460.0 0.02467977305
7470.0 0.02401210847
7480.0 0.023479377195
7490.0 0.023088196565000003
7500.0 0.022817307575
7510.0 0.022640993585
7520.0 0.022541796535
7530.0 0.02251053974
7540.0 0.022540607315
7550.0 0.022622721695
7560.0 0.02274282079
7570.0 0.022883095884999996
7580.0 0.023025032105
7590.0 0.02315270302
7600.0 0.023254916285
7610.0 0.023326860215
7620.0 0.023367333950000003
7630.0 0.023379296475
7640.0 0.023370167320000003
7650.0 0.023350250309999997
7660.0 0.023331192719999998
7670.0 0.023324083589999996
7680.0 0.023337631095000002
7690.0 0.023376749739999998
7700.0 0.023441648559999997
7710.0 0.023527480465
7720.0 0.023624875254999997
7730.0 0.023721702109999996
7740.0 0.023805547939999998
7750.0 0.023866866489999996
7760.0 0.023901685609999997
7770.0 0.023912770769999998
7780.0 0.023908741874999997
7790.0 0.02390142759
7800.0 0.023902335025
7810.0 0.023919293535
7820.0 0.02395410732
7830.0 0.02400170425
7840.0 0.024050875004999996
7850.0 0.024086402224999998
7860.0 0.024092023375
7870.0 0.02405339458
7880.0 0.0239602028
7890.0 0.023806921945
7900.0 0.02359229538
7910.0 0.02331810548
7920.0 0.02298783115
7930.0 0.02260546879
7940.0 0.022174481785000002
7950.0 0.021696998314999997
7960.0 0.021173863735
7970.0 0.020606327405
7980.0 0.019999294615
7990.0 0.019364447075000003
8000.0 0.018720616364999998
8010.0 0.01809001015
8020.0 0.0174919809
8030.0 0.01693779274
8040.0 0.016428525765
8050.0 0.015956299695
8060.0 0.015507573814999998
8070.0 0.01506717005
8080.0 0.014622005525
8090.0 0.014163724175
8100.0 0.013689717184999999
8110.0 0.013202521104999998
8120.0 0.012708117924999998
8130.0 0.01221410032
8140.0 0.01172858137
8150.0 0.01126012472
8160.0 0.010818378475
8170.0 0.010414936074999999
8180.0 0.010064055064999999
8190.0 0.00978283994
8200.0 0.00959033859
8210.0 0.009505161435
8220.0 0.009541812399999999
8230.0 0.009706760414999998
8240.0 0.009993331880000001
8250.0 0.01038538551
8260.0 0.010861422224999999
8270.0 0.011393628729999997
8280.0 0.01195569329
8290.0 0.012527142115
8300.0 0.013095733319999999
8310.0 0.013657826495
8320.0 0.014217354020000001
8330.0 0.01478420068
8340.0 0.015372500830000002
8350.0 0.01599891907
8360.0 0.016680752925
8370.0 0.017433773139999997
8380.0 0.018270009655
8390.0 0.019195922185
8400.0 0.020211398210000002
8410.0 0.021309699625
8420.0 0.022478167445
8430.0 0.023699347975
8440.0 0.02495237506
8450.0 0.026214747610000002
8460.0 0.02746460231
8470.0 0.02868320458
8480.0 0.029856983635
8490.0 0.030978406455
8500.0 0.032045418095
8510.0 0.03305974855
8520.0 0.03402469776
8530.0 0.034943018585
8540.0 0.035815379355
8550.0 0.036639789629999996
8560.0 0.037412171529999996
8570.0 0.0381279258
8580.0 0.038783843680000006
8590.0 0.039379426105
8600.0 0.039916871095
8610.0 0.040399776864999994
8620.0 0.040831594189999994
8630.0 0.04121523598
8640.0 0.041554310634999994
8650.0 0.041854639125
8660.0 0.04212386505
8670.0 0.042368426785
8680.0 0.04258986954
8690.0 0.042783532465
8700.0 0.04294076607
8710.0 0.043052948995
8720.0 0.043114472699999996
8730.0 0.04312314159
8740.0 0.043078463875
8750.0 0.042979423965
8760.0 0.04282320789
8770.0 0.04260553213
8780.0 0.042322340145
8790.0 0.04197203289
8800.0 0.04155718329
8810.0 0.041084932484999996
8820.0 0.040565831164999996
8830.0 0.040011523695
8840.0 0.03943213154
8850.0 0.038834264764999994
8860.0 0.038220319755
8870.0 0.037589207685
8880.0 0.03693818491
8890.0 0.03626516302
8900.0 0.035570864179999995
8910.0 0.03486034597
8920.0 0.03414360812
8930.0 0.033435124969999994
8940.0 0.03275220665499999
8950.0 0.032112233149999996
8960.0 0.0315291322
8970.0 0.031009905749999997
8980.0 0.030552397004999995
8990.0 0.030145422835
9000.0 0.02977174828
9010.0 0.029413279445
9020.0 0.029056784560000003
9030.0 0.028697997080000003
9040.0 0.02834240963
9050.0 0.028002365945
9060.0 0.027691626929999998
9070.0 0.027419645235
9080.0 0.027187813779999997
9090.0 0.02698888133
9100.0 0.026809183495
9110.0 0.026632220575
9120.0 0.026441944405
9130.0 0.026224822515000003
9140.0 0.025970657294999998
9150.0 0.025672723735
9160.0 0.025327871274999997
9170.0 0.024936954485
9180.0 0.024505503819999996
9190.0 0.024044186854999997
9200.0 0.023568440655
9210.0 0.023096809194999998
9220.0 0.02264787428
9230.0 0.022236157779999998
9240.0 0.021868021924999998
9250.0 0.02153923218
9260.0 0.021236070805
9270.0 0.020940889135
9280.0 0.020640491775000002
9290.0 0.020333139030000003
9300.0 0.020029712359999997
9310.0 0.01974788953
9320.0 0.019502945615
9330.0 0.019300886854999998
