#lamb flux
1000.0 9.5677855e-06
1010.0 1.15927182e-05
1020.0 1.4091821800000001e-05
1030.0 1.71609984e-05
1040.0 2.09193943e-05
1050.0 2.55031266e-05
1060.0 3.10641317e-05
1070.0 3.7767471e-05
1080.0 4.5786876100000006e-05
1090.0 5.5298553800000004e-05
1100.0 6.64734917e-05
1110.0 7.9468809e-05
1120.0 9.4418828e-05
1130.0 0.00011142668600000001
1140.0 0.00013055704900000002
1150.0 0.000151830525
1160.0 0.00017521987700000002
1170.0 0.000200648077
1180.0 0.00022798814500000003
1190.0 0.000257064577
1200.0 0.00028765633400000003
1210.0 0.00031950125200000005
1220.0 0.000352301866
1230.0 0.0003857326340000001
1240.0 0.0004194481690000001
1250.0 0.000453092381
1260.0 0.0004863081300000001
1270.0 0.0005187468300000001
1280.0 0.000550077787
1290.0 0.0005799966480000001
1300.0 0.000608232807
1310.0 0.0006345553830000001
1320.0 0.000658777735
1330.0 0.0006807603600000001
1340.0 0.0007004123000000001
1350.0 0.00071769124
1360.0 0.0007326019400000001
1370.0 0.0007451940300000001
1380.0 0.00075555865
1390.0 0.0007638243200000001
1400.0 0.00077015197
1410.0 0.00077473011
1420.0 0.00077776881
1430.0 0.0007794945900000001
1440.0 0.00078014405
1450.0 0.0007799585500000001
1460.0 0.0007791784700000001
1470.0 0.0007780383100000001
1480.0 0.0007767620000000001
1490.0 0.0007755590500000001
1500.0 0.0007746214
1510.0 0.00077412139
1520.0 0.00077421015
1530.0 0.00077501746
1540.0 0.0007766521
1550.0 0.0007792029700000001
1560.0 0.00078274084
1570.0 0.0007873205900000001
1580.0 0.0007929833100000001
1590.0 0.0007997591700000001
1600.0 0.00080766889
1610.0 0.00081672668
1620.0 0.0008269412900000001
1630.0 0.00083831769
1640.0 0.00085085756
1650.0 0.0008645600600000001
1660.0 0.0008794209900000002
1670.0 0.0008954320200000002
1680.0 0.0009125786600000001
1690.0 0.0009308371800000002
1700.0 0.0009501695700000002
1710.0 0.00097051773
1720.0 0.00099179472
1730.0 0.0010138754500000002
1740.0 0.00103658548
1750.0 0.0010596910799999999
1760.0 0.00108289132
1770.0 0.0011058156899999999
1780.0 0.0011280305400000001
1790.0 0.00114905763
1800.0 0.00116840612
1810.0 0.0011856204500000002
1820.0 0.0012003390000000001
1830.0 0.0012123601
1840.0 0.0012217060100000003
1850.0 0.00122867381
1860.0 0.00123386228
1870.0 0.0012381659500000002
1880.0 0.0012427317000000002
1890.0 0.0012488798
1900.0 0.00125799737
1910.0 0.0012714198
1920.0 0.0012903167200000003
1930.0 0.00131560149
1940.0 0.00134787625
1950.0 0.0013874208600000001
1960.0 0.00143422209
1970.0 0.00148803361
1980.0 0.0015484511000000002
1990.0 0.0016149835800000002
2000.0 0.00168710689
2010.0 0.0017642867900000002
2020.0 0.0018459704900000002
2030.0 0.0019315491300000002
2040.0 0.00202030108
2050.0 0.0021113272600000003
2060.0 0.0022034913600000004
2070.0 0.00229537392
2080.0 0.0023852514000000003
2090.0 0.00247110423
2100.0 0.0025506634300000003
2110.0 0.00262149839
2120.0 0.0026811502900000003
2130.0 0.00272730815
2140.0 0.00275801554
2150.0 0.0027718899600000005
2160.0 0.00276832185
2170.0 0.0027476216600000004
2180.0 0.0027110806800000006
2190.0 0.00266092631
2200.0 0.00260016414
2210.0 0.0025323268600000006
2220.0 0.0024611612200000003
2230.0 0.0023903024600000003
2240.0 0.0023229840200000005
2250.0 0.00226182418
2260.0 0.0022087139899999997
2270.0 0.0021648105500000005
2280.0 0.0021306199600000003
2290.0 0.00210613851
2300.0 0.00209101571
2310.0 0.00208470241
2320.0 0.00208655643
2330.0 0.0020958931
2340.0 0.00211198246
2350.0 0.0021340073300000002
2360.0 0.0021610082200000003
2370.0 0.0021918395100000002
2380.0 0.0022251619600000003
2390.0 0.0022594823300000006
2400.0 0.00229324151
2410.0 0.00232493702
2420.0 0.0023532565000000004
2430.0 0.0023771949600000005
2440.0 0.0023961293300000003
2450.0 0.0024098347000000003
2460.0 0.00241843973
2470.0 0.0024223299800000004
2480.0 0.00242202457
2490.0 0.00241805305
2500.0 0.0024108595
2510.0 0.0024007547900000005
2520.0 0.0023879228100000005
2530.0 0.00237247395
2540.0 0.00235452707
2550.0 0.00233429469
2560.0 0.00231214893
2570.0 0.00228864804
2580.0 0.00226452135
2590.0 0.00224061446
2600.0 0.00221781238
2610.0 0.0021969558100000002
2620.0 0.0021787678500000004
2630.0 0.0021638027600000003
2640.0 0.0021524206900000007
2650.0 0.0021450520700000003
2660.0 0.0021555850400000005
2670.0 0.00231356881
2680.0 0.0027266386
2690.0 0.0031519097400000006
2700.0 0.0035273707700000006
2710.0 0.003781194410000001
2720.0 0.00403171461
2730.0 0.0043893130399999996
2740.0 0.00467691434
2750.0 0.00474730844
2760.0 0.004697570220000001
2770.0 0.00469456911
2780.0 0.004772056870000001
2790.0 0.004887527680000001
2800.0 0.00510827772
2810.0 0.0053669658700000004
2820.0 0.00550528594
2830.0 0.0055210460900000004
2840.0 0.005493646480000001
2850.0 0.005714233490000001
2860.0 0.006512792020000001
2870.0 0.0076696970000000005
2880.0 0.008436974
2890.0 0.0086066295
2900.0 0.009006074700000002
2910.0 0.009718035600000001
2920.0 0.0102173099
2930.0 0.010417586900000001
2940.0 0.010508102500000002
2950.0 0.010370087000000002
2960.0 0.009872867200000001
2970.0 0.009207075500000002
2980.0 0.008644259400000001
2990.0 0.008016187900000001
3000.0 0.007087780700000002
3010.0 0.00636491786
3020.0 0.00624546832
3030.0 0.00651965048
3040.0 0.006741046970000001
3050.0 0.006933296440000001
3060.0 0.007325172400000001
3070.0 0.0075491066
3080.0 0.007404961200000001
3090.0 0.0074045531
3100.0 0.00780801
3110.0 0.008312136000000001
3120.0 0.008749127100000002
3130.0 0.009425929100000003
3140.0 0.0102868675
3150.0 0.010602481400000002
3160.0 0.010090762500000001
3170.0 0.0092660729
3180.0 0.0087688755
3190.0 0.009178236200000002
3200.0 0.010899219100000001
3210.0 0.0133016107
3220.0 0.014615972000000001
3230.0 0.014123153800000001
3240.0 0.0127526098
3250.0 0.011554867100000001
3260.0 0.0109571756
3270.0 0.011002075700000002
3280.0 0.0113586228
3290.0 0.011484815300000001
3300.0 0.0113965978
3310.0 0.011500909
3320.0 0.011717841100000001
3330.0 0.011875875900000001
3340.0 0.011836755700000002
3350.0 0.011630772300000002
3360.0 0.011586899800000001
3370.0 0.011873997800000001
3380.0 0.01248583
3390.0 0.0133565698
3400.0 0.0142960909
3410.0 0.014998808300000003
3420.0 0.015337464100000002
3430.0 0.0154311115
3440.0 0.015508887100000002
3450.0 0.015715788200000004
3460.0 0.016068500700000002
3470.0 0.0165811933
3480.0 0.017280057200000004
3490.0 0.018211403700000003
3500.0 0.0193515336
3510.0 0.020591377100000002
3520.0 0.021832834100000004
3530.0 0.0229533892
3540.0 0.023887238200000004
3550.0 0.024713078600000004
3560.0 0.025511794
3570.0 0.026272223600000002
3580.0 0.0268941988
3590.0 0.027272588000000004
3600.0 0.027338039400000003
3610.0 0.027102374600000003
3620.0 0.027035477700000005
3630.0 0.027837605600000002
3640.0 0.029532692000000003
3650.0 0.031633967400000004
3660.0 0.033672346400000004
3670.0 0.03526943
3680.0 0.036118542600000005
3690.0 0.0360274712
3700.0 0.034985643000000004
3710.0 0.033190822
3720.0 0.0309805496
3730.0 0.028651077
3740.0 0.0263216303
3750.0 0.024015511800000004
3760.0 0.021830668300000005
3770.0 0.0199781407
3780.0 0.0187035366
3790.0 0.0182091322
3800.0 0.018609483200000002
3810.0 0.019948769400000003
3820.0 0.022221878
3830.0 0.0253357461
3840.0 0.029117794300000003
3850.0 0.033350709
3860.0 0.037756139400000006
3870.0 0.0420114695
3880.0 0.04586592150000001
3890.0 0.04923166710000001
3900.0 0.052149480600000006
3910.0 0.05471218760000001
3920.0 0.05701856440000001
3930.0 0.0591268727
3940.0 0.06097357350000001
3950.0 0.06232006410000001
3960.0 0.0628473097
3970.0 0.0623559209
3980.0 0.06087589690000001
3990.0 0.058638701800000005
4000.0 0.056011928
4010.0 0.053418292900000004
4020.0 0.0512100127
4030.0 0.0495535502
4040.0 0.048405448000000004
4050.0 0.0475816467
4060.0 0.046861969
4070.0 0.04608831710000001
4080.0 0.045231071899999996
4090.0 0.0443758161
4100.0 0.0436345525
4110.0 0.0430727339
4120.0 0.0427102424
4130.0 0.042569676800000004
4140.0 0.042709226700000005
4150.0 0.043189469400000007
4160.0 0.043987398700000006
4170.0 0.044946224400000005
4180.0 0.045841567800000003
4190.0 0.04652114810000001
4200.0 0.04697526190000001
4210.0 0.0472822917
4220.0 0.047527052300000004
4230.0 0.0477825341
4240.0 0.0481302388
4250.0 0.0486586401
4260.0 0.0494304118
4270.0 0.05044321100000001
4280.0 0.051604918400000005
4290.0 0.052729532800000006
4300.0 0.0535565744
4310.0 0.0537999497
4320.0 0.0532296653
4330.0 0.05176771040000001
4340.0 0.049538069700000006
4350.0 0.046818300900000005
4360.0 0.0439255103
4370.0 0.0411236931
4380.0 0.0385983815
4390.0 0.036477745500000006
4400.0 0.0348561822
4410.0 0.0337981217
4420.0 0.033327809900000005
4430.0 0.03342213210000001
4440.0 0.03402239260000001
4450.0 0.0350692188
4460.0 0.0365399545
4470.0 0.0384596975
4480.0 0.0408912455
4490.0 0.043930090399999996
4500.0 0.04769702000000001
4510.0 0.05229243670000001
4520.0 0.057722954100000015
4530.0 0.063862554
4540.0 0.070464436
4550.0 0.07718557000000001
4560.0 0.083628979
4570.0 0.08942916499999999
4580.0 0.094329592
4590.0 0.09817589600000001
4600.0 0.1008385
4610.0 0.10214582
4620.0 0.10188124100000001
4630.0 0.09981451900000002
4640.0 0.095773643
4650.0 0.08985638900000001
4660.0 0.08268558200000001
4670.0 0.075222616
4680.0 0.06821421320000001
4690.0 0.06201109110000001
4700.0 0.0567516677
4710.0 0.05248430810000001
4720.0 0.04920857130000001
4730.0 0.046914996800000004
4740.0 0.04561196500000001
4750.0 0.0453176598
4760.0 0.046007915100000005
4770.0 0.0475465382
4780.0 0.049654734500000006
4790.0 0.051949879100000006
4800.0 0.054038427800000004
4810.0 0.055638094400000004
4820.0 0.05668686170000001
4830.0 0.05738004230000001
4840.0 0.05809094410000001
4850.0 0.059213595
4860.0 0.061049371600000006
4870.0 0.06377360360000002
4880.0 0.06740049050000001
4890.0 0.07173504100000001
4900.0 0.076364043
4910.0 0.08070210400000001
4920.0 0.084092708
4930.0 0.08595556200000001
4940.0 0.08593690000000001
4950.0 0.08400385
4960.0 0.08044934100000001
4970.0 0.07580904800000002
4980.0 0.070722246
4990.0 0.0657784351
5000.0 0.061387218900000005
5010.0 0.05771987340000001
5020.0 0.054762687000000004
5030.0 0.0524270285
5040.0 0.050606936100000006
5050.0 0.0491861783
5060.0 0.0480541747
5070.0 0.0471314179
5080.0 0.0463810256
5090.0 0.04580333870000001
5100.0 0.0454242089
5110.0 0.045286785600000004
5120.0 0.0454462078
5130.0 0.04595955560000001
5140.0 0.046871251700000005
5150.0 0.04820482170000001
5160.0 0.049966833700000005
5170.0 0.0521532487
5180.0 0.05474465850000001
5190.0 0.05769339240000001
5200.0 0.0609182147
5210.0 0.0643154638
5220.0 0.0677832428
5230.0 0.07123991
5240.0 0.07462492800000001
5250.0 0.077881538
5260.0 0.080931753
5270.0 0.083661606
5280.0 0.08593179000000001
5290.0 0.08761347700000001
5300.0 0.08863430100000001
5310.0 0.08901622100000002
5320.0 0.08889251000000001
5330.0 0.08849672300000001
5340.0 0.088122818
5350.0 0.08806684599999999
5360.0 0.088569943
5370.0 0.089782126
5380.0 0.09175510399999999
5390.0 0.09445807000000002
5400.0 0.097799072
5410.0 0.10164294000000001
5420.0 0.10581944100000001
5430.0 0.11012997800000002
5440.0 0.11436182100000002
5450.0 0.118310619
5460.0 0.12180601300000002
5470.0 0.12473180300000002
5480.0 0.127032815
5490.0 0.12870340000000002
5500.0 0.12975825800000002
5510.0 0.13020387100000003
5520.0 0.1300376
5530.0 0.12926900700000002
5540.0 0.12792967600000002
5550.0 0.126064589
5560.0 0.123723523
5570.0 0.12095625500000001
5580.0 0.117805877
5590.0 0.11430472200000001
5600.0 0.11048033500000001
5610.0 0.10636964100000001
5620.0 0.10203273500000001
5630.0 0.09755886000000003
5640.0 0.09306288600000003
5650.0 0.08867588100000003
5660.0 0.08453473000000002
5670.0 0.080774197
5680.0 0.07752273200000001
5690.0 0.07490083300000001
5700.0 0.07301672000000001
5710.0 0.07195343400000001
5720.0 0.071748817
5730.0 0.07237974100000001
5740.0 0.073763375
5750.0 0.07577603600000002
5760.0 0.07827707300000002
5770.0 0.08112337800000001
5780.0 0.08417058300000002
5790.0 0.08726777500000002
5800.0 0.09025692900000001
5810.0 0.09298318400000001
5820.0 0.09531218200000001
5830.0 0.09714393500000001
5840.0 0.09841563900000001
5850.0 0.09909312000000002
5860.0 0.09915796100000002
5870.0 0.09860304300000002
5880.0 0.09743515600000001
5890.0 0.09567511100000001
5900.0 0.09335195800000001
5910.0 0.09050140400000001
5920.0 0.08718086300000001
5930.0 0.08349646200000002
5940.0 0.07961886800000001
5950.0 0.075767209
5960.0 0.072162664
5970.0 0.068975438
5980.0 0.0662913426
5990.0 0.0641097478
6000.0 0.06236751990000001
6010.0 0.06097471520000001
6020.0 0.0598465119
6030.0 0.0589195719
6040.0 0.0581490945
6050.0 0.0574931224
6060.0 0.056897332800000006
6070.0 0.05629166270000001
6080.0 0.0556036537
6090.0 0.054781566
6100.0 0.0538165285
6110.0 0.05275525220000001
6120.0 0.051698572100000006
6130.0 0.05078442810000001
6140.0 0.0501567843
6150.0 0.0499264311
6160.0 0.050135502900000004
6170.0 0.05073992980000001
6180.0 0.051618301700000015
6190.0 0.05260470740000001
6200.0 0.0535339826
6210.0 0.05428415580000001
6220.0 0.05480313440000001
6230.0 0.05511341710000001
6240.0 0.0552973743
6250.0 0.0554720929
6260.0 0.0557633853
6270.0 0.056284768400000004
6280.0 0.057123271100000005
6290.0 0.058331707000000003
6300.0 0.05992659890000001
6310.0 0.06189160250000001
6320.0 0.0641863124
6330.0 0.06675849110000001
6340.0 0.06955558960000001
6350.0 0.07253086400000001
6360.0 0.07564256000000001
6370.0 0.07884780400000002
6380.0 0.08209546100000001
6390.0 0.085322832
6400.0 0.08845837700000002
6410.0 0.09142938
6420.0 0.09417108400000002
6430.0 0.09663402
6440.0 0.09878763300000001
6450.0 0.10061984800000001
6460.0 0.102132898
6470.0 0.10333646400000002
6480.0 0.10424052100000002
6490.0 0.104850354
6500.0 0.105165333
6510.0 0.10518085900000002
6520.0 0.10489147900000001
6530.0 0.10429294400000001
6540.0 0.10338216000000001
6550.0 0.10215548700000002
6560.0 0.10060711500000001
6570.0 0.09872933700000003
6580.0 0.09651559400000001
6590.0 0.09396622900000001
6600.0 0.09109591400000003
6610.0 0.08793980300000001
6620.0 0.08455602400000002
6630.0 0.08102350900000001
6640.0 0.0774354
6650.0 0.07388960600000001
6660.0 0.07047842900000001
6670.0 0.06727916020000002
6680.0 0.06434754200000001
6690.0 0.061714779000000004
6700.0 0.059388038500000004
6710.0 0.057353574600000005
6720.0 0.055581919400000006
6730.0 0.05403478290000001
6740.0 0.0526726956
6750.0 0.051461328800000004
6760.0 0.0503746971
6770.0 0.0493953971
6780.0 0.0485135938
6790.0 0.047725735400000004
6800.0 0.0470325268
6810.0 0.046436088300000004
6820.0 0.045937318000000005
6830.0 0.0455338744
6840.0 0.0452182997
6850.0 0.04497666040000001
6860.0 0.0447891164
6870.0 0.0446326209
6880.0 0.044484568800000006
6890.0 0.04432593270000001
6900.0 0.0441430304
6910.0 0.043927526300000005
6920.0 0.0436747192
6930.0 0.0433809418
6940.0 0.04304171340000001
6950.0 0.0426520976
6960.0 0.0422093126
6970.0 0.0417159827
6980.0 0.0411818764
6990.0 0.0406230951
7000.0 0.040059385100000004
7010.0 0.0395112102
7020.0 0.0389978582
7030.0 0.038536855
7040.0 0.0381441459
7050.0 0.037834357400000004
7060.0 0.0376206684
7070.0 0.03751416550000001
7080.0 0.03752296310000001
7090.0 0.0376515482
7100.0 0.0379005179
7110.0 0.03826630500000001
7120.0 0.0387403163
7130.0 0.039307578100000004
7140.0 0.039945363500000004
7150.0 0.040622765400000004
7160.0 0.041302839900000006
7170.0 0.041947003000000004
7180.0 0.042520422
7190.0 0.0429967734
7200.0 0.04336140200000001
7210.0 0.04361285670000001
7220.0 0.043763055
7230.0 0.0438358578
7240.0 0.04386368420000001
7250.0 0.043882709500000006
7260.0 0.0439281402
7270.0 0.0440309842
7280.0 0.04421649330000001
7290.0 0.044503387600000006
7300.0 0.044902894400000004
7310.0 0.0454175855
7320.0 0.04604081300000001
7330.0 0.046757429600000004
7340.0 0.047545461600000005
7350.0 0.0483776188
7360.0 0.0492216648
7370.0 0.05003978630000001
7380.0 0.05078811010000001
7390.0 0.0514178105
7400.0 0.05187858410000001
7410.0 0.05212434430000001
7420.0 0.052119668300000005
7430.0 0.05184757760000001
7440.0 0.051315800200000004
7450.0 0.0505587523
7460.0 0.049634601800000004
7470.0 0.048617758
7480.0 0.04758861660000001
7490.0 0.046622882600000005
7500.0 0.045782345700000004
7510.0 0.0451085817
7520.0 0.0446216778
7530.0 0.044326443
7540.0 0.0442256108
7550.0 0.044332498
7560.0 0.04467153880000001
7570.0 0.04526248580000001
7580.0 0.0460990579
7590.0 0.04713914030000001
7600.0 0.0483133357
7610.0 0.0495437481
7620.0 0.05076046570000001
7630.0 0.051909517800000006
7640.0 0.0529535076
7650.0 0.05386881850000001
7660.0 0.054642258299999996
7670.0 0.055268223500000005
7680.0 0.0557465167
7690.0 0.05608065260000001
7700.0 0.05627663230000001
7710.0 0.0563421306
7720.0 0.056286003200000004
7730.0 0.056117851300000014
7740.0 0.05584745600000001
7750.0 0.055484319100000005
7760.0 0.05503737190000001
7770.0 0.0545147911
7780.0 0.053923768500000004
7790.0 0.053270165900000006
7800.0 0.052558266600000014
7810.0 0.05179101830000001
7820.0 0.050970950800000005
7830.0 0.0501014346
7840.0 0.04918755030000001
7850.0 0.04823597170000001
7860.0 0.04725385840000001
7870.0 0.0462474754
7880.0 0.04522146230000001
7890.0 0.044179345700000004
7900.0 0.043125052600000005
7910.0 0.0420645078
7920.0 0.0410060728
7930.0 0.039958972200000005
7940.0 0.03892996590000001
7950.0 0.0379201991
7960.0 0.036925298200000005
7970.0 0.0359403625
7980.0 0.034967072
7990.0 0.0340165973
8000.0 0.033104521100000006
8010.0 0.0322419552
8020.0 0.0314291551
8030.0 0.030655389100000006
8040.0 0.029903731200000006
8050.0 0.029155070700000004
8060.0 0.028389229400000004
8070.0 0.027584585000000002
8080.0 0.026718405700000003
8090.0 0.025768966300000005
8100.0 0.024719151100000003
8110.0 0.0235604019
8120.0 0.0222958288
8130.0 0.0209416291
8140.0 0.0195265476
8150.0 0.0180895862
8160.0 0.0166764717
8170.0 0.015335401200000001
8180.0 0.014112595700000001
8190.0 0.013048087500000001
8200.0 0.012172230000000001
8210.0 0.011503370200000002
8220.0 0.0110470045
8230.0 0.010796515800000002
8240.0 0.010735279100000002
8250.0 0.010839656100000001
8260.0 0.0110822929
8270.0 0.0114351594
8280.0 0.011872006300000001
8290.0 0.012370246000000001
8300.0 0.012912491900000002
8310.0 0.0134879808
8320.0 0.0140938791
8330.0 0.014736138900000001
8340.0 0.015429437100000004
8350.0 0.0161958097
8360.0 0.017061927400000003
8370.0 0.0180552673
8380.0 0.019199722500000002
8390.0 0.0205113965
8400.0 0.0219952726
8410.0 0.023643039000000005
8420.0 0.0254347779
8430.0 0.0273429793
8440.0 0.0293377364
8450.0 0.031391573500000006
8460.0 0.033481908600000006
8470.0 0.0355900867
8480.0 0.03769760610000001
8490.0 0.03978182950000001
8500.0 0.0418139785
8510.0 0.043761083799999996
8520.0 0.04559140460000001
8530.0 0.04728085390000001
8540.0 0.04881740080000001
8550.0 0.05020158920000001
8560.0 0.05144348160000001
8570.0 0.052558332400000005
8580.0 0.05356383550000001
8590.0 0.05448029720000001
8600.0 0.05533223640000001
8610.0 0.05614813120000001
8620.0 0.0569563239
8630.0 0.057778527800000014
8640.0 0.05862472350000001
8650.0 0.05949213550000001
8660.0 0.06036802380000001
8670.0 0.061234046300000004
8680.0 0.06207015920000001
8690.0 0.062857228
8700.0 0.0635784394
8710.0 0.0642211262
8720.0 0.06477630810000001
8730.0 0.06523666940000002
8740.0 0.0655959276
8750.0 0.0658486129
8760.0 0.0659902299
8770.0 0.06601757820000001
8780.0 0.0659290289
8790.0 0.065724673
8800.0 0.0654063879
8810.0 0.06497791230000001
8820.0 0.0644448539
8830.0 0.0638145284
8840.0 0.0630955031
8850.0 0.062296913700000005
8860.0 0.061427776200000006
8870.0 0.0604965669
8880.0 0.0595112147
8890.0 0.0584794693
8900.0 0.05740946540000001
8910.0 0.05631029810000001
8920.0 0.055247938200000006
8930.0 0.054196033500000004
8940.0 0.053149055400000006
8950.0 0.05212109560000001
8960.0 0.051126663
8970.0 0.05017980520000001
8980.0 0.0492932783
8990.0 0.04847780840000001
9000.0 0.047741253000000004
9010.0 0.0470874978
9020.0 0.0465153178
9030.0 0.046017864900000004
9040.0 0.04558341970000001
9050.0 0.04519736060000001
9060.0 0.044844552200000005
9070.0 0.04451117020000001
9080.0 0.044185417500000004
9090.0 0.04385733520000001
