#lamb flux
1000.0 1.6231835635000001e-06
1010.0 1.9667419310000003e-06
1020.0 2.390729495e-06
1030.0 2.9113985500000002e-06
1040.0 3.5489352200000003e-06
1050.0 4.326388070000001e-06
1060.0 5.2694696249999995e-06
1070.0 6.406090365000001e-06
1080.0 7.765594740000001e-06
1090.0 9.37770038e-06
1100.0 1.1271183505000001e-05
1110.0 1.3472401715000002e-05
1120.0 1.6003772835e-05
1130.0 1.888234353e-05
1140.0 2.21185572e-05
1150.0 2.57153027e-05
1160.0 2.9667288300000002e-05
1170.0 3.396072185e-05
1180.0 3.85733089e-05
1190.0 4.34745206e-05
1200.0 4.86261295e-05
1210.0 5.39830109e-05
1220.0 5.949416745000001e-05
1230.0 6.51039911e-05
1240.0 7.07537154e-05
1250.0 7.638299704999999e-05
1260.0 8.193159615e-05
1270.0 8.734101885e-05
1280.0 9.25561271e-05
1290.0 9.752658155000001e-05
1300.0 0.00010220808470000002
1310.0 0.00010656340550000001
1320.0 0.00011056314545000002
1330.0 0.00011418625795
1340.0 0.00011742038904999999
1350.0 0.00012026202785000002
1360.0 0.00012271664985000002
1370.0 0.00012479886030000001
1380.0 0.0001265327655
1390.0 0.000127952659
1400.0 0.00012910419895
1410.0 0.00013004616355
1420.0 0.00013085275405000003
1430.0 0.00013161632075
1440.0 0.00013245004435
1450.0 0.00013348987705000002
1460.0 0.00013489473055
1470.0 0.00013684369365
1480.0 0.00013952908095
1490.0 0.00014314434915
1500.0 0.00014786668825
1510.0 0.00015383504670000002
1520.0 0.00016112569845
1530.0 0.00016972865835000002
1540.0 0.00017952920645000002
1550.0 0.00019029892040000002
1560.0 0.0002016999219
1570.0 0.00021330422425000001
1580.0 0.00022462780265000002
1590.0 0.00023517575650000002
1600.0 0.00024449322450000006
1610.0 0.00025221469
1620.0 0.000258104354
1630.0 0.000262082011
1640.0 0.0002642309215
1650.0 0.00026478733100000003
1660.0 0.0002641147375
1670.0 0.0002626672785
1680.0 0.00026094827700000003
1690.0 0.000259469093
1700.0 0.0002587125105
1710.0 0.000259102822
1720.0 0.000260983245
1730.0 0.00026460008300000003
1740.0 0.0002700921975
1750.0 0.0002774853915
1760.0 0.0002866908115
1770.0 0.0002975081905
1780.0 0.000309634684
1790.0 0.0003226803095
1800.0 0.000336190154
1810.0 0.0003496730675
1820.0 0.00036263484500000006
1830.0 0.00037461267750000003
1840.0 0.000385208099
1850.0 0.0003941140585
1860.0 0.0004011334615
1870.0 0.0004061871365
1880.0 0.0004093110855
1890.0 0.0004106435355
1900.0 0.0004104044700000001
1910.0 0.0004088701785
1920.0 0.0004063460435
1930.0 0.0004031405965
1940.0 0.00039954284049999997
1950.0 0.0003958049070000001
1960.0 0.000392130259
1970.0 0.00038866833299999997
1980.0 0.00038551472700000007
1990.0 0.000382716206
2000.0 0.00038027939700000006
2010.0 0.00037818169300000005
2020.0 0.000376383003
2030.0 0.000374836891
2040.0 0.00037349988200000006
2050.0 0.000372338465
2060.0 0.00037133327600000004
2070.0 0.00037048074300000003
2080.0 0.0003697924045
2090.0 0.00036929265350000006
2100.0 0.0003690157765000001
2110.0 0.00036900219350000004
2120.0 0.0003692949565
2130.0 0.0003699361775
2140.0 0.00037096380900000005
2150.0 0.000372408636
2160.0 0.0003742915735
2170.0 0.00037662192750000003
2180.0 0.00037939657250000004
2190.0 0.00038260091500000006
2200.0 0.000386211596
2210.0 0.00039020130850000003
2220.0 0.000394544837
2230.0 0.00039922554350000006
2240.0 0.0004042410075
2250.0 0.00040960601050000003
2260.0 0.00041535138450000004
2270.0 0.00042151830150000005
2280.0 0.00042814758100000004
2290.0 0.0004352652845
2300.0 0.00044286673550000003
2310.0 0.0004509013385000001
2320.0 0.00045926148700000004
2330.0 0.000467778216
2340.0 0.00047622517350000005
2350.0 0.0004843319685
2360.0 0.0004918060260000001
2370.0 0.0004983609750000001
2380.0 0.000503748726
2390.0 0.000507791525
2400.0 0.0005104097540000001
2410.0 0.000511642235
2420.0 0.0005116549955
2430.0 0.0005107369444999999
2440.0 0.000509280955
2450.0 0.0005077509170000001
2460.0 0.0005066372755
2470.0 0.000506405025
2480.0 0.000507440059
2490.0 0.0005100008070000001
2500.0 0.0005141821855
2510.0 0.0005198979965
2520.0 0.0005268857215
2530.0 0.0005347342515
2540.0 0.000542931404
2550.0 0.0005509239655000001
2560.0 0.000558181353
2570.0 0.0005642524370000001
2580.0 0.0005688075595000001
2590.0 0.0005716604125000001
2600.0 0.0005727689780000001
2610.0 0.0005722190545000001
2620.0 0.0005701953285
2630.0 0.0005669473935000001
2640.0 0.000562756286
2650.0 0.000557987619
2660.0 0.000557261422
2670.0 0.0006051953590000001
2680.0 0.0007782179394999999
2690.0 0.0010492202450000001
2700.0 0.001337233566
2710.0 0.0015789465055
2720.0 0.0017298556095000001
2730.0 0.0017762360085
2740.0 0.001767015431
2750.0 0.0017642845195
2760.0 0.001782260539
2770.0 0.0018254202865
2780.0 0.0018707803625000001
2790.0 0.0019091343365000002
2800.0 0.0018952760340000003
2810.0 0.0018484811420000004
2820.0 0.0018041805165
2830.0 0.0017628009645000002
2840.0 0.0017401109155000003
2850.0 0.0017505268674999999
2860.0 0.0017769745900000002
2870.0 0.0018330114680000001
2880.0 0.0019250060955000002
2890.0 0.0020542276135000004
2900.0 0.0021968916719999998
2910.0 0.0022504342835
2920.0 0.0021933082275
2930.0 0.0021724122155000005
2940.0 0.002199435594
2950.0 0.002213319629
2960.0 0.002189976562
2970.0 0.0021458201560000003
2980.0 0.0020881666895000003
2990.0 0.001988851624
3000.0 0.001852159644
3010.0 0.0017471236915000002
3020.0 0.0017013176325000002
3030.0 0.0017041439775000002
3040.0 0.0017077373390000001
3050.0 0.0016886586290000003
3060.0 0.0016875967345000003
3070.0 0.0016962845435000002
3080.0 0.0016991855010000004
3090.0 0.0016945298220000001
3100.0 0.0016922933975
3110.0 0.001720398058
3120.0 0.0017840328855
3130.0 0.0018594187470000003
3140.0 0.0019311986979999999
3150.0 0.002009460419
3160.0 0.0021160405800000003
3170.0 0.0022421588525
3180.0 0.00235034028
3190.0 0.0024088212050000003
3200.0 0.0024109164650000002
3210.0 0.0023579312500000005
3220.0 0.0022670152255000004
3230.0 0.002164146208
3240.0 0.002073538339
3250.0 0.0019978145945
3260.0 0.0019470547355
3270.0 0.0019271287565000002
3280.0 0.0019168053945
3290.0 0.0019072961900000003
3300.0 0.0019164095840000003
3310.0 0.0019514352060000003
3320.0 0.0019974621180000006
3330.0 0.0020353002905000002
3340.0 0.0020631052789999997
3350.0 0.002091215791
3360.0 0.002131989701
3370.0 0.0021879468905
3380.0 0.002262048524
3390.0 0.002365014385
3400.0 0.002498166325
3410.0 0.002647422345
3420.0 0.0027825560400000005
3430.0 0.002877634455
3440.0 0.00293502545
3450.0 0.0029721331250000004
3460.0 0.00300233556
3470.0 0.00303541557
3480.0 0.003074877005
3490.0 0.00312239565
3500.0 0.00320474341
3510.0 0.0033635387850000005
3520.0 0.0035809384600000004
3530.0 0.0038030449500000003
3540.0 0.0039913983899999995
3550.0 0.00413830582
3560.0 0.004255098235
3570.0 0.004335105630000001
3580.0 0.004370848425
3590.0 0.00438212255
3600.0 0.00436047059
3610.0 0.004281071375
3620.0 0.0041858503150000006
3630.0 0.004170778355
3640.0 0.00429261152
3650.0 0.00455361944
3660.0 0.004925307895000001
3670.0 0.00535761789
3680.0 0.005798343704999999
3690.0 0.00620678522
3700.0 0.006527300075000001
3710.0 0.006691315975000001
3720.0 0.0066668317950000005
3730.0 0.006470428430000001
3740.0 0.006150768035000001
3750.0 0.005741207215
3760.0 0.00526590961
3770.0 0.004770462165
3780.0 0.00429798409
3790.0 0.0038848902800000004
3800.0 0.0035751793150000004
3810.0 0.003410549125
3820.0 0.00342589392
3830.0 0.0036574462350000003
3840.0 0.0041206921
3850.0 0.004779415665
3860.0 0.0055579535100000015
3870.0 0.006376546165000001
3880.0 0.007174917775
3890.0 0.007922274645000001
3900.0 0.008609305840000001
3910.0 0.009236021465
3920.0 0.009810050090000001
3930.0 0.010334027005
3940.0 0.010795894830000001
3950.0 0.011175755175000001
3960.0 0.01143857565
3970.0 0.011536710240000001
3980.0 0.011435371895000001
3990.0 0.01113604511
4000.0 0.010681094745
4010.0 0.010135220295
4020.0 0.009563469995
4030.0 0.009020994820000001
4040.0 0.008550061165000001
4050.0 0.008176382025
4060.0 0.00789845434
4070.0 0.007681551455
4080.0 0.007477402960000001
4090.0 0.0072589382650000015
4100.0 0.007035894595000001
4110.0 0.00683707919
4120.0 0.0066830411550000005
4130.0 0.006580253330000001
4140.0 0.00653112047
4150.0 0.006538509105000001
4160.0 0.006604331195
4170.0 0.006725832305000001
4180.0 0.006887455670000001
4190.0 0.0070583956100000005
4200.0 0.007206660165
4210.0 0.007317754535000001
4220.0 0.007397551840000001
4230.0 0.007458427415000001
4240.0 0.007507486485000001
4250.0 0.00754962927
4260.0 0.007595713475000002
4270.0 0.00766407004
4280.0 0.00777372339
4290.0 0.007931101010000002
4300.0 0.008115980915
4310.0 0.008279085955000001
4320.0 0.00835517966
4330.0 0.008283774675
4340.0 0.008034628380000002
4350.0 0.007629965665000001
4360.0 0.0071337305
4370.0 0.00661077466
4380.0 0.00610332506
4390.0 0.0056364425700000005
4400.0 0.005232533030000001
4410.0 0.00491838174
4420.0 0.004718983770000001
4430.0 0.00464556084
4440.0 0.004689012575
4450.0 0.004827055805
4460.0 0.005039684745
4470.0 0.005317582350000001
4480.0 0.00566033878
4490.0 0.0060732413
4500.0 0.006565353625000001
4510.0 0.00714636081
4520.0 0.00782317303
4530.0 0.008596357105
4540.0 0.00945407444
4550.0 0.010366519515000002
4560.0 0.011288259075000003
4570.0 0.01216956054
4580.0 0.012968788725000001
4590.0 0.013658628170000001
4600.0 0.0142242774
4610.0 0.014653855754999999
4620.0 0.014923321560000003
4630.0 0.014988173805
4640.0 0.01479257837
4650.0 0.014295768865
4660.0 0.013502466204999999
4670.0 0.0124770618
4680.0 0.011329563380000001
4690.0 0.010181457015000001
4700.0 0.009132457435000001
4710.0 0.008242601735
4720.0 0.00753097544
4730.0 0.006987142670000001
4740.0 0.00658968012
4750.0 0.006323023740000001
4760.0 0.00618466467
4770.0 0.006180416105
4780.0 0.006310755800000001
4790.0 0.006556391665
4800.0 0.00687192499
4810.0 0.007192835115000001
4820.0 0.007454263920000001
4830.0 0.0076144185349999996
4840.0 0.007672854340000001
4850.0 0.007673572735000001
4860.0 0.007688647045000001
4870.0 0.00779037455
4880.0 0.008027794345000002
4890.0 0.008417100985
4900.0 0.008942436670000001
4910.0 0.0095591843
4920.0 0.01019797822
4930.0 0.010772761195000001
4940.0 0.0111944647
4950.0 0.01138812867
4960.0 0.011310058850000002
4970.0 0.010961432355
4980.0 0.01039231617
4990.0 0.009689412135000002
5000.0 0.00895173562
5010.0 0.00826491428
5020.0 0.007684388375
5030.0 0.007231166905
5040.0 0.006898493385000001
5050.0 0.006664636895
5060.0 0.0065050909300000005
5070.0 0.006399273485000001
5080.0 0.006331851045
5090.0 0.0062917092850000005
5100.0 0.006270774545000001
5110.0 0.006263547824999999
5120.0 0.006267715785000001
5130.0 0.00628540823
5140.0 0.006323751065
5150.0 0.00639362385
5160.0 0.0065068644750000005
5170.0 0.006673178910000001
5180.0 0.006897798960000001
5190.0 0.007180009755000001
5200.0 0.0075129272050000005
5210.0 0.007884597565000002
5220.0 0.008280039115
5230.0 0.008684201515000002
5240.0 0.00908577445
5250.0 0.009480224535000002
5260.0 0.00986879304
5270.0 0.010252342885
5280.0 0.010624168815000001
5290.0 0.01096802199
5300.0 0.011263223115
5310.0 0.011492734925
5320.0 0.011649809395
5330.0 0.011742788320000001
5340.0 0.011796188544999999
5350.0 0.011842688464999999
5360.0 0.01190953022
5370.0 0.012011363005000001
5380.0 0.01215217665
5390.0 0.012330244845000001
5400.0 0.012543168005
5410.0 0.012792315475
5420.0 0.013083714065
5430.0 0.01342492349
5440.0 0.013820404285000002
5450.0 0.014268139680000002
5460.0 0.014758150869999999
5470.0 0.015272230995000002
5480.0 0.015785095465000003
5490.0 0.016268149010000003
5500.0 0.01669553317
5510.0 0.017047701115
5520.0 0.017306864755
5530.0 0.017450025815
5540.0 0.01745407322
5550.0 0.01730964034
5560.0 0.017024299110000002
5570.0 0.016613273300000002
5580.0 0.016092005935
5590.0 0.015475947325000001
5600.0 0.01478256549
5610.0 0.01403100165
5620.0 0.013241568500000002
5630.0 0.012436363795000002
5640.0 0.011640685284999999
5650.0 0.01088360059
5660.0 0.010196360245000001
5670.0 0.009609056000000001
5680.0 0.009147287345000001
5690.0 0.008830382325
5700.0 0.008671141390000001
5710.0 0.008675605920000001
5720.0 0.008841698515
5730.0 0.009157492219999999
5740.0 0.009601125925
5750.0 0.010143210295
5760.0 0.01075035042
5770.0 0.011387924925
5780.0 0.012021845885
5790.0 0.012620243305
5800.0 0.01315539447
5810.0 0.013604982840000002
5820.0 0.013951888900000002
5830.0 0.014183295985
5840.0 0.01429086324
5850.0 0.014272710195
5860.0 0.014136399385
5870.0 0.013899770130000001
5880.0 0.013587637020000001
5890.0 0.01322497327
5900.0 0.012829624545000001
5910.0 0.0124085499
5920.0 0.01195984372
5930.0 0.011479271305
5940.0 0.010967445065000003
5950.0 0.010434012925000001
5960.0 0.009897373269999999
5970.0 0.00938055469
5980.0 0.00890527377
5990.0 0.008486885645000001
6000.0 0.0081324664
6010.0 0.00784230814
6020.0 0.00761291242
6030.0 0.007439188435000001
6040.0 0.007315140865
6050.0 0.007233931444999999
6060.0 0.007188232875
6070.0 0.007170911025000001
6080.0 0.007175383075
6090.0 0.007195518815
6100.0 0.007225649105000001
6110.0 0.007261119065
6120.0 0.007299453675
6130.0 0.007341531835000001
6140.0 0.0073917762449999995
6150.0 0.007456545065
6160.0 0.00754075708
6170.0 0.007643838420000001
6180.0 0.007756779185000001
6190.0 0.007861968475
6200.0 0.007936489795000001
6210.0 0.007958080185
6220.0 0.007911655935000001
6230.0 0.00779394326
6240.0 0.007614672335
6250.0 0.0073943471450000015
6260.0 0.007159754165000001
6270.0 0.00693888918
6280.0 0.006757154750000001
6290.0 0.00663603293
6300.0 0.006593218045
6310.0 0.006640666190000001
6320.0 0.00677884572
6330.0 0.006992858340000001
6340.0 0.007258798205
6350.0 0.007556803585000001
6360.0 0.007878226245
6370.0 0.008222355075
6380.0 0.00858961002
6390.0 0.0089778883
6400.0 0.009382384870000001
6410.0 0.009796491295000001
6420.0 0.010212356695
6430.0 0.010621075745
6440.0 0.011012993234999999
6450.0 0.01137831225
6460.0 0.011707745355
6470.0 0.011992851115
6480.0 0.012225969705
6490.0 0.012400004125000003
6500.0 0.012508518665000001
6510.0 0.01254644649
6520.0 0.012511157715000002
6530.0 0.01240319848
6540.0 0.01222612128
6550.0 0.01198539104
6560.0 0.01168708956
6570.0 0.011337296055
6580.0 0.010941881295
6590.0 0.01050723916
6600.0 0.01004103629
6610.0 0.009552220075000001
6620.0 0.00905026172
6630.0 0.00854417371
6640.0 0.00804186497
6650.0 0.007550035115000001
6660.0 0.007074455510000001
6670.0 0.00662038522
6680.0 0.00619292398
6690.0 0.005797140035
6700.0 0.005437849475
6710.0 0.00511903038
6720.0 0.004843069645000001
6730.0 0.004610167725
6740.0 0.0044181809499999995
6750.0 0.004262973085
6760.0 0.0041391443000000005
6770.0 0.0040409166499999994
6780.0 0.003962984070000001
6790.0 0.0039011929349999997
6800.0 0.0038529561300000006
6810.0 0.0038172751400000005
6820.0 0.0037942707550000006
6830.0 0.003784310515
6840.0 0.0037870689450000003
6850.0 0.003801017605
6860.0 0.003823577135
6870.0 0.003851788415
6880.0 0.00388303707
6890.0 0.003915360850000001
6900.0 0.00394724847
6910.0 0.003977224600000001
6920.0 0.00400364471
6930.0 0.00402492725
6940.0 0.00404008099
6950.0 0.00404913836
6960.0 0.00405317237
6970.0 0.004053876195
6980.0 0.004053003405000001
6990.0 0.00405203403
7000.0 0.00405222579
7010.0 0.004054915835
7020.0 0.004061792405
7030.0 0.004074916919999999
7040.0 0.00409646313
7050.0 0.0041282605100000005
7060.0 0.0041713440000000004
7070.0 0.004225794205
7080.0 0.0042910400750000004
7090.0 0.004366423845
7100.0 0.004451583615
7110.0 0.004546411285
7120.0 0.004650703815
7130.0 0.004763720485
7140.0 0.004883744150000001
7150.0 0.005008032830000001
7160.0 0.005133235895
7170.0 0.005255952895000001
7180.0 0.0053731748900000004
7190.0 0.005482478325000001
7200.0 0.005582117385
7210.0 0.005671123635000001
7220.0 0.005749314245000001
7230.0 0.00581707673
7240.0 0.005874983315
7250.0 0.005923462170000001
7260.0 0.005962772735
7270.0 0.005993335190000001
7280.0 0.00601624158
7290.0 0.00603364944
7300.0 0.006048829265
7310.0 0.00606581295
7320.0 0.00608875506
7330.0 0.006121177305
7340.0 0.006165268005000001
7350.0 0.006221378015
7360.0 0.006287837895000001
7370.0 0.006361150375
7380.0 0.00643651746
7390.0 0.006508529215
7400.0 0.0065717891
7410.0 0.006621344255
7420.0 0.006652955045000001
7430.0 0.006663058165000001
7440.0 0.006648854060000001
7450.0 0.006608648380000001
7460.0 0.006542454285000001
7470.0 0.0064526864
7480.0 0.006344595095000001
7490.0 0.0062261026900000006
7500.0 0.006106950874999999
7510.0 0.005997259925
7520.0 0.005905711445
7530.0 0.005837859895
7540.0 0.005795436050000001
7550.0 0.005777118740000001
7560.0 0.005780136375
7570.0 0.005801522315000001
7580.0 0.005838643855
7590.0 0.00588957376
7600.0 0.005953666485
7610.0 0.006031875895
7620.0 0.006126169645
7630.0 0.006238106255
7640.0 0.00636730714
7650.0 0.00651059322
7660.0 0.00666207845
7670.0 0.006814000545
7680.0 0.00695786402
7690.0 0.007085542105000001
7700.0 0.007190169980000001
7710.0 0.0072667900850000005
7720.0 0.0073126820600000015
7730.0 0.007327391885
7740.0 0.007312565030000001
7750.0 0.00727137799
7760.0 0.00720777336
7770.0 0.0071256930300000005
7780.0 0.007028446035000001
7790.0 0.006918272395
7800.0 0.006796161695000001
7810.0 0.006661996200000001
7820.0 0.006515060805
7830.0 0.0063547901
7840.0 0.0061814792450000005
7850.0 0.005996649160000001
7860.0 0.005802928790000001
7870.0 0.005603567245000001
7880.0 0.0054018557
7890.0 0.005200726720000001
7900.0 0.0050026426349999995
7910.0 0.004809712805
7920.0 0.004623897599999999
7930.0 0.00444715551
7940.0 0.004281459830000001
7950.0 0.004128658365
7960.0 0.003990206940000001
7970.0 0.0038668563800000008
7980.0 0.00375842033
7990.0 0.003663743765
8000.0 0.0035809206000000002
8010.0 0.0035077620450000005
8020.0 0.003442252035
8030.0 0.0033826973950000006
8040.0 0.0033276072850000004
8050.0 0.0032752375350000003
8060.0 0.0032230870400000006
8070.0 0.0031677788500000005
8080.0 0.003105522885
8090.0 0.0030328507800000005
8100.0 0.002947119255
8110.0 0.0028465660450000003
8120.0 0.0027301677250000005
8130.0 0.002597663445
8140.0 0.002449861605
8150.0 0.0022890488255
8160.0 0.002119226334
8170.0 0.001945981373
8180.0 0.0017759702705
8190.0 0.0016161353495000002
8200.0 0.0014728557555000001
8210.0 0.001351230777
8220.0 0.001254623029
8230.0 0.001184498465
8240.0 0.0011405298945
8250.0 0.001120893741
8260.0 0.0011226775320000001
8270.0 0.0011423244955
8280.0 0.001176063516
8290.0 0.0012203025480000001
8300.0 0.0012719819385
8310.0 0.001328880162
8320.0 0.001389842593
8330.0 0.0014548896765000001
8340.0 0.0015251708680000002
8350.0 0.001602758609
8360.0 0.0016903099035000002
8370.0 0.001790646373
8380.0 0.0019063196004999998
8390.0 0.002039230971
8400.0 0.002190333621
8410.0 0.002359450525
8420.0 0.00254531461
8430.0 0.0027456492900000003
8440.0 0.0029572757200000003
8450.0 0.0031762292150000005
8460.0 0.0033979061250000004
8470.0 0.00361727745
8480.0 0.0038291976299999995
8490.0 0.004028818850000001
8500.0 0.004212085010000001
8510.0 0.004376225695
8520.0 0.00452013476
8530.0 0.004644506395
8540.0 0.004751653
8550.0 0.00484504529
8560.0 0.0049286937749999996
8570.0 0.005004636610000001
8580.0 0.005075344115000001
8590.0 0.00514555342
8600.0 0.005216623295
8610.0 0.0052889711
8620.0 0.0053623148350000005
8630.0 0.00543595326
8640.0 0.00550899643
8650.0 0.00558049753
8660.0 0.00564947943
8670.0 0.00571489967
8680.0 0.005775603695000001
8690.0 0.005830334255000001
8700.0 0.0058778385650000015
8710.0 0.005917115055
8720.0 0.005947572465
8730.0 0.005969084365
8740.0 0.005981906435000001
8750.0 0.005986431125
8760.0 0.00598286876
8770.0 0.005971004315
8780.0 0.005950139605
8790.0 0.005919260605
8800.0 0.005877357755000001
8810.0 0.005823776345
8820.0 0.00575845974
8830.0 0.00568200719
8840.0 0.005595547635000001
8850.0 0.005500500005000001
8860.0 0.00539831754
8870.0 0.0052903021400000005
8880.0 0.00517753457
8890.0 0.005060928510000001
8900.0 0.004941375315
8910.0 0.00481992144
8920.0 0.004701054445
8930.0 0.00458413278
8940.0 0.00447027716
8950.0 0.004361607050000001
8960.0 0.004260260245
8970.0 0.0041681917100000005
8980.0 0.004086900745
8990.0 0.00401712055
9000.0 0.003958624585
