#lamb flux
1000.0 7.21273248e-06
1010.0 8.747523359999999e-06
1020.0 1.064621034e-05
1030.0 1.29844575e-05
1040.0 1.58569209e-05
1050.0 1.93730004e-05
1060.0 2.3656575599999998e-05
1070.0 2.88446796e-05
1080.0 3.50849304e-05
1090.0 4.25316744e-05
1100.0 5.1341011199999995e-05
1110.0 6.16650102e-05
1120.0 7.36455708e-05
1130.0 8.740848060000001e-05
1140.0 0.0001030580622
1150.0 0.00012067274339999999
1160.0 0.0001403016876
1170.0 0.00016196242319999998
1180.0 0.00018563943599999997
1190.0 0.00021128355
1200.0 0.00023881217399999996
1210.0 0.000268110252
1220.0 0.00029903200199999996
1230.0 0.00033140367
1240.0 0.0003650268779999999
1250.0 0.00039968289
1260.0 0.000435137436
1270.0 0.0004711459859999999
1280.0 0.0005074593479999999
1290.0 0.0005438289959999999
1300.0 0.0005800126319999999
1310.0 0.000615779028
1320.0 0.0006509125619999999
1330.0 0.0006852171059999999
1340.0 0.000718519392
1350.0 0.000750671514
1360.0 0.000781552926
1370.0 0.0008110717019999999
1380.0 0.000839165166
1390.0 0.0008657997479999999
1400.0 0.0008909703
1410.0 0.0009146986560000001
1420.0 0.000937031706
1430.0 0.0009580385699999999
1440.0 0.0009778074660000001
1450.0 0.000996441786
1460.0 0.001014055686
1470.0 0.0010307691359999998
1480.0 0.001046702358
1490.0 0.0010619697960000001
1500.0 0.00107667324
1510.0 0.001090894482
1520.0 0.0011046872159999998
1530.0 0.001118068452
1540.0 0.001131010146
1550.0 0.0011434318559999997
1560.0 0.001155195738
1570.0 0.001166106096
1580.0 0.001175915538
1590.0 0.001184339736
1600.0 0.001191082392
1610.0 0.00119587023
1620.0 0.001198496214
1630.0 0.0011988661679999998
1640.0 0.001197042138
1650.0 0.0011932739639999997
1660.0 0.001188010242
1670.0 0.001181882106
1680.0 0.001175656644
1690.0 0.0011701629180000002
1700.0 0.001166199588
1710.0 0.00116443917
1720.0 0.0011653464959999998
1730.0 0.001169129502
1740.0 0.001175734854
1750.0 0.001184893632
1760.0 0.001196210772
1770.0 0.001209282408
1780.0 0.00122381757
1790.0 0.001239738336
1800.0 0.001257235794
1810.0 0.001276768872
1820.0 0.001299005226
1830.0 0.001324716912
1840.0 0.00135465354
1850.0 0.001389419964
1860.0 0.0014293834739999998
1870.0 0.0014746260239999998
1880.0 0.001524944502
1890.0 0.0015798894119999998
1900.0 0.001638822042
1910.0 0.0017009681580000002
1920.0 0.001765450188
1930.0 0.00183129012
1940.0 0.00189738882
1950.0 0.0019624980599999998
1960.0 0.00202520808
1970.0 0.00208396926
1980.0 0.00213716052
1990.0 0.0021831974999999997
2000.0 0.0022206662999999997
2010.0 0.0022484519999999997
2020.0 0.00226583568
2030.0 0.00227254104
2040.0 0.0022687205399999997
2050.0 0.00225489492
2060.0 0.00223186662
2070.0 0.0022006341
2080.0 0.0021623340600000003
2090.0 0.00211822362
2100.0 0.00206969958
2110.0 0.0020183427
2120.0 0.00196595712
2130.0 0.00191458674
2140.0 0.00186648264
2150.0 0.0018240200999999998
2160.0 0.0017895695219999998
2170.0 0.0017653428
2180.0 0.0017532378719999997
2190.0 0.001754709318
2200.0 0.001770683472
2210.0 0.00180152748
2220.0 0.00184706856
2230.0 0.00190665306
2240.0 0.0019792218600000002
2250.0 0.00206338644
2260.0 0.0021574864799999995
2270.0 0.0022596226200000003
2280.0 0.00236766996
2290.0 0.0024792831
2300.0 0.0025919123399999995
2310.0 0.0027028551600000003
2320.0 0.00280935378
2330.0 0.00290874744
2340.0 0.0029986714800000003
2350.0 0.00307727982
2360.0 0.0031434643799999997
2370.0 0.00319702914
2380.0 0.0032387877
2390.0 0.00327055572
2400.0 0.00329502258
2410.0 0.00331550964
2420.0 0.0033356334599999996
2430.0 0.00335891376
2440.0 0.0033883767
2450.0 0.0034262040599999997
2460.0 0.00347348142
2470.0 0.00353008152
2480.0 0.0035947020599999997
2490.0 0.00366505668
2500.0 0.00373819176
2510.0 0.00381088242
2520.0 0.00388005228
2530.0 0.0039431511
2540.0 0.00399843756
2550.0 0.00404512902
2560.0 0.00408340458
2570.0 0.00411427404
2580.0 0.00413935074
2590.0 0.004160577239999999
2600.0 0.00417995154
2610.0 0.00419930028
2620.0 0.00422011944
2630.0 0.00424349298
2640.0 0.00427008222
2650.0 0.004301289
2660.0 0.00439607088
2670.0 0.005106505139999999
2680.0 0.0068822951399999995
2690.0 0.00840517902
2700.0 0.009218177099999999
2710.0 0.00979809948
2720.0 0.01034356194
2730.0 0.010905344099999999
2740.0 0.01160066412
2750.0 0.012331411379999999
2760.0 0.01281249738
2770.0 0.01294072434
2780.0 0.012789202860000001
2790.0 0.012607057439999998
2800.0 0.01275525198
2810.0 0.01338134328
2820.0 0.01402482654
2830.0 0.01457899308
2840.0 0.015439835340000001
2850.0 0.01677483414
2860.0 0.0183690828
2870.0 0.0200311074
2880.0 0.0218996028
2890.0 0.023714305199999997
2900.0 0.0250420104
2910.0 0.026007123599999998
2920.0 0.026708828399999995
2930.0 0.0272554056
2940.0 0.027626968800000002
2950.0 0.027611065800000004
2960.0 0.027242067599999996
2970.0 0.0266747994
2980.0 0.026009181
2990.0 0.025246508399999996
3000.0 0.0244341378
3010.0 0.0234343116
3020.0 0.022007354399999998
3030.0 0.020630462399999997
3040.0 0.0197180442
3050.0 0.019624226399999996
3060.0 0.020184163199999997
3070.0 0.020874942
3080.0 0.021616911
3090.0 0.0225186228
3100.0 0.023437209599999998
3110.0 0.024446892600000002
3120.0 0.025902599399999997
3130.0 0.0278704008
3140.0 0.030027101399999995
3150.0 0.0318994434
3160.0 0.0331620552
3170.0 0.033905883600000006
3180.0 0.0341938728
3190.0 0.0337127904
3200.0 0.032249561399999994
3210.0 0.029919110399999997
3220.0 0.0270517482
3230.0 0.024341173200000003
3240.0 0.0225541314
3250.0 0.0216677034
3260.0 0.021296149199999996
3270.0 0.021375320399999998
3280.0 0.0219921714
3290.0 0.022910110199999997
3300.0 0.0237301236
3310.0 0.024441933599999997
3320.0 0.0251695818
3330.0 0.025757958600000002
3340.0 0.0261002286
3350.0 0.0263208042
3360.0 0.026465990400000004
3370.0 0.0267587838
3380.0 0.027593261999999997
3390.0 0.028627619400000002
3400.0 0.029481084
3410.0 0.030206793599999997
3420.0 0.030908964599999995
3430.0 0.0315995508
3440.0 0.0322379892
3450.0 0.03291653159999999
3460.0 0.03393839879999999
3470.0 0.0355427496
3480.0 0.037707120000000004
3490.0 0.040325867999999994
3500.0 0.0433769166
3510.0 0.0467135316
3520.0 0.0501687522
3530.0 0.053679558599999996
3540.0 0.0569938212
3550.0 0.05978488319999999
3560.0 0.061766171999999994
3570.0 0.06276543479999999
3580.0 0.0628567308
3590.0 0.062355384
3600.0 0.0616567464
3610.0 0.061347186
3620.0 0.062168792400000006
3630.0 0.06423978059999999
3640.0 0.06692274
3650.0 0.0691572132
3660.0 0.07012929779999999
3670.0 0.06965044919999999
3680.0 0.0676396908
3690.0 0.06426331199999999
3700.0 0.0601386624
3710.0 0.055968193799999996
3720.0 0.052212473999999995
3730.0 0.049018310999999995
3740.0 0.0463467726
3750.0 0.0441657396
3760.0 0.0425402532
3770.0 0.0416216466
3780.0 0.0415987794
3790.0 0.0426341268
3800.0 0.044824222799999994
3810.0 0.048203675999999994
3820.0 0.0527829408
3830.0 0.058574705399999996
3840.0 0.0655214166
3850.0 0.0732609702
3860.0 0.0810627624
3870.0 0.0885560472
3880.0 0.09583079759999999
3890.0 0.1024039026
3900.0 0.10762088580000001
3910.0 0.1113399738
3920.0 0.11360837520000001
3930.0 0.1143358776
3940.0 0.11329444799999999
3950.0 0.11029701419999999
3960.0 0.10549071539999999
3970.0 0.0995474412
3980.0 0.0934562232
3990.0 0.0880685334
4000.0 0.08387305020000001
4010.0 0.08109583919999999
4020.0 0.07978679459999999
4030.0 0.0797391594
4040.0 0.0804576582
4050.0 0.0813449124
4060.0 0.081973143
4070.0 0.0822065832
4080.0 0.0821262258
4090.0 0.08189666999999999
4100.0 0.0816799266
4110.0 0.0816217326
4120.0 0.08186491259999999
4130.0 0.0824954274
4140.0 0.0834422022
4150.0 0.0844724124
4160.0 0.08531513279999998
4170.0 0.0857954232
4180.0 0.08586812879999998
4190.0 0.0855475164
4200.0 0.08482977180000001
4210.0 0.0836952642
4220.0 0.08217004139999999
4230.0 0.08036846099999999
4240.0 0.0784562436
4250.0 0.0765342522
4260.0 0.0745571538
4270.0 0.072395325
4280.0 0.0699781374
4290.0 0.0673615566
4300.0 0.0646677936
4310.0 0.06199434359999999
4320.0 0.059392112399999995
4330.0 0.056904237
4340.0 0.05459223059999999
4350.0 0.052518627
4360.0 0.050729772599999993
4370.0 0.0492767208
4380.0 0.0482473674
4390.0 0.0477597258
4400.0 0.047913181199999995
4410.0 0.048745798199999996
4420.0 0.0502263234
4430.0 0.05226695819999999
4440.0 0.0547444386
4450.0 0.0575439426
4460.0 0.0606070926
4470.0 0.0639290142
4480.0 0.0675066204
4490.0 0.07130718719999998
4500.0 0.07528137659999999
4510.0 0.0793711314
4520.0 0.08348861519999999
4530.0 0.0875010366
4540.0 0.091243638
4550.0 0.094541454
4560.0 0.0972207558
4570.0 0.099118548
4580.0 0.10010441879999998
4590.0 0.10010236679999998
4600.0 0.0990935208
4610.0 0.097103502
4620.0 0.09420989039999998
4630.0 0.09056438640000002
4640.0 0.0863996616
4650.0 0.081988218
4660.0 0.077569875
4670.0 0.0732985902
4680.0 0.06923354579999999
4690.0 0.065369385
4700.0 0.061686198
4710.0 0.058200084
4720.0 0.0549968256
4730.0 0.0522252774
4740.0 0.050041674
4750.0 0.048532931999999994
4760.0 0.047660754599999994
4770.0 0.0472532976
4780.0 0.0470542086
4790.0 0.0468181962
4800.0 0.0464054364
4810.0 0.045821964599999994
4820.0 0.0451911618
4830.0 0.044689086
4840.0 0.044486038799999995
4850.0 0.044708272199999996
4860.0 0.045413632800000006
4870.0 0.046577651399999996
4880.0 0.04808689199999999
4890.0 0.04973265539999999
4900.0 0.051219477
4910.0 0.0522339498
4920.0 0.0525665682
4930.0 0.052176576599999996
4940.0 0.0511577316
4950.0 0.049691037599999995
4960.0 0.048011225399999996
4970.0 0.0463579074
4980.0 0.044928351
4990.0 0.043855374600000004
5000.0 0.043204300200000004
5010.0 0.0429801642
5020.0 0.04314447899999999
5030.0 0.0436375152
5040.0 0.04439539619999999
5050.0 0.0453565188
5060.0 0.046463567399999996
5070.0 0.047669788799999994
5080.0 0.048950163000000005
5090.0 0.050309118
5100.0 0.051775596
5110.0 0.05338589220000001
5120.0 0.0551648448
5130.0 0.0571126932
5140.0 0.05919376319999999
5150.0 0.061329520799999995
5160.0 0.0634188366
5170.0 0.0653832738
5180.0 0.0671802084
5190.0 0.06876723420000001
5200.0 0.07007605019999999
5210.0 0.07102242539999999
5220.0 0.071521218
5230.0 0.07149681
5240.0 0.0709049502
5250.0 0.06976767780000001
5260.0 0.06819893999999999
5270.0 0.06639530760000001
5280.0 0.06458831279999999
5290.0 0.06298031159999999
5300.0 0.061692462
5310.0 0.060744452399999996
5320.0 0.0600719562
5330.0 0.059571797399999994
5340.0 0.0591505524
5350.0 0.058752484199999996
5360.0 0.0583591104
5370.0 0.0579698874
5380.0 0.0575792172
5390.0 0.0571621518
5400.0 0.0566765946
5410.0 0.05607254699999999
5420.0 0.0553023072
5430.0 0.0543366702
5440.0 0.053198281800000004
5450.0 0.0519911982
5460.0 0.0508772808
5470.0 0.05000580899999999
5480.0 0.0494611074
5490.0 0.049256271000000004
5500.0 0.049356126
5510.0 0.049703176800000005
5520.0 0.05021510579999999
5530.0 0.050762444399999995
5540.0 0.051181758
5550.0 0.051339236399999995
5560.0 0.051188304600000005
5570.0 0.05076920699999999
5580.0 0.0501625944
5590.0 0.0494418456
5600.0 0.048649921199999994
5610.0 0.0478007676
5620.0 0.04689234899999999
5630.0 0.0459235062
5640.0 0.0449034282
5650.0 0.0438518664
5660.0 0.042795603
5670.0 0.0417664098
5680.0 0.0408008322
5690.0 0.039939496199999994
5700.0 0.0392246064
5710.0 0.0386962848
5720.0 0.038389012199999996
5730.0 0.038328742799999996
5740.0 0.0385309962
5750.0 0.039000409199999996
5760.0 0.03973141079999999
5770.0 0.0407081448
5780.0 0.0419015592
5790.0 0.043264684799999995
5800.0 0.044730189
5810.0 0.04621403339999999
5820.0 0.04762539
5830.0 0.048879534599999996
5840.0 0.0499086378
5850.0 0.050666086799999996
5860.0 0.05112780659999999
5870.0 0.051290838
5880.0 0.051171951599999994
5890.0 0.050806277999999996
5900.0 0.050242771799999995
5910.0 0.04953552119999999
5920.0 0.0487341342
5930.0 0.0478777032
5940.0 0.0469933434
5950.0 0.046096572599999996
5960.0 0.0451910592
5970.0 0.0442683126
5980.0 0.043309457999999995
5990.0 0.0422890398
6000.0 0.041178141
6010.0 0.039944512800000005
6020.0 0.038550879
6030.0 0.0369557442
6040.0 0.0351212202
6050.0 0.03302926379999999
6060.0 0.030701883599999997
6070.0 0.0282157668
6080.0 0.025701501600000003
6090.0 0.023322735
6100.0 0.021241474199999996
6110.0 0.019584252
6120.0 0.018423471599999998
6130.0 0.017779142699999997
6140.0 0.017634776039999998
6150.0 0.0179552484
6160.0 0.018696743999999998
6170.0 0.0198064458
6180.0 0.0212170608
6190.0 0.022844196
6200.0 0.024591905999999997
6210.0 0.026365454999999996
6220.0 0.0280849626
6230.0 0.0296928
6240.0 0.0311523336
6250.0 0.0324420048
6260.0 0.0335509362
6270.0 0.0344784456
6280.0 0.0352342188
6290.0 0.035834679
6300.0 0.036294460199999996
6310.0 0.036616275
6320.0 0.036786834
6330.0 0.036790122599999996
6340.0 0.0366379416
6350.0 0.0363887658
6360.0 0.036123784199999995
6370.0 0.035898479999999997
6380.0 0.035720969400000004
6390.0 0.035570687399999995
6400.0 0.0354260016
6410.0 0.03527549099999999
6420.0 0.035114571
6430.0 0.034939245599999995
6440.0 0.0347441004
6450.0 0.0345241836
6460.0 0.034277049000000004
6470.0 0.034002647999999996
6480.0 0.033701256
6490.0 0.033370965
6500.0 0.0330068844
6510.0 0.0326032686
6520.0 0.03215736
6530.0 0.0316716138
6540.0 0.031152472200000003
6550.0 0.030607252199999997
6560.0 0.0300422124
6570.0 0.0294626556
6580.0 0.028873753199999998
6590.0 0.0282798396
6600.0 0.0276826482
6610.0 0.027081063000000002
6620.0 0.026473671
6630.0 0.025862426999999997
6640.0 0.025254203400000005
6650.0 0.024658551
6660.0 0.024083265599999997
6670.0 0.0235312596
6680.0 0.023001183
6690.0 0.022491262799999998
6700.0 0.022003342199999998
6710.0 0.0215441802
6720.0 0.021123063
6730.0 0.020747329199999998
6740.0 0.020418345
6750.0 0.020130004799999997
6760.0 0.019870187400000003
6770.0 0.0196245288
6780.0 0.0193812066
6790.0 0.019135049399999996
6800.0 0.0188886474
6810.0 0.0186488802
6820.0 0.018420766199999997
6830.0 0.018203812200000002
6840.0 0.017994088260000003
6850.0 0.017789076
6860.0 0.017590095
6870.0 0.01740095982
6880.0 0.0172245474
6890.0 0.01706007798
6900.0 0.016902840779999997
6910.0 0.016746388919999997
6920.0 0.01658579184
6930.0 0.016420014900000002
6940.0 0.01625218992
6950.0 0.01608796476
6960.0 0.01593316314
6970.0 0.01579203936
6980.0 0.015666661619999998
6990.0 0.015557171580000001
7000.0 0.01546230564
7010.0 0.01537971858
7020.0 0.0153060579
7030.0 0.01523715552
7040.0 0.01516869918
7050.0 0.0150972255
7060.0 0.01502079516
7070.0 0.014938907940000001
7080.0 0.01485184572
7090.0 0.0147599829
7100.0 0.014663557079999999
7110.0 0.01456308252
7120.0 0.014460002999999999
7130.0 0.01435683636
7140.0 0.01425672216
7150.0 0.01416220146
7160.0 0.014074288919999999
7170.0 0.01399260798
7180.0 0.01391638014
7190.0 0.013845350519999999
7200.0 0.013779857159999999
7210.0 0.013720011839999999
7220.0 0.01366455456
7230.0 0.01360995372
7240.0 0.01355012928
7250.0 0.013477338359999999
7260.0 0.013384739699999999
7270.0 0.013269766320000001
7280.0 0.013135534559999999
7290.0 0.0129882843
7300.0 0.012832660440000001
7310.0 0.012668937480000001
7320.0 0.012493945979999997
7330.0 0.01230388056
7340.0 0.012096507239999998
7350.0 0.011871978119999998
7360.0 0.01163266398
7370.0 0.011382408
7380.0 0.011125421459999998
7390.0 0.01086519204
7400.0 0.010603982699999999
7410.0 0.010343251259999998
7420.0 0.01008450216
7430.0 0.00983022282
7440.0 0.0095844924
7450.0 0.00935306712
7460.0 0.0091428138
7470.0 0.008960479019999999
7480.0 0.00881115408
7490.0 0.008697083219999999
7500.0 0.00861734538
7510.0 0.00856850616
7520.0 0.008545911659999999
7530.0 0.008545063499999998
7540.0 0.008562531960000001
7550.0 0.00859612536
7560.0 0.00864440694
7570.0 0.0087059277
7580.0 0.00877858164
7590.0 0.00885933342
7600.0 0.00894440754
7610.0 0.00903395556
7620.0 0.00912440844
7630.0 0.00921127662
7640.0 0.00929508804
7650.0 0.0093781323
7660.0 0.00946356606
7670.0 0.00955430388
7680.0 0.009652173120000001
7690.0 0.00975764754
7700.0 0.009870177959999999
7710.0 0.00998884458
7720.0 0.010112878439999999
7730.0 0.01024168158
7740.0 0.010374367679999998
7750.0 0.010509297479999999
7760.0 0.01064409588
7770.0 0.0107761041
7780.0 0.01090276632
7790.0 0.011021590619999999
7800.0 0.01112983146
7810.0 0.01122430788
7820.0 0.01130160474
7830.0 0.01135859382
7840.0 0.01139300622
7850.0 0.01140379398
7860.0 0.01139113674
7870.0 0.011356128900000002
7880.0 0.0113003433
7890.0 0.01122551748
7900.0 0.01113351534
7910.0 0.0110265138
7920.0 0.010907173619999998
7930.0 0.010778542559999998
7940.0 0.01064364768
7950.0 0.0105050133
7960.0 0.01036439946
7970.0 0.01022281866
7980.0 0.010080549539999999
7990.0 0.0099368865
8000.0 0.00978979698
8010.0 0.009636056999999998
8020.0 0.00947215026
8030.0 0.009295447319999999
8040.0 0.00910477422
8050.0 0.008899959959999999
8060.0 0.00868076352
8070.0 0.0084459987
8080.0 0.008193509639999999
8090.0 0.0079211223
8100.0 0.00762809058
8110.0 0.007316249939999999
8120.0 0.0069903414
8130.0 0.0066575242799999995
8140.0 0.00632648106
8150.0 0.006006500099999999
8160.0 0.00570670884
8170.0 0.00543546234
8180.0 0.00519984306
8190.0 0.0050052564
8200.0 0.00485513874
8210.0 0.00475079382
8220.0 0.004691363939999999
8230.0 0.00467394318
8240.0 0.0046938654
8250.0 0.004745203020000001
8260.0 0.00482149296
8270.0 0.00491662368
8280.0 0.0050257281599999995
8290.0 0.005145883379999999
8300.0 0.0052764408
8310.0 0.005418926639999999
8320.0 0.00557658684
8330.0 0.0057537525599999995
8340.0 0.00595521072
8350.0 0.00618568092
8360.0 0.0064493834399999995
8370.0 0.006749605979999999
8380.0 0.0070881912
8390.0 0.007464959280000001
8400.0 0.007877214
8410.0 0.00831954312
8420.0 0.00878408658
8430.0 0.00926129664
8440.0 0.00974103426
8450.0 0.0102137112
8460.0 0.01067118984
8470.0 0.011107257479999999
8480.0 0.01151766918
8490.0 0.011899892159999998
8500.0 0.012252732659999998
8510.0 0.012575996639999998
8520.0 0.012870250199999999
8530.0 0.01313667612
8540.0 0.013376971080000001
8550.0 0.013593224519999997
8560.0 0.01378773252
8570.0 0.01396275156
8580.0 0.01412023392
8590.0 0.014261613299999998
8600.0 0.014387690880000002
8610.0 0.014498633879999999
8620.0 0.014594073659999998
8630.0 0.014673272579999999
8640.0 0.014735344859999997
8650.0 0.01477950516
8660.0 0.01480531068
8670.0 0.01481283774
8680.0 0.014802734880000001
8690.0 0.014776123499999998
8700.0 0.014734356119999998
8710.0 0.014678681939999999
8720.0 0.01460990844
8730.0 0.014528139660000002
8740.0 0.014432661
8750.0 0.0143219988
8760.0 0.014194155779999999
8770.0 0.014046992460000001
8780.0 0.013878690119999999
8790.0 0.01368820836
8800.0 0.013475643479999999
8810.0 0.01324242
8820.0 0.012991294619999998
8830.0 0.012726181259999999
8840.0 0.012451829579999999
8850.0 0.012173391359999999
8860.0 0.01189593198
8870.0 0.0116239761
8880.0 0.01136118474
8890.0 0.011110238279999999
8900.0 0.01087292214
8910.0 0.010650348359999999
8920.0 0.0104431896
8930.0 0.01025182782
8940.0 0.010076374979999999
8950.0 0.009916604099999999
8960.0 0.009771858540000001
8970.0 0.009640992959999999
8980.0 0.009522369539999999
8990.0 0.009413914320000001
9000.0 0.009313235999999999
9010.0 0.0092178234
9020.0 0.009125322299999999
9030.0 0.00903386196
9040.0 0.00894235014
9050.0 0.008850636359999999
9060.0 0.00875947302
9070.0 0.008670255480000002
9080.0 0.00858460986
9090.0 0.00850396302
9100.0 0.008429262299999999
9110.0 0.00836094942
9120.0 0.0082991601
9130.0 0.008243998379999999
9140.0 0.008195705099999999
9150.0 0.00815461416
9160.0 0.00812086164
9170.0 0.00809391924
9180.0 0.008072117099999998
9190.0 0.0080524233
9200.0 0.008030706839999999
9210.0 0.00800245764
9220.0 0.007963626060000001
9230.0 0.00791115768
9240.0 0.00784306242
9250.0 0.007758302399999999
9260.0 0.00765699588
9270.0 0.00754117614
9280.0 0.00741569724
9290.0 0.0072883672200000004
9300.0 0.00716857542
9310.0 0.007064681219999999
9320.0 0.006981462179999999
9330.0 0.00691904646
9340.0 0.006873773939999999
9350.0 0.006840225899999999
9360.0 0.006813184859999999
9370.0 0.0067887278999999995
9380.0 0.006764401079999999
9390.0 0.006738873659999999
9400.0 0.00671149134
9410.0 0.00668194182
9420.0 0.006650069399999999
9430.0 0.0066157938
9440.0 0.0065790837
9450.0 0.00653995044
9460.0 0.0064984482
9470.0 0.0064546759799999995
