#lamb flux
1000.0 1.794896683e-06
1010.0 2.174855902e-06
1020.0 2.64379749e-06
1030.0 3.21971735e-06
1040.0 3.92497014e-06
1050.0 4.7850918e-06
1060.0 5.82858063e-06
1070.0 7.0863892e-06
1080.0 8.59108456e-06
1090.0 1.037568078e-05
1100.0 1.2472191249999998e-05
1110.0 1.490999963e-05
1120.0 1.771418368e-05
1130.0 2.0903931159999997e-05
1140.0 2.44911811e-05
1150.0 2.847957042e-05
1160.0 3.2863732399999996e-05
1170.0 3.7628931500000004e-05
1180.0 4.2751073899999995e-05
1190.0 4.8196964799999994e-05
1200.0 5.39248937e-05
1210.0 5.988551479999999e-05
1220.0 6.602293510000001e-05
1230.0 7.227612799999999e-05
1240.0 7.858048019999999e-05
1250.0 8.48695494e-05
1260.0 9.107689329999999e-05
1270.0 9.71378893e-05
1280.0 0.00010299148909999999
1290.0 0.0001085818059
1300.0 0.00011385950939999999
1310.0 0.0001187829387
1320.0 0.00012331893
1330.0 0.00012744340560000002
1340.0 0.000131141656
1350.0 0.0001344084453
1360.0 0.0001372479616
1370.0 0.00013967368369999998
1380.0 0.0001417083005
1390.0 0.00014338374199999998
1400.0 0.0001447414273
1410.0 0.00014583284429999999
1420.0 0.000146720396
1430.0 0.00014747847
1440.0 0.00014819450179999997
1450.0 0.0001489696165
1460.0 0.0001499182661
1470.0 0.0001511661959
1480.0 0.00015284603319999998
1490.0 0.0001550899651
1500.0 0.0001580193752
1510.0 0.00016173191040000002
1520.0 0.0001662871806
1530.0 0.00017169296679999998
1540.0 0.0001778944858
1550.0 0.000184769145
1560.0 0.0001921290193
1570.0 0.00019973211649999999
1580.0 0.00020730215840000001
1590.0 0.0002145549339
1600.0 0.00022122795669999998
1610.0 0.0002271092457
1620.0 0.00023206105549999998
1630.0 0.00023603515939999998
1640.0 0.00023907770090000001
1650.0 0.00024132353
1660.0 0.0002429814937
1670.0 0.0002443134583
1680.0 0.0002456103774
1690.0 0.000247168487
1700.0 0.00024926796819999995
1710.0 0.0002521554105
1720.0 0.0002560304322
1730.0 0.0002610360828
1740.0 0.0002672524105
1750.0 0.0002746926771
1760.0 0.0002833020963
1770.0 0.0002929593558
1780.0 0.0003034815494
1790.0 0.00031463294999999996
1800.0 0.000326138011
1810.0 0.00033769819000000005
1820.0 0.00034901151600000004
1830.0 0.000359792851
1840.0 0.00036979360600000006
1850.0 0.000378817799
1860.0 0.00038673324599999994
1870.0 0.000393476552
1880.0 0.000399051902
1890.0 0.00040352399299999997
1900.0 0.00040700644
1910.0 0.000409647485
1920.0 0.000411614683
1930.0 0.000413080208
1940.0 0.00041420801900000003
1950.0 0.00041514375399999995
1960.0 0.000416007724
1970.0 0.000416891007
1980.0 0.000417854642
1990.0 0.000418931272
2000.0 0.00042012870899999996
2010.0 0.000421434987
2020.0 0.000422824035
2030.0 0.000424261474
2040.0 0.00042570998
2050.0 0.000427133779
2060.0 0.00042850196399999997
2070.0 0.000429790789
2080.0 0.000430984661
2090.0 0.00043207623300000003
2100.0 0.000433065939
2110.0 0.000433960878
2120.0 0.00043477323300000005
2130.0 0.000435519155
2140.0 0.000436216779
2150.0 0.00043688498400000004
2160.0 0.000437541812
2170.0 0.000438203476
2180.0 0.00043888370900000003
2190.0 0.00043959357799999997
2200.0 0.00044034216599999997
2210.0 0.000441137874
2220.0 0.00044199028100000003
2230.0 0.000442911973
2240.0 0.00044392040299999995
2250.0 0.000445038821
2260.0 0.00044629571600000005
2270.0 0.000447723049
2280.0 0.000449352781
2290.0 0.00045121212999999996
2300.0 0.00045331845599999994
2310.0 0.000455674456
2320.0 0.000458264878
2330.0 0.00046105537399999995
2340.0 0.00046399482499999997
2350.0 0.000467020518
2360.0 0.000470067446
2370.0 0.000473079902
2380.0 0.00047602536700000003
2390.0 0.00047890880100000005
2400.0 0.00048178615899999996
2410.0 0.000484774528
2420.0 0.00048805752099999994
2430.0 0.0004918831999999999
2440.0 0.000496553009
2450.0 0.000502400911
2460.0 0.000509762202
2470.0 0.000518934203
2480.0 0.000530132302
2490.0 0.000543446368
2500.0 0.00055880445
2510.0 0.0005759510149999999
2520.0 0.000594445026
2530.0 0.000613682138
2540.0 0.000632939648
2550.0 0.0006514402930000001
2560.0 0.000668425255
2570.0 0.000683225492
2580.0 0.000695320638
2590.0 0.0007043765439999999
2600.0 0.0007102579569999999
2610.0 0.000713017639
2620.0 0.000712866266
2630.0 0.0007101316319999999
2640.0 0.0007052138849999999
2650.0 0.000698530781
2660.0 0.0006899407430000001
2670.0 0.000680855573
2680.0 0.000743154599
2690.0 0.001020295684
2700.0 0.001474385141
2710.0 0.001957194176
2720.0 0.002282327787
2730.0 0.002392613914
2740.0 0.0024176683
2750.0 0.002452138254
2760.0 0.0024750989
2770.0 0.002501596987
2780.0 0.002566923907
2790.0 0.0027086248450000003
2800.0 0.0027594188409999997
2810.0 0.00272690787
2820.0 0.0026724034839999996
2830.0 0.002572128714
2840.0 0.002488346409
2850.0 0.002489689701
2860.0 0.0025097849859999997
2870.0 0.002544129297
2880.0 0.002616898449
2890.0 0.002788778073
2900.0 0.0030338894000000003
2910.0 0.0031576364399999997
2920.0 0.0031158503
2930.0 0.0031180451
2940.0 0.0031652041600000002
2950.0 0.00316352365
2960.0 0.0031099925400000002
2970.0 0.00303982745
2980.0 0.0029534603030000003
2990.0 0.0027956544619999997
3000.0 0.002578487713
3010.0 0.002416354582
3020.0 0.002349516939
3030.0 0.002359593055
3040.0 0.0023339943399999998
3050.0 0.002229596322
3060.0 0.002179179658
3070.0 0.00217243784
3080.0 0.002175864642
3090.0 0.002170209901
3100.0 0.002161096583
3110.0 0.002212762578
3120.0 0.00232396491
3130.0 0.002430855793
3140.0 0.002503341109
3150.0 0.00255934667
3160.0 0.0026616242570000003
3170.0 0.0028247489229999995
3180.0 0.002993099507
3190.0 0.0031062257300000003
3200.0 0.00315152448
3210.0 0.0031176067599999998
3220.0 0.003015085606
3230.0 0.0028593531070000002
3240.0 0.002694596446
3250.0 0.0025440821150000004
3260.0 0.002433866172
3270.0 0.002384935276
3280.0 0.002356981801
3290.0 0.002323526291
3300.0 0.0023187092320000003
3310.0 0.0023655792169999996
3320.0 0.0024437599149999996
3330.0 0.002507160216
3340.0 0.002542466705
3350.0 0.0025725081539999996
3360.0 0.0026283953879999997
3370.0 0.00270963436
3380.0 0.0028007609680000003
3390.0 0.002896488224
3400.0 0.0029963074179999998
3410.0 0.0031213462900000002
3420.0 0.0032702895099999997
3430.0 0.00340188079
3440.0 0.00349249162
3450.0 0.00354307928
3460.0 0.00356667059
3470.0 0.0035913583699999996
3480.0 0.0036162894999999997
3490.0 0.0036091046300000006
3500.0 0.00360758842
3510.0 0.0037229403499999996
3520.0 0.00394580214
3530.0 0.004195032529999999
3540.0 0.00441804188
3550.0 0.0045919091
3560.0 0.00471566792
3570.0 0.00478244533
3580.0 0.00479631194
3590.0 0.00479785171
3600.0 0.00480046129
3610.0 0.0048098121300000005
3620.0 0.00485385445
3630.0 0.00494651004
3640.0 0.00510890137
3650.0 0.00536921147
3660.0 0.00573490576
3670.0 0.0061962341200000005
3680.0 0.006739338
3690.0 0.00734444498
3700.0 0.00793057252
3710.0 0.00836066311
3720.0 0.00852640182
3730.0 0.00840088127
3740.0 0.008061214890000001
3750.0 0.007587049739999999
3760.0 0.00700719691
3770.0 0.006351586899999999
3780.0 0.0056666124500000005
3790.0 0.005012450449999999
3800.0 0.00446606615
3810.0 0.0041043584600000006
3820.0 0.003983484810000001
3830.0 0.00413395819
3840.0 0.00456130094
3850.0 0.00524145892
3860.0 0.006113774119999999
3870.0 0.007082617120000001
3880.0 0.0080526778
3890.0 0.00897884806
3900.0 0.00985996199
3910.0 0.01068947828
3920.0 0.011442286000000001
3930.0 0.012100986709999999
3940.0 0.01266862709
3950.0 0.013147060010000001
3960.0 0.013509869130000001
3970.0 0.01370968056
3980.0 0.013710393559999999
3990.0 0.013503361919999998
4000.0 0.01310099618
4010.0 0.01253490518
4020.0 0.011865127860000001
4030.0 0.0111763525
4040.0 0.01055395651
4050.0 0.01005680951
4060.0 0.009696598499999999
4070.0 0.00943319491
4080.0 0.00919889598
4090.0 0.00894393617
4100.0 0.00866976814
4110.0 0.00841752021
4120.0 0.00822560014
4130.0 0.00810512329
4140.0 0.008048007650000001
4150.0 0.008043367880000001
4160.0 0.008086396809999999
4170.0 0.00817811124
4180.0 0.00831501189
4190.0 0.008477488469999999
4200.0 0.008634083110000001
4210.0 0.008761295950000001
4220.0 0.008856538490000001
4230.0 0.0089314038
4240.0 0.00899811859
4250.0 0.00906482594
4260.0 0.00914010851
4270.0 0.00923728762
4280.0 0.00937214258
4290.0 0.00955212703
4300.0 0.009762730179999998
4310.0 0.009962481779999999
4320.0 0.010089687180000001
4330.0 0.0100758959
4340.0 0.00987011697
4350.0 0.00947118758
4360.0 0.00893041645
4370.0 0.00831518394
4380.0 0.00768212395
4390.0 0.0070759787800000005
4400.0 0.006537552489999999
4410.0 0.006105594150000001
4420.0 0.00581009099
4430.0 0.00566787477
4440.0 0.00567857504
4450.0 0.00582401681
4460.0 0.0060789660799999996
4470.0 0.006424085049999999
4480.0 0.00685070519
4490.0 0.00735983741
4500.0 0.00795919823
4510.0 0.00865837006
4520.0 0.00946403774
4530.0 0.0103761495
4540.0 0.011383309429999999
4550.0 0.012458703770000001
4560.0 0.01356035387
4570.0 0.01463758837
4580.0 0.015641662869999996
4590.0 0.016534178599999998
4600.0 0.0172867749
4610.0 0.017872699699999998
4620.0 0.01825772528
4630.0 0.018397890230000002
4640.0 0.01824558196
4650.0 0.01776356017
4660.0 0.01694647426
4670.0 0.01584108587
4680.0 0.014547577079999997
4690.0 0.01319439174
4700.0 0.011901462959999998
4710.0 0.010753540709999999
4720.0 0.00979238075
4730.0 0.00902375094
4740.0 0.00843229264
4750.0 0.007998850020000002
4760.0 0.007714681079999999
4770.0 0.00758487416
4780.0 0.00761679827
4790.0 0.00780130097
4800.0 0.00810033844
4810.0 0.00845024877
4820.0 0.00877801859
4830.0 0.00902304786
4840.0 0.009158877150000001
4850.0 0.00920718228
4860.0 0.00923307937
4870.0 0.0093197966
4880.0 0.00953710164
4890.0 0.0099210819
4900.0 0.0104694502
4910.0 0.011145042499999999
4920.0 0.01188155042
4930.0 0.01259113081
4940.0 0.01317482516
4950.0 0.01353663391
4960.0 0.013602422729999999
4970.0 0.013341536959999999
4980.0 0.012782054539999999
4990.0 0.012007057639999999
5000.0 0.011132076130000002
5010.0 0.01027318021
5020.0 0.00951902368
5030.0 0.00891635702
5040.0 0.008471600329999999
5050.0 0.00816429981
5060.0 0.00796371431
5070.0 0.00784067469
5080.0 0.007772421680000001
5090.0 0.007742557519999999
5100.0 0.00773898539
5110.0 0.00775215264
5120.0 0.00777533568
5130.0 0.00780703659
5140.0 0.00785314196
5150.0 0.00792595197
5160.0 0.00803997276
5170.0 0.0082075197
5180.0 0.0084367399
5190.0 0.00873121386
5200.0 0.00908913335
5210.0 0.009501551459999999
5220.0 0.009951977119999999
5230.0 0.01041999683
5240.0 0.0108882974
5250.0 0.011348500150000001
5260.0 0.011800602289999998
5270.0 0.01224564945
5280.0 0.012677589809999999
5290.0 0.01308116734
5300.0 0.01343658141
5310.0 0.013725653309999999
5320.0 0.01393707021
5330.0 0.014074767560000001
5340.0 0.01416443754
5350.0 0.01424126856
5360.0 0.0143257789
5370.0 0.01441727943
5380.0 0.014507754169999998
5390.0 0.01459516022
5400.0 0.014688154640000003
5410.0 0.014805889849999998
5420.0 0.014973384709999999
5430.0 0.015214434199999998
5440.0 0.01554455475
5450.0 0.01596583979
5460.0 0.01646459755
5470.0 0.017012436369999998
5480.0 0.01757084061
5490.0 0.01809764531
5500.0 0.01855261743
5510.0 0.018900630869999997
5520.0 0.01911352368
5530.0 0.01917238865
5540.0 0.01906975106
5550.0 0.01880915514
5560.0 0.01840146081
5570.0 0.01786053127
5580.0 0.01720137889
5590.0 0.016441473409999997
5600.0 0.015602145
5610.0 0.01470694002
5620.0 0.01378009644
5630.0 0.012845976849999998
5640.0 0.011930359610000002
5650.0 0.01106273595
5660.0 0.01027730507
5670.0 0.00961081375
5680.0 0.00909768284
5690.0 0.008764833049999999
5700.0 0.008628406390000001
5710.0 0.008692646759999999
5720.0 0.00894997063
5730.0 0.009381773970000002
5740.0 0.009960456550000002
5750.0 0.010652561
5760.0 0.01142169797
5770.0 0.01223026105
5780.0 0.013040540289999998
5790.0 0.013816333889999999
5800.0 0.014524930959999998
5810.0 0.015138420339999998
5820.0 0.01563404369
5830.0 0.01599461926
5840.0 0.01620999331
5850.0 0.016278826950000002
5860.0 0.016209981840000002
5870.0 0.016021795409999998
5880.0 0.01573817238
5890.0 0.01538285937
5900.0 0.014974043149999998
5910.0 0.01452151476
5920.0 0.0140276333
5930.0 0.013491624079999999
5940.0 0.012915193030000001
5950.0 0.012306909789999999
5960.0 0.01168348026
5970.0 0.01106750406
5980.0 0.01048297953
5990.0 0.0099507737
6000.0 0.00948590452
6010.0 0.00909699433
6020.0 0.00878696085
6030.0 0.008553838060000001
6040.0 0.00839134381
6050.0 0.00828948897
6060.0 0.008235773100000001
6070.0 0.008217270439999999
6080.0 0.00822315486
6090.0 0.00824657939
6100.0 0.00828491678
6110.0 0.00833832761
6120.0 0.00840779427
6130.0 0.00849388282
6140.0 0.008596532189999999
6150.0 0.00871511401
6160.0 0.008847670629999999
6170.0 0.00898892337
6180.0 0.00912788614
6190.0 0.00924684306
6200.0 0.009323274179999999
6210.0 0.00933486229
6220.0 0.009265849159999999
6230.0 0.00911210094
6240.0 0.00888294584
6250.0 0.00859948556
6260.0 0.00829045245
6270.0 0.00798718224
6280.0 0.00771921514
6290.0 0.0075115858200000005
6300.0 0.00738385745
6310.0 0.007349449
6320.0 0.007413480740000001
6330.0 0.007570171790000001
6340.0 0.0078042004
6350.0 0.00809740987
6360.0 0.00843607402
6370.0 0.00881295776
6380.0 0.00922434698
6390.0 0.00966626655
6400.0 0.01013241045
6410.0 0.01061368855
6420.0 0.01109871393
6430.0 0.011574775970000001
6440.0 0.01202882429
6450.0 0.012448053099999998
6460.0 0.0128200872
6470.0 0.01313310629
6480.0 0.013376250449999998
6490.0 0.01354036104
6500.0 0.013618855830000002
6510.0 0.01360840728
6520.0 0.013509124200000002
6530.0 0.013324163009999999
6540.0 0.01305894344
6550.0 0.01272028394
6560.0 0.01231587592
6570.0 0.01185408008
6580.0 0.01134395059
6590.0 0.01079571094
6600.0 0.0102210007
6610.0 0.009632425709999998
6620.0 0.00904242379
6630.0 0.008461959330000001
6640.0 0.007899683499999999
6650.0 0.007361886819999999
6660.0 0.00685311978
6670.0 0.00637707076
6680.0 0.0059372598100000005
6690.0 0.005537243250000001
6700.0 0.0051802553099999996
6710.0 0.0048684585499999995
6720.0 0.0046021763
6730.0 0.00437951508
6740.0 0.0041966129100000004
6750.0 0.0040484412800000005
6760.0 0.00392981389
6770.0 0.0038361818
6780.0 0.00376397846
6790.0 0.0037106045199999994
6800.0 0.00367426973
6810.0 0.0036538429
6820.0 0.003648638
6830.0 0.00365804929
6840.0 0.0036810925199999996
6850.0 0.0037161746000000002
6860.0 0.0037611782299999995
6870.0 0.0038138153
6880.0 0.00387196386
6890.0 0.003933652619999999
6900.0 0.0039967121999999996
6910.0 0.004058456760000001
6920.0 0.00411577824
6930.0 0.0041657676
6940.0 0.00420659522
6950.0 0.00423816624
6960.0 0.00426217822
6970.0 0.00428154082
6980.0 0.00429948331
6990.0 0.004318813669999999
7000.0 0.00434162595
7010.0 0.00436944969
7020.0 0.00440359805
7030.0 0.0044454434
7040.0 0.004496474980000001
7050.0 0.0045580974
7060.0 0.00463126701
7070.0 0.00471618066
7080.0 0.00481224966
7090.0 0.0049184165999999994
7100.0 0.00503364143
7110.0 0.0051573522
7120.0 0.00528961649
7130.0 0.0054307684800000006
7140.0 0.00558037076
7150.0 0.00573648056
7160.0 0.00589596657
7170.0 0.006055358960000001
7180.0 0.00621157726
7190.0 0.00636207389
7200.0 0.006504628320000001
7210.0 0.00663716851
7220.0 0.0067576714
7230.0 0.006864094089999999
7240.0 0.00695440081
7250.0 0.00702680844
7260.0 0.0070802574
7270.0 0.00711494454
7280.0 0.007132704750000001
7290.0 0.00713708784
7300.0 0.007133098449999999
7310.0 0.007126637119999999
7320.0 0.00712371506
7330.0 0.0071295288
7340.0 0.00714756212
7350.0 0.007178937219999999
7360.0 0.00722223213
7370.0 0.00727383628
7380.0 0.0073287137199999994
7390.0 0.00738129592
7400.0 0.007426170900000001
7410.0 0.0074584911899999995
7420.0 0.00747424384
7430.0 0.007469795340000001
7440.0 0.00744174747
7450.0 0.007387254120000001
7460.0 0.00730474297
7470.0 0.0071948978799999995
7480.0 0.00706165678
7490.0 0.0069129163
7500.0 0.00676051348
7510.0 0.00661875172
7520.0 0.0065010347999999996
7530.0 0.00641569583
7540.0 0.00636374882
7550.0 0.00634040861
7560.0 0.0063389714500000005
7570.0 0.00635385424
7580.0 0.00638141324
7590.0 0.006419781940000001
7600.0 0.00646901738
7610.0 0.00653125143
7620.0 0.006609899670000001
7630.0 0.00670784107
7640.0 0.00682543647
7650.0 0.006959393979999999
7660.0 0.0071029106500000005
7670.0 0.007246846749999999
7680.0 0.007381333119999999
7690.0 0.007497265679999999
7700.0 0.0075874077899999995
7710.0 0.007647025439999999
7720.0 0.007673917939999999
7730.0 0.0076681026499999996
7740.0 0.00763180909
7750.0 0.007569001539999999
7760.0 0.00748467379
7770.0 0.00738400532
7780.0 0.0072714815199999994
7790.0 0.0071501518600000005
7800.0 0.00702123774
7810.0 0.006884246879999999
7820.0 0.00673762556
7830.0 0.006579761159999999
7840.0 0.00640997354
7850.0 0.006229109309999999
7860.0 0.00603950308
7870.0 0.005844393420000001
7880.0 0.00564712213
7890.0 0.00545052137
7900.0 0.005256724250000001
7910.0 0.005067379039999999
7920.0 0.0048838702
7930.0 0.004708160029999999
7940.0 0.00454227748
7950.0 0.0043882952099999996
7960.0 0.00424796658
7970.0 0.00412236295
7980.0 0.00401163901
7990.0 0.00391499775
8000.0 0.0038308308900000003
8010.0 0.0037570809600000004
8020.0 0.0036915128600000006
8030.0 0.0036316252
8040.0 0.00357466239
8050.0 0.0035176258
8060.0 0.0034573425800000003
8070.0 0.00339063275
8080.0 0.00331451163
8090.0 0.0032263318199999996
8100.0 0.00312381327
8110.0 0.0030050439310000004
8120.0 0.002868628679
8130.0 0.0027141132399999997
8140.0 0.002542622697
8150.0 0.002357453187
8160.0 0.002164267573
8170.0 0.0019706519579999996
8180.0 0.001785059577
8190.0 0.0016154535859999998
8200.0 0.001468105254
8210.0 0.001346914009
8220.0 0.0012533594190000002
8230.0 0.001186928806
8240.0 0.001145735448
8250.0 0.001127075959
8260.0 0.0011278050480000002
8270.0 0.0011445360890000001
8280.0 0.001173757712
8290.0 0.001211979937
8300.0 0.001255990575
8310.0 0.0013032281270000002
8320.0 0.001352190829
8330.0 0.0014027507129999999
8340.0 0.00145625042
8350.0 0.001515319432
8360.0 0.001583425843
8370.0 0.001664248485
8380.0 0.0017610038560000002
8390.0 0.0018758799049999996
8400.0 0.0020096597539999996
8410.0 0.002161618499
8420.0 0.002329784726
8430.0 0.002511260152
8440.0 0.002702499679
8450.0 0.0028994858
8460.0 0.00309782194
8470.0 0.00329284821
8480.0 0.0034798864
8490.0 0.00365467804
8500.0 0.0038139792899999996
8510.0 0.00395616203
8520.0 0.00408157222
8530.0 0.00419240714
8540.0 0.00429207741
8550.0 0.004384300240000001
8560.0 0.00447230118
8570.0 0.00455301495
8580.0 0.0046253395
8590.0 0.00469650248
8600.0 0.004766597199999999
8610.0 0.00483551919
8620.0 0.004903159640000001
8630.0 0.00496943206
8640.0 0.005034137740000001
8650.0 0.00509675898
8660.0 0.005156330129999999
8670.0 0.00521150765
8680.0 0.00526085624
8690.0 0.005303250600000001
8700.0 0.00533820403
8710.0 0.00536596143
8720.0 0.00538728881
8730.0 0.005403029679999999
8740.0 0.00541362331
8750.0 0.005418783569999999
8760.0 0.00541746545
8770.0 0.00540810996
8780.0 0.00538904589
8790.0 0.0053588959100000005
8800.0 0.00531686518
8810.0 0.005262867829999999
8820.0 0.00519751177
8830.0 0.00512198275
8840.0 0.005037878819999999
8850.0 0.004947019679999999
8860.0 0.00485125169
8870.0 0.00475226249
8880.0 0.004651439330000001
8890.0 0.00454979715
8900.0 0.00444800958
8910.0 0.00434653449
8920.0 0.00424578511
8930.0 0.0041462850299999994
8940.0 0.00404875748
8950.0 0.003954127500000001
8960.0 0.00386346893
8970.0 0.00377791823
8980.0 0.00369858768
8990.0 0.00362648726
9000.0 0.00356246389
9010.0 0.00350716392
9020.0 0.00346102848
9030.0 0.0034243096
9040.0 0.0033971012100000005
9050.0 0.00337935898
9060.0 0.0033709080700000003
9070.0 0.00337142639
9080.0 0.0033804291
9090.0 0.0033972546599999997
9100.0 0.00342108436
9110.0 0.00345099502
9120.0 0.00348605509
9130.0 0.0035254331499999995
9140.0 0.0035684933900000004
9150.0 0.00361484149
9160.0 0.0036642985799999997
9170.0 0.0037168094799999996
9180.0 0.0037723004099999994
9190.0 0.0038305181000000002
9200.0 0.0038908704499999998
9210.0 0.00395231617
9220.0 0.00401334649
9230.0 0.004072097689999999
9240.0 0.00412661398
9250.0 0.0041751987299999994
9260.0 0.00421675113
9270.0 0.004250950329999999
9280.0 0.004278207700000001
9290.0 0.0042994334
9300.0 0.004315727619999999
9310.0 0.00432814312
9320.0 0.00433757115
9330.0 0.004344723469999999
