#lamb flux
1000.0 2.7022734600000007e-06
1010.0 3.274138205e-06
1020.0 3.979880805e-06
1030.0 4.846562450000001e-06
1040.0 5.90779707e-06
1050.0 7.201976145e-06
1060.0 8.77193853e-06
1070.0 1.066420365e-05
1080.0 1.2927706025000001e-05
1090.0 1.5612038645000003e-05
1100.0 1.8765273345e-05
1110.0 2.24315114e-05
1120.0 2.664835845e-05
1130.0 3.1444548650000004e-05
1140.0 3.6837892650000005e-05
1150.0 4.28336944e-05
1160.0 4.9423698350000004e-05
1170.0 5.6585541900000006e-05
1180.0 6.428272955000001e-05
1190.0 7.246504885e-05
1200.0 8.10694399e-05
1210.0 9.002125965e-05
1220.0 9.923596215000001e-05
1230.0 0.00010862115480000001
1240.0 0.00011807895775
1250.0 0.0001275086077
1260.0 0.00013680919565
1270.0 0.000145882407
1280.0 0.00015463516295
1290.0 0.0001629820034
1300.0 0.0001708471808
1310.0 0.00017816634040000002
1320.0 0.00018488775635
1330.0 0.00019097315184999998
1340.0 0.00019639806105
1350.0 0.00020115179849999998
1360.0 0.00020523705495
1370.0 0.00020866916650000002
1380.0 0.0002114751887
1390.0 0.00021369264870000002
1400.0 0.0002153682363
1410.0 0.00021655627175
1420.0 0.0002173171806
1430.0 0.00021771584635
1440.0 0.00021781999365000002
1450.0 0.00021769858325000003
1460.0 0.0002174202422
1470.0 0.00021705187735000003
1480.0 0.00021665731940000003
1490.0 0.00021629625130000003
1500.0 0.00021602326120000003
1510.0 0.00021588722675000002
1520.0 0.00021593082160000003
1530.0 0.0002161904308
1540.0 0.00021669617900000002
1550.0 0.00021747228295000004
1560.0 0.00021853753560000002
1570.0 0.00021990598760000002
1580.0 0.00022158768285
1590.0 0.00022358948570000003
1600.0 0.00022591582825
1610.0 0.00022856946000000003
1620.0 0.00023155199775000003
1630.0 0.00023486444025000002
1640.0 0.00023850735150000003
1650.0 0.00024248106050000001
1660.0 0.000246785579
1670.0 0.000251420249
1680.0 0.00025638344900000005
1690.0 0.000261671889
1700.0 0.000267279741
1710.0 0.0002731974405
1720.0 0.0002794104175
1730.0 0.00028589724
1740.0 0.00029262794549999996
1750.0 0.000299562302
1760.0 0.000306648398
1770.0 0.000313822384
1780.0 0.00032100931850000006
1790.0 0.000328126223
1800.0 0.0003350872755
1810.0 0.00034181128350000003
1820.0 0.00034823146
1830.0 0.0003543058575
1840.0 0.000360027802
1850.0 0.0003654339770000001
1860.0 0.0003706089825
1870.0 0.000375684395
1880.0 0.000380831929
1890.0 0.00038625091150000003
1900.0 0.00039215162050000005
1910.0 0.000398736391
1920.0 0.000406182037
1930.0 0.0004146255165
1940.0 0.000424155871
1950.0 0.0004348127215
1960.0 0.00044659099200000007
1970.0 0.00045945070900000007
1980.0 0.0004733283285
1990.0 0.0004881477105
2000.0 0.000503827451
2010.0 0.0005202834435000001
2020.0 0.0005374265055000001
2030.0 0.000555155164
2040.0 0.000573345856
2050.0 0.0005918422594999999
2060.0 0.0006104454470000001
2070.0 0.0006289068825
2080.0 0.0006469253900000001
2090.0 0.000664149198
2100.0 0.0006801840705
2110.0 0.0006946085350000001
2120.0 0.0007069967245
2130.0 0.0007169484575000001
2140.0 0.0007241247700000001
2150.0 0.0007282856565
2160.0 0.0007293244975000001
2170.0 0.0007272936980000001
2180.0 0.0007224155445000001
2190.0 0.000715074732
2200.0 0.0007057916445
2210.0 0.000695179068
2220.0 0.0006838884225000001
2230.0 0.000672553785
2240.0 0.000661741811
2250.0 0.000651915145
2260.0 0.000643413268
2270.0 0.0006364515575
2280.0 0.0006311357165
2290.0 0.000627486284
2300.0 0.0006254665060000001
2310.0 0.000625007645
2320.0 0.0006260265345
2330.0 0.000628433757
2340.0 0.0006321322810000001
2350.0 0.000637009753
2360.0 0.000642928416
2370.0 0.0006497172605
2380.0 0.0006571703795
2390.0 0.0006650531490000001
2400.0 0.0006731162575
2410.0 0.0006811148115
2420.0 0.0006888282635000001
2430.0 0.0006960761335
2440.0 0.0007027259285
2450.0 0.000708690722
2460.0 0.000713917404
2470.0 0.000718368398
2480.0 0.0007220024145
2490.0 0.0007247601865
2500.0 0.0007265597695000002
2510.0 0.000727304414
2520.0 0.0007269018355
2530.0 0.0007252913805
2540.0 0.000722471874
2550.0 0.000718523357
2560.0 0.000713616839
2570.0 0.000708008564
2580.0 0.000702019824
2590.0 0.0006960062445000001
2600.0 0.000690322981
2610.0 0.000685291913
2620.0 0.0006811762875000001
2630.0 0.0006781656085000001
2640.0 0.0006763712660000001
2650.0 0.00067598126
2660.0 0.0006848433685000001
2670.0 0.0007758227255
2680.0 0.001004512905
2690.0 0.0012345157005
2700.0 0.001459268831
2710.0 0.001613303717
2720.0 0.0016947503225000003
2730.0 0.001818266299
2740.0 0.0019433031955
2750.0 0.0019984523610000002
2760.0 0.002008108135
2770.0 0.0020024616960000003
2780.0 0.001998927531
2790.0 0.0020170675335
2800.0 0.0020675496695000003
2810.0 0.0021259100865000003
2820.0 0.0021810453635
2830.0 0.0021975828775
2840.0 0.0021254232840000006
2850.0 0.0021154538320000004
2860.0 0.002356531355
2870.0 0.00276139805
2880.0 0.0029870854700000003
2890.0 0.0029396453150000003
2900.0 0.00303086315
2910.0 0.0032470185
2920.0 0.0033827765900000003
2930.0 0.0034344669550000003
2940.0 0.003465005205
2950.0 0.0034372660400000003
2960.0 0.003310993725
2970.0 0.00314069886
2980.0 0.00301103573
2990.0 0.0028650920350000004
3000.0 0.00261638613
3010.0 0.002410749145
3020.0 0.00238373237
3030.0 0.0024562077800000005
3040.0 0.002433489625
3050.0 0.0023396351604999996
3060.0 0.0024397789300000003
3070.0 0.002707774105
3080.0 0.002868767435
3090.0 0.002874472765
3100.0 0.0028164526750000004
3110.0 0.002770977355
3120.0 0.0028054452750000004
3130.0 0.003001054105
3140.0 0.0033061266400000004
3150.0 0.00351649394
3160.0 0.00355022819
3170.0 0.0035042330500000005
3180.0 0.0035331018600000003
3190.0 0.0037692018949999997
3200.0 0.004161671165
3210.0 0.00446995427
3220.0 0.0044543056200000005
3230.0 0.00412926537
3240.0 0.0037744736500000004
3250.0 0.0035870832400000004
3260.0 0.003546014875
3270.0 0.0036615707200000004
3280.0 0.0038397061250000004
3290.0 0.003865272715
3300.0 0.003833362535
3310.0 0.0038831867650000003
3320.0 0.00393403254
3330.0 0.00393225218
3340.0 0.003847731845
3350.0 0.0036977376900000007
3360.0 0.003631918185
3370.0 0.00370647217
3380.0 0.0038949847050000004
3390.0 0.004141041925000001
3400.0 0.004378418010000001
3410.0 0.00456090068
3420.0 0.004667341815
3430.0 0.00470751013
3440.0 0.004718278770000001
3450.0 0.004731725705000001
3460.0 0.00477436105
3470.0 0.00488196003
3480.0 0.00506954502
3490.0 0.0053288553
3500.0 0.0056413254
3510.0 0.005976910570000001
3520.0 0.0062995336100000006
3530.0 0.006568726580000001
3540.0 0.0067848010900000005
3550.0 0.006994997310000001
3560.0 0.007210821310000001
3570.0 0.007408647365
3580.0 0.007562162760000001
3590.0 0.007646931255
3600.0 0.007645129510000001
3610.0 0.007566203350000001
3620.0 0.00753727438
3630.0 0.007737556655
3640.0 0.008168240450000001
3650.0 0.00870419038
3660.0 0.009233011585
3670.0 0.00967282419
3680.0 0.009953806640000002
3690.0 0.01001797715
3700.0 0.009841732320000001
3710.0 0.00945320447
3720.0 0.008924558340000001
3730.0 0.008328474965
3740.0 0.007699939970000001
3750.0 0.007054962730000001
3760.0 0.006434501160000001
3770.0 0.0059104847650000005
3780.0 0.005554007390000001
3790.0 0.005408714645
3800.0 0.005489765440000001
3810.0 0.005822595705
3820.0 0.006447498775
3830.0 0.007355072535000001
3840.0 0.008485429820000001
3850.0 0.009761781325
3860.0 0.011094432250000001
3870.0 0.012391151910000002
3880.0 0.01358420226
3890.0 0.01464588526
3900.0 0.01557907449
3910.0 0.01640039808
3920.0 0.017129261860000005
3930.0 0.017777176600000003
3940.0 0.01832865721
3950.0 0.018726587175000003
3960.0 0.018889777755000003
3970.0 0.018759157705
3980.0 0.018333734385
3990.0 0.017674355170000003
4000.0 0.016886259875
4010.0 0.016090155075
4020.0 0.015386648500000003
4030.0 0.014829003605
4040.0 0.014417242245
4050.0 0.01411226559
4060.0 0.013859364935000002
4070.0 0.01361276322
4080.0 0.013355940415000002
4090.0 0.013105601025
4100.0 0.012891329905
4110.0 0.012733132135000002
4120.0 0.012636656410000002
4130.0 0.012605478960000001
4140.0 0.012652842034999999
4150.0 0.012793565205000001
4160.0 0.013020686594999999
4170.0 0.013294302735
4180.0 0.013559155255
4190.0 0.013775711515
4200.0 0.013935068540000001
4210.0 0.014048820525
4220.0 0.014134190385
4230.0 0.01421148635
4240.0 0.014305848720000002
4250.0 0.014442146605000003
4260.0 0.014632956265000002
4270.0 0.014872080985
4280.0 0.01513548285
4290.0 0.015382386775000003
4300.0 0.01555261819
4310.0 0.01557024037
4320.0 0.015366445315
4330.0 0.014914377460000001
4340.0 0.014248283825000001
4350.0 0.013448672120000001
4360.0 0.012606632575
4370.0 0.011795909365
4380.0 0.01106709705
4390.0 0.01045630338
4400.0 0.009992409855000002
4410.0 0.009695336720000001
4420.0 0.00957176385
4430.0 0.009615543410000002
4440.0 0.009812534745
4450.0 0.010149531560000001
4460.0 0.010622168730000001
4470.0 0.01123625193
4480.0 0.01200529319
4490.0 0.012951078185000001
4500.0 0.0141042911
4510.0 0.015494197660000004
4520.0 0.01712855357
4530.0 0.018979904485
4540.0 0.02098431748
4550.0 0.023044243820000004
4560.0 0.0250373653
4570.0 0.026839460450000005
4580.0 0.0283497608
4590.0 0.029498621750000002
4600.0 0.030238911700000003
4610.0 0.0305361397
4620.0 0.030359833300000003
4630.0 0.029680812549999998
4640.0 0.0284819812
4650.0 0.0268021636
4660.0 0.0247867378
4670.0 0.022653005715000004
4680.0 0.02058608178
4690.0 0.01869866565
4700.0 0.017056465440000005
4710.0 0.01569621635
4720.0 0.014633003265000001
4730.0 0.01387096336
4740.0 0.013413565235000001
4750.0 0.013264325430000001
4760.0 0.013413124140000001
4770.0 0.013817229904999999
4780.0 0.014393914735
4790.0 0.015033096405000002
4800.0 0.015625274315000003
4810.0 0.016093744465000004
4820.0 0.01642265728
4830.0 0.016667193345
4840.0 0.01692859818
4850.0 0.017304483735
4860.0 0.017865397715000002
4870.0 0.0186645554
4880.0 0.019727972465
4890.0 0.02102273669
4900.0 0.022441405135000002
4910.0 0.023812119950000002
4920.0 0.02492872715
4930.0 0.0255968862
4940.0 0.0256853214
4950.0 0.025163628450000003
4960.0 0.02411160865
4970.0 0.022698636605000003
4980.0 0.02114336407
4990.0 0.01966199457
5000.0 0.018402512305
5010.0 0.01739107207
5020.0 0.016567738760000002
5030.0 0.015881082155
5040.0 0.015314653195000002
5050.0 0.014852389395
5060.0 0.014467196665000001
5070.0 0.01413602691
5080.0 0.013850138835
5090.0 0.013614068645000003
5100.0 0.013440299540000002
5110.0 0.013344671695000001
5120.0 0.013343000375
5130.0 0.013447800975
5140.0 0.013666258150000003
5150.0 0.01400143677
5160.0 0.01445512871
5170.0 0.015028073515
5180.0 0.015716384050000004
5190.0 0.016507415905
5200.0 0.01738030249
5210.0 0.018309737595
5220.0 0.019269644680000003
5230.0 0.02023585423
5240.0 0.021187951325
5250.0 0.022109042050000003
5260.0 0.02298182406
5270.0 0.023783024600000004
5280.0 0.024481616150000003
5290.0 0.02504430015
5300.0 0.025446676550000002
5310.0 0.0256853872
5320.0 0.025786192800000003
5330.0 0.025803846000000002
5340.0 0.025812247250000003
5350.0 0.025888563500000003
5360.0 0.026098524249999998
5370.0 0.0264884386
5380.0 0.0270841871
5390.0 0.02789353885
5400.0 0.02890857435
5410.0 0.03010479485
5420.0 0.031439761700000006
5430.0 0.03285494345000001
5440.0 0.0342810198
5450.0 0.0356458857
5460.0 0.0368843827
5470.0 0.0379476214
5480.0 0.03880802455
5490.0 0.03945698645000001
5500.0 0.03989580665
5510.0 0.040126181850000005
5520.0 0.0401479405
5530.0 0.039963808600000005
5540.0 0.03958356685000001
5550.0 0.0390237945
5560.0 0.038304953
5570.0 0.03744715365
5580.0 0.03646612735
5590.0 0.0353722564
5600.0 0.03417327935000001
5610.0 0.03288102845
5620.0 0.0315164187
5630.0 0.030110275050000003
5640.0 0.028701280850000007
5650.0 0.027332859400000003
5660.0 0.026050184750000004
5670.0 0.02489749095
5680.0 0.0239157385
5690.0 0.02314089979
5700.0 0.02260247155
5710.0 0.022320993955
5720.0 0.0223039158
5730.0 0.022541473774999998
5740.0 0.02300552804
5750.0 0.023652726500000006
5760.0 0.024430597650000004
5770.0 0.0252837393
5780.0 0.0261580474
5790.0 0.027002552800000003
5800.0 0.027770417650000004
5810.0 0.028421118550000003
5820.0 0.0289242888
5830.0 0.0292629896
5840.0 0.029433855749999998
5850.0 0.029442191200000002
5860.0 0.029294771
5870.0 0.028996650000000002
5880.0 0.028552408350000003
5890.0 0.027968292350000003
5900.0 0.027252202700000002
5910.0 0.026413043550000005
5920.0 0.02546338505
5930.0 0.0244258248
5940.0 0.02333801685
5950.0 0.022250782535000003
5960.0 0.02121869943
5970.0 0.020288064415
5980.0 0.019488092220000003
5990.0 0.018828276140000003
6000.0 0.018301305795
6010.0 0.017889229535
6020.0 0.017570171915000002
6030.0 0.017323167175
6040.0 0.017129721050000005
6050.0 0.01697264752
6060.0 0.016834449425000002
6070.0 0.01669732528
6080.0 0.016546055075
6090.0 0.016372208655000005
6100.0 0.016177091915000004
6110.0 0.015972583635
6120.0 0.015779830760000002
6130.0 0.015625914925
6140.0 0.015538336770000001
6150.0 0.015537733525000002
6160.0 0.0156307618
6170.0 0.015806112925
6180.0 0.016035816965
6190.0 0.016281881705
6200.0 0.016506236205
6210.0 0.016680663075
6220.0 0.016793184130000003
6230.0 0.016848960910000002
6240.0 0.016866987055000005
6250.0 0.016875739395000002
6260.0 0.01690925486
6270.0 0.017002735980000003
6280.0 0.017187329655
6290.0 0.017485387205000005
6300.0 0.017907693015000004
6310.0 0.01845339051
6320.0 0.019112615800000003
6330.0 0.019870954925
6340.0 0.02071394528
6350.0 0.02162941222
6360.0 0.022606995535
6370.0 0.02363550335
6380.0 0.02469988885
6390.0 0.0257797303
6400.0 0.02685010125
6410.0 0.02788431275
6420.0 0.02885718925
6430.0 0.029747710000000004
6440.0 0.0305404966
6450.0 0.031226226600000004
6460.0 0.0318010601
6470.0 0.032265126350000006
6480.0 0.03262041345
6490.0 0.03286880845
6500.0 0.033011023400000006
6510.0 0.033046684650000005
6520.0 0.03297529165000001
6530.0 0.03279713815
6540.0 0.032513511950000004
6550.0 0.03212589355
6560.0 0.03163481875
6570.0 0.03103945095
6580.0 0.030338248550000002
6590.0 0.029530830850000002
6600.0 0.02862068055
6610.0 0.02761749845
6620.0 0.026538448950000005
6630.0 0.025407805199999998
6640.0 0.024255109049999998
6650.0 0.023112277965000004
6660.0 0.022010249225000004
6670.0 0.020975808835
6680.0 0.020029217085000002
6690.0 0.019182975035
6700.0 0.018441772345000003
6710.0 0.017803349255
6720.0 0.017259905645000004
6730.0 0.016799765775
6740.0 0.016409122925000002
6750.0 0.016073728105
6760.0 0.015780457975000002
6770.0 0.015518758685000003
6780.0 0.015281802780000001
6790.0 0.015066809035000002
6800.0 0.014874083420000002
6810.0 0.014705248374999999
6820.0 0.014561686640000002
6830.0 0.01444352535
6840.0 0.01434882223
6850.0 0.014273115805000002
6860.0 0.014210028175
6870.0 0.014152720604999999
6880.0 0.014095368150000002
6890.0 0.01403393445
6900.0 0.01396615575
6910.0 0.01389099617
6920.0 0.013807842830000002
6930.0 0.013715715545000002
6940.0 0.01361282949
6950.0 0.013496804115000002
6960.0 0.013365505149999998
6970.0 0.013218116675
6980.0 0.013055903930000001
6990.0 0.01288235784
7000.0 0.012702793870000001
7010.0 0.012523693320000001
7020.0 0.012352030755000002
7030.0 0.012194687445
7040.0 0.012057982775
7050.0 0.011947365220000002
7060.0 0.01186729743
7070.0 0.011821300175
7080.0 0.011812114965
7090.0 0.011841919075
7100.0 0.01191242824
7110.0 0.012024606195
7120.0 0.012177807395
7130.0 0.012368608125
7140.0 0.012589889765000003
7150.0 0.012830790145000001
7160.0 0.013077875725
7170.0 0.013317113245
7180.0 0.013535878975
7190.0 0.013724402555
7200.0 0.013876522285000002
7210.0 0.013990017415000002
7220.0 0.014066750555000002
7230.0 0.014112533960000001
7240.0 0.01413648093
7250.0 0.014149831045
7260.0 0.014164610430000002
7270.0 0.014192535010000002
7280.0 0.014244248405000002
7290.0 0.014328631970000002
7300.0 0.014451963495000001
7310.0 0.014617083895
7320.0 0.014823017450000002
7330.0 0.015065305505000001
7340.0 0.015336814635000003
7350.0 0.015628476190000004
7360.0 0.015929551845
7370.0 0.016227439490000002
7380.0 0.01650740345
7390.0 0.016752723475000002
7400.0 0.016945609830000003
7410.0 0.017069002455000003
7420.0 0.017108941175000003
7430.0 0.017057454555
7440.0 0.01691497805
7450.0 0.016691228205
7460.0 0.01640426618
7470.0 0.01607803965
7480.0 0.015739146855
7490.0 0.015413495370000004
7500.0 0.015123260970000002
7510.0 0.014884678160000001
7520.0 0.014707635505000002
7530.0 0.014597791805
7540.0 0.0145602851
7550.0 0.014602218265
7560.0 0.014731257235
7570.0 0.01495065488
7580.0 0.015254317180000003
7590.0 0.015625776040000004
7600.0 0.01604173497
7610.0 0.01647758007
7620.0 0.016911758080000002
7630.0 0.0173276968
7640.0 0.017713731535000003
7650.0 0.0180620859
7660.0 0.018367676845
7670.0 0.018627082065
7680.0 0.018837797635000004
7690.0 0.018997887625
7700.0 0.019106053425000002
7710.0 0.019161987655
7720.0 0.01916671045
7730.0 0.019122572045
7740.0 0.019032803455
7750.0 0.018900894195000004
7760.0 0.01873009925
7770.0 0.01852326541
7780.0 0.018282934435000002
7790.0 0.018011556435
7800.0 0.017711683980000004
7810.0 0.01738611263
7820.0 0.017037992090000002
7830.0 0.01667087086
7840.0 0.016288612575
7850.0 0.015895153720000003
7860.0 0.015494177215
7870.0 0.015088861200000001
7880.0 0.014681853420000002
7890.0 0.01427551351
7900.0 0.013872327770000002
7910.0 0.013475290570000001
7920.0 0.013088011745000001
7930.0 0.01271436762
7940.0 0.012357714935
7950.0 0.01202002158
7960.0 0.011701541355000001
7970.0 0.011401446120000002
7980.0 0.011119025
7990.0 0.01085432053
8000.0 0.01060744786
8010.0 0.010377313065000001
8020.0 0.010160678315000001
8030.0 0.009952155295
8040.0 0.009745089745
8050.0 0.009532238730000002
8060.0 0.009305898480000001
8070.0 0.009057851750000002
8080.0 0.008779679430000001
8090.0 0.008463714410000002
8100.0 0.008104523725
8110.0 0.007700485170000001
8120.0 0.007254926815
8130.0 0.006776425924999999
8140.0 0.006278154015000001
8150.0 0.005776456745
8160.0 0.005289030555
8170.0 0.004833069690000001
8180.0 0.004423638825
8190.0 0.00407241229
8200.0 0.00378686661
8210.0 0.0035699879300000003
8220.0 0.00342053122
8230.0 0.0033337760350000004
8240.0 0.00330262843
8250.0 0.0033188401400000003
8260.0 0.0033741182500000005
8270.0 0.003460953805
8280.0 0.0035730986250000004
8290.0 0.00370573944
8300.0 0.0038555025900000005
8310.0 0.0040204526150000005
8320.0 0.00420021892
8330.0 0.00439626297
8340.0 0.0046121779150000005
8350.0 0.004853798805
8360.0 0.0051288710050000005
8370.0 0.005446119595
8380.0 0.005813759940000001
8390.0 0.006237762685
8400.0 0.006720321790000001
8410.0 0.007258857190000001
8420.0 0.00784654331
8430.0 0.008473834920000001
8440.0 0.009130377685
8450.0 0.0098066299
8460.0 0.010494521430000002
8470.0 0.011186938355000002
8480.0 0.01187643658
8490.0 0.01255403652
8500.0 0.013208943685
8510.0 0.013829564820000003
8520.0 0.01440549953
8530.0 0.014929667500000002
8540.0 0.015399680425000001
8550.0 0.015817952225
8560.0 0.016190632615000002
8570.0 0.016525973385
8580.0 0.016832881035
8590.0 0.017120132580000003
8600.0 0.01739612128
8610.0 0.017668557955
8620.0 0.017943698305000002
8630.0 0.018225260970000004
8640.0 0.018513663780000002
8650.0 0.018806076629999998
8660.0 0.019097270065
8670.0 0.01938085984
8680.0 0.019650484975000004
8690.0 0.019900614980000002
8700.0 0.020126884965
8710.0 0.020326466940000003
8720.0 0.020497431085
8730.0 0.02063780622
8740.0 0.020745346215000002
8750.0 0.020817694255
8760.0 0.020852786805
8770.0 0.020849212220000003
8780.0 0.020806315555
8790.0 0.020724041350000003
8800.0 0.020602704505000003
8810.0 0.020442900040000003
8820.0 0.020245610255
8830.0 0.020012409885
8840.0 0.019745586890000003
8850.0 0.019448099685
8860.0 0.019123416165
8870.0 0.018775358370000002
8880.0 0.018408032455
8890.0 0.018025822345
8900.0 0.017633368585000003
8910.0 0.017235462354999998
8920.0 0.01686537566
8930.0 0.016507515075
8940.0 0.016157148405
8950.0 0.01581721456
8960.0 0.01548985439
8970.0 0.015176616545
8980.0 0.014879015834999999
8990.0 0.01459925045
9000.0 0.014340567855000002
9010.0 0.014106767295
9020.0 0.013900861470000001
9030.0 0.013723628935000001
9040.0 0.013572992995
9050.0 0.013444600980000002
9060.0 0.013333167270000001
9070.0 0.013233749815000001
9080.0 0.013142378995000002
