#lamb flux
1000.0 2.55602956e-05
1010.0 3.0984546475000004e-05
1020.0 3.76870086e-05
1030.0 4.5929911150000006e-05
1040.0 5.604021665000001e-05
1050.0 6.8393723925e-05
1060.0 8.3413085825e-05
1070.0 0.00010156186425
1080.0 0.00012333403325
1090.0 0.00014923889875000004
1100.0 0.00017978199175000003
1110.0 0.00021544323925
1120.0 0.000256654126
1130.0 0.00030377588300000005
1140.0 0.00035708016425
1150.0 0.00041673365475
1160.0 0.0004827867855
1170.0 0.0005551668145000001
1180.0 0.0006336748667500001
1190.0 0.0007179865632500001
1200.0 0.0008076561279999999
1210.0 0.0009021237602500001
1220.0 0.0010007265124999999
1230.0 0.0011027122950000002
1240.0 0.0012072571825000001
1250.0 0.0013134848300000001
1260.0 0.0014204881825000003
1270.0 0.0015273517675000001
1280.0 0.0016331748200000002
1290.0 0.0017370916325000001
1300.0 0.0018382924600000002
1310.0 0.0019360404475
1320.0 0.0020296860600000004
1330.0 0.0021186788300000003
1340.0 0.002202575405
1350.0 0.002281045005
1360.0 0.0023538710875000003
1370.0 0.002420951255
1380.0 0.0024822938325000004
1390.0 0.0025380125025000005
1400.0 0.0025883185350000005
1410.0 0.00263351163
1420.0 0.00267396854
1430.0 0.0027101305825000003
1440.0 0.0027424903200000002
1450.0 0.002771576945
1460.0 0.0027979415725
1470.0 0.0028221429950000005
1480.0 0.0028447336225000002
1490.0 0.0028662469025000003
1500.0 0.0028871859425
1510.0 0.0029080142600000003
1520.0 0.00292914903
1530.0 0.0029509556275
1540.0 0.0029737455925000003
1550.0 0.0029977757975000003
1560.0 0.0030232504825000004
1570.0 0.00305032477
1580.0 0.0030791101225
1590.0 0.0031096813725
1600.0 0.0031420859725
1610.0 0.0031763537075000002
1620.0 0.003212507795
1630.0 0.0032505754300000004
1640.0 0.0032905976825
1650.0 0.0033326356950000003
1660.0 0.0033767749375000003
1670.0 0.00342312234
1680.0 0.0034718001875
1690.0 0.003522934465
1700.0 0.003576639595
1710.0 0.0036330038225000005
1720.0 0.0036920762649999997
1730.0 0.0037538582175000003
1740.0 0.0038183032450000006
1750.0 0.0038853234725
1760.0 0.0039548029975000005
1770.0 0.004026615095
1780.0 0.004100638035
1790.0 0.0041767658125
1800.0 0.004254909720000001
1810.0 0.004334987155
1820.0 0.004416898865
1830.0 0.004500496665000001
1840.0 0.004585545975
1850.0 0.004671690115
1860.0 0.0047584237575
1870.0 0.0048450796075
1880.0 0.004930833952500001
1890.0 0.0050147321000000005
1900.0 0.005095730557500001
1910.0 0.0051727549375
1920.0 0.0052447656325000005
1930.0 0.0053108270975
1940.0 0.005370172877500001
1950.0 0.00542226342
1960.0 0.0054668287175
1970.0 0.005503891155000001
1980.0 0.005533762735
1990.0 0.00555700817
2000.0 0.0055743714375000005
2010.0 0.005586661912500001
2020.0 0.00559461016
2030.0 0.005598709945
2040.0 0.005599074025000001
2050.0 0.005595344887500001
2060.0 0.0055866933625
2070.0 0.005571937484999999
2080.0 0.005549791135000001
2090.0 0.0055192236775
2100.0 0.0054798865725
2110.0 0.005432533325000001
2120.0 0.0053793514675
2130.0 0.0053241280425
2140.0 0.005272187812500001
2150.0 0.0052300871775
2160.0 0.0052050814675
2170.0 0.005204430822500001
2180.0 0.0052346370675
2190.0 0.0053007199925
2200.0 0.005405637285000001
2210.0 0.005549927017500001
2220.0 0.005731617830000001
2230.0 0.0059464121725
2240.0 0.0061881021850000014
2250.0 0.0064491565175000005
2260.0 0.006721389845000001
2270.0 0.006996632012500001
2280.0 0.0072673204975
2290.0 0.0075269640200000005
2300.0 0.007770450660000001
2310.0 0.007994197985
2320.0 0.0081961668325
2330.0 0.008375769457500001
2340.0 0.00853371145
2350.0 0.008671800352500002
2360.0 0.00879274623
2370.0 0.0088999710275
2380.0 0.008997424125
2390.0 0.0090894028875
2400.0 0.009180358692500001
2410.0 0.009274678075
2420.0 0.0093764216
2430.0 0.0094890274
2440.0 0.009614980025
2450.0 0.0097554792
2460.0 0.009910160475
2470.0 0.0100769093
2480.0 0.010251848075
2490.0 0.01042952855
2500.0 0.010603357325000002
2510.0 0.01076623595
2520.0 0.010911338850000002
2530.0 0.011032924550000002
2540.0 0.011127055325000001
2550.0 0.0111920893
2560.0 0.011228851575
2570.0 0.011240476975
2580.0 0.011231933675
2590.0 0.011209354425000002
2600.0 0.011179284525
2610.0 0.0111479927
2620.0 0.011120920725000002
2630.0 0.011102343950000001
2640.0 0.0110952455
2650.0 0.01110453435
2660.0 0.011297915775000002
2670.0 0.013220199900000002
2680.0 0.01793690625
2690.0 0.021588631424999997
2700.0 0.023402654475
2710.0 0.0247080413
2720.0 0.026061456900000002
2730.0 0.027805143875
2740.0 0.029605224400000005
2750.0 0.030896954525000006
2760.0 0.032329004375
2770.0 0.03405410995
2780.0 0.034493352675000005
2790.0 0.0337363003
2800.0 0.033486286675000004
2810.0 0.034478830175
2820.0 0.035065080375
2830.0 0.035318055849999995
2840.0 0.0371496021
2850.0 0.041336632175
2860.0 0.04752501445
2870.0 0.054205282125000004
2880.0 0.06013072760000001
2890.0 0.06507142825000001
2900.0 0.0686826338
2910.0 0.0706605354
2920.0 0.071131372425
2930.0 0.0712886363
2940.0 0.0709572606
2950.0 0.068453652825
2960.0 0.065009078625
2970.0 0.062667108125
2980.0 0.06116721415
2990.0 0.059977353350000005
3000.0 0.059306643250000006
3010.0 0.05879397865000001
3020.0 0.05653025297500001
3030.0 0.052630974675
3040.0 0.049324922925
3050.0 0.048188529900000006
3060.0 0.048633798075000005
3070.0 0.048997615375
3080.0 0.048547132975000004
3090.0 0.0483631736
3100.0 0.05057965490000001
3110.0 0.056532371225
3120.0 0.0647150239
3130.0 0.07185977755
3140.0 0.076629341175
3150.0 0.07984662252500001
3160.0 0.082442973575
3170.0 0.0838791665
3180.0 0.0823609418
3190.0 0.07801670890000001
3200.0 0.073000765975
3210.0 0.0686175693
3220.0 0.065386154875
3230.0 0.0638265873
3240.0 0.06308372165000001
3250.0 0.061519616949999995
3260.0 0.059897567474999996
3270.0 0.05967394225
3280.0 0.06101862862500001
3290.0 0.06320254530000001
3300.0 0.06542473847500001
3310.0 0.06714759630000001
3320.0 0.0682701171
3330.0 0.069022594425
3340.0 0.07003066220000001
3350.0 0.0719617921
3360.0 0.074639061225
3370.0 0.077605023775
3380.0 0.08097565902500001
3390.0 0.08437198430000001
3400.0 0.08728049972500002
3410.0 0.08976962107500001
3420.0 0.09223568865000001
3430.0 0.09491314
3440.0 0.09779103700000001
3450.0 0.10072667250000002
3460.0 0.10361104450000001
3470.0 0.10678155600000001
3480.0 0.11106017124999999
3490.0 0.11710789525000001
3500.0 0.12449194825000001
3510.0 0.131691214
3520.0 0.139115819
3530.0 0.14906177050000002
3540.0 0.16088389025
3550.0 0.1713041355
3560.0 0.17746539400000003
3570.0 0.17968133325000002
3580.0 0.179195218
3590.0 0.176341371
3600.0 0.1727398835
3610.0 0.171699795
3620.0 0.17516624175
3630.0 0.1823982895
3640.0 0.1918412075
3650.0 0.20339087775
3660.0 0.21595722475000004
3670.0 0.22603958600000004
3680.0 0.22963540325
3690.0 0.225023011
3700.0 0.21389039550000002
3710.0 0.19994701950000002
3720.0 0.18678684099999998
3730.0 0.17643704375
3740.0 0.16892041975000002
3750.0 0.16302951100000002
3760.0 0.15772949225000002
3770.0 0.15297808175000002
3780.0 0.14957430375
3790.0 0.14870451699999998
3800.0 0.151462386
3810.0 0.158571233
3820.0 0.17042915025
3830.0 0.18714848825
3840.0 0.20840883624999998
3850.0 0.2331720205
3860.0 0.25952046975000004
3870.0 0.2854086575
3880.0 0.3093054035
3890.0 0.32980827825000003
3900.0 0.34609825899999996
3910.0 0.35849941949999997
3920.0 0.368006477
3930.0 0.3752060665
3940.0 0.379190652
3950.0 0.37760459150000003
3960.0 0.368275319
3970.0 0.35115117325
3980.0 0.32873619400000004
3990.0 0.30489780625
4000.0 0.283319323
4010.0 0.26654105325
4020.0 0.2556730895
4030.0 0.25051126575
4040.0 0.249777269
4050.0 0.25144218575
4060.0 0.25334190450000005
4070.0 0.25397988625000006
4080.0 0.2529774175
4090.0 0.25092229875000005
4100.0 0.24883359325
4110.0 0.24767278300000004
4120.0 0.24811725475000002
4130.0 0.25053667550000003
4140.0 0.25501964175
4150.0 0.26126519550000005
4160.0 0.26834340650000005
4170.0 0.27473667350000003
4180.0 0.278951399
4190.0 0.28027452825000004
4200.0 0.27898992525
4210.0 0.27594169875
4220.0 0.2719453935
4230.0 0.26752038775000003
4240.0 0.262985936
4250.0 0.25864310725
4260.0 0.25479358100000005
4270.0 0.2515753025
4280.0 0.24875688300000004
4290.0 0.24570867500000002
4300.0 0.24159297075000002
4310.0 0.23563423175
4320.0 0.22736406575
4330.0 0.21683188625000002
4340.0 0.20469714425
4350.0 0.19205442000000003
4360.0 0.18003043750000003
4370.0 0.16943967775
4380.0 0.1607393035
4390.0 0.1542217535
4400.0 0.15018960450000002
4410.0 0.14895793000000002
4420.0 0.150711952
4430.0 0.15534058725
4440.0 0.16237861625000002
4450.0 0.1711949485
4460.0 0.18130894475
4470.0 0.192580375
4480.0 0.20520125075
4490.0 0.21961208475
4500.0 0.23638450849999998
4510.0 0.255961264
4520.0 0.278263828
4530.0 0.302420203
4540.0 0.326862625
4550.0 0.3497985365
4560.0 0.36980723925000003
4570.0 0.38618055325
4580.0 0.39874834325
4590.0 0.40734518225
4600.0 0.411414692
4610.0 0.41002279825000004
4620.0 0.402278467
4630.0 0.387930903
4640.0 0.3677593355
4650.0 0.34355639600000004
4660.0 0.31772003600000004
4670.0 0.29261970775
4680.0 0.26997765025
4690.0 0.25052997850000003
4700.0 0.23411242175
4710.0 0.22008163325000002
4720.0 0.20782420850000002
4730.0 0.19711736125
4740.0 0.18823403125000002
4750.0 0.18177433075
4760.0 0.178257453
4770.0 0.177659792
4780.0 0.17920604975
4790.0 0.18161213200000004
4800.0 0.18360203825000002
4810.0 0.18437264650000001
4820.0 0.18381786850000004
4830.0 0.18249003100000002
4840.0 0.18135743325
4850.0 0.1814557885
4860.0 0.183567915
4870.0 0.18804314825000001
4880.0 0.19474971275000003
4890.0 0.2030673405
4900.0 0.21190237625
4910.0 0.21982599100000003
4920.0 0.22540156725000002
4930.0 0.22759326225
4940.0 0.2260481885
4950.0 0.22112595825
4960.0 0.21371355400000003
4970.0 0.20496176825
4980.0 0.19604779300000003
4990.0 0.18797972100000002
5000.0 0.18145648225000005
5010.0 0.17680346400000002
5020.0 0.17400840075
5030.0 0.1728343075
5040.0 0.172945807
5050.0 0.17399519175000003
5060.0 0.17566121850000002
5070.0 0.177677737
5080.0 0.17988591550000002
5090.0 0.18228961125000004
5100.0 0.18506498124999998
5110.0 0.18851528674999998
5120.0 0.19300341450000003
5130.0 0.1988796805
5140.0 0.20639531475000003
5150.0 0.21561110825
5160.0 0.226340581
5170.0 0.23815538400000003
5180.0 0.25044595150000004
5190.0 0.26251449125000004
5200.0 0.27367371900000004
5210.0 0.283324577
5220.0 0.29100522200000006
5230.0 0.2964204865
5240.0 0.29946890725
5250.0 0.30026555425
5260.0 0.29913465850000004
5270.0 0.296548451
5280.0 0.29302574575
5290.0 0.28903253925
5300.0 0.28492112700000005
5310.0 0.28091945675
5320.0 0.27716252300000005
5330.0 0.273737544
5340.0 0.27070218425
5350.0 0.2680611335
5360.0 0.265737108
5370.0 0.26358421675
5380.0 0.261436857
5390.0 0.25914578
5400.0 0.25658636975000004
5410.0 0.25363709975000004
5420.0 0.250177609
5430.0 0.24612557250000003
5440.0 0.24149563300000002
5450.0 0.2364439675
5460.0 0.23125875050000003
5470.0 0.22628093700000002
5480.0 0.22178786975000003
5490.0 0.217901251
5500.0 0.21456162175000001
5510.0 0.21157306700000003
5520.0 0.20868420875000002
5530.0 0.20564256825000002
5540.0 0.202210772
5550.0 0.19821196925
5560.0 0.19360330475
5570.0 0.18848436400000002
5580.0 0.18302877875
5590.0 0.17741315
5600.0 0.17178310975000002
5610.0 0.16623658775
5620.0 0.16082996275
5630.0 0.1556039625
5640.0 0.15060908275
5650.0 0.145918972
5660.0 0.141635334
5670.0 0.13789375525
5680.0 0.13486795075
5690.0 0.1327587565
5700.0 0.13175878525
5710.0 0.13200577875
5720.0 0.1335503345
5730.0 0.13635673825000003
5740.0 0.14033493200000002
5750.0 0.1453860055
5760.0 0.15143665250000002
5770.0 0.158440734
5780.0 0.1663386985
5790.0 0.17498927075
5800.0 0.18410890125
5810.0 0.19325737324999998
5820.0 0.20188791000000003
5830.0 0.2094449565
5840.0 0.21546802925000003
5850.0 0.219663154
5860.0 0.22193048625
5870.0 0.22234891925000003
5880.0 0.22112275775000004
5890.0 0.21850948475
5900.0 0.21476089450000002
5910.0 0.210106128
5920.0 0.20477475175000004
5930.0 0.19902262999999998
5940.0 0.19311982575000003
5950.0 0.18729708025000003
5960.0 0.18169074775000002
5970.0 0.17633066875000003
5980.0 0.17118102725
5990.0 0.1662037225
6000.0 0.1613993835
6010.0 0.15679753625000004
6020.0 0.15239895775
6030.0 0.14810314675000003
6040.0 0.14366943675
6050.0 0.13875198875
6060.0 0.13301248400000001
6070.0 0.1262729525
6080.0 0.11863089850000001
6090.0 0.11047524750000001
6100.0 0.10239560375000001
6110.0 0.0950340005
6120.0 0.08894938935
6130.0 0.084540039225
6140.0 0.08202448045
6150.0 0.08145460090000001
6160.0 0.08273596085
6170.0 0.08564773505
6180.0 0.08986817335000001
6190.0 0.09501250350000001
6200.0 0.10068304025000001
6210.0 0.10652265775000001
6220.0 0.11225627950000001
6230.0 0.117706065
6240.0 0.12277703525
6250.0 0.12742604825
6260.0 0.13163379925000002
6270.0 0.13539089025
6280.0 0.138694241
6290.0 0.1415443325
6300.0 0.1439404895
6310.0 0.145880159
6320.0 0.14736668025000002
6330.0 0.14842367775
6340.0 0.1491034695
6350.0 0.1494824975
6360.0 0.14964872925
6370.0 0.14968602525
6380.0 0.14966254875
6390.0 0.14962433700000002
6400.0 0.14959181400000002
6410.0 0.14956019750000002
6420.0 0.14950599250000002
6430.0 0.149396676
6440.0 0.14919764375
6450.0 0.14887396775
6460.0 0.14839027600000002
6470.0 0.14771287075000003
6480.0 0.146813521
6490.0 0.14567082225
6500.0 0.144267292
6510.0 0.14258609525
6520.0 0.14061173825
6530.0 0.13833512825000002
6540.0 0.13575924375
6550.0 0.13290167825
6560.0 0.12979328975
6570.0 0.1264739735
6580.0 0.12299188500000001
6590.0 0.11940048925000002
6600.0 0.11575301075000002
6610.0 0.1120973275
6620.0 0.10847431525000001
6630.0 0.10491998425000001
6640.0 0.1014679305
6650.0 0.09814848475
6660.0 0.09498464250000001
6670.0 0.091988407475
6680.0 0.08916169535
6690.0 0.08650192907500001
6700.0 0.0840092585
6710.0 0.081690746925
6720.0 0.07955888092499999
6730.0 0.07762534324999999
6740.0 0.075893742325
6750.0 0.074355332275
6760.0 0.07298954387500001
6770.0 0.0717688223
6780.0 0.070666402675
6790.0 0.069665012475
6800.0 0.0687621135
6810.0 0.06796597802500001
6820.0 0.067282686075
6830.0 0.06670400145000001
6840.0 0.06620751047500001
6850.0 0.0657678441
6860.0 0.065367234
6870.0 0.06499983417499999
6880.0 0.06466745762500001
6890.0 0.06437042255000001
6900.0 0.06409915890000001
6910.0 0.063831664625
6920.0 0.063538894725
6930.0 0.06319591120000001
6940.0 0.06279280175000002
6950.0 0.062338819149999995
6960.0 0.061856845125000004
6970.0 0.061371491150000006
6980.0 0.060898550675
6990.0 0.060442561750000005
7000.0 0.06000324964999999
7010.0 0.05958523660000001
7020.0 0.059203418800000004
7030.0 0.05888007395000001
7040.0 0.05863577775
7050.0 0.05848005215
7060.0 0.0584068939
7070.0 0.058396433075000004
7080.0 0.058420492325
7090.0 0.058448965675
7100.0 0.058455285275
7110.0 0.05842056355
7120.0 0.05833586777500001
7130.0 0.058201321900000005
7140.0 0.058024554400000004
7150.0 0.05781730075
7160.0 0.05759253592500001
7170.0 0.057364009125000004
7180.0 0.057147212249999996
7190.0 0.05695915605000001
7200.0 0.05681507065
7210.0 0.056722839825
7220.0 0.056678279799999995
7230.0 0.05666426327500001
7240.0 0.056654412950000003
7250.0 0.05661960335000001
7260.0 0.05653435812500001
7270.0 0.056380845125
7280.0 0.05614956645
7290.0 0.05583741225
7300.0 0.055444754374999995
7310.0 0.054973409525
7320.0 0.054426391350000006
7330.0 0.053809152725
7340.0 0.05313123225000001
7350.0 0.052407034025
7360.0 0.05165465290000001
7370.0 0.05089228732500001
7380.0 0.05013278277500001
7390.0 0.049377869000000005
7400.0 0.04861415755
7410.0 0.04781379575
7420.0 0.046941662275000004
7430.0 0.045973007825
7440.0 0.04491652462500001
7450.0 0.043826063400000004
7460.0 0.04278633565
7470.0 0.041878537875
7480.0 0.041150511075
7490.0 0.040610230600000005
7500.0 0.04023958125
7510.0 0.040012735175
7520.0 0.039907737500000005
7530.0 0.039909279475000004
7540.0 0.040005403625000005
7550.0 0.040181902875
7560.0 0.04041808035
7570.0 0.04068651905
7580.0 0.04095711115
7590.0 0.04120315375
7600.0 0.04140668705
7610.0 0.041566411425000005
7620.0 0.0416874412
7630.0 0.041782892875
7640.0 0.0418764409
7650.0 0.041994014875000006
7660.0 0.042158585325000004
7670.0 0.042386225975000004
7680.0 0.042684443200000005
7690.0 0.04305240080000001
7700.0 0.04348188385
7710.0 0.043958257
7720.0 0.044461687325
7730.0 0.044969115500000004
7740.0 0.04545857925
7750.0 0.04591427495000001
7760.0 0.0463301531
7770.0 0.046710709200000006
7780.0 0.047068415950000005
7790.0 0.047418712525
7800.0 0.047774319525000004
7810.0 0.048140583449999996
7820.0 0.048512849700000006
7830.0 0.04887614344999999
7840.0 0.049207015025
7850.0 0.049477213075
7860.0 0.049658501975000005
7870.0 0.049727515300000004
7880.0 0.0496693217
7890.0 0.04947887715
7900.0 0.049160369125
7910.0 0.048725188075
7920.0 0.048189359625
7930.0 0.047570775125
7940.0 0.046886348200000004
7950.0 0.04614955147500001
7960.0 0.04536950730000001
7970.0 0.04455276097500001
7980.0 0.043707270275
7990.0 0.042845765975000005
8000.0 0.041984989650000006
8010.0 0.041140197325
8020.0 0.040318960125000004
8030.0 0.0395171618
8040.0 0.038720928275000004
8050.0 0.037912520825
8060.0 0.0370750989
8070.0 0.036193757050000004
8080.0 0.035254450075000006
8090.0 0.034244317700000006
8100.0 0.033154812
8110.0 0.0319855861
8120.0 0.030746329375000006
8130.0 0.029455736075000006
8140.0 0.0281389033
8150.0 0.026824864025
8160.0 0.025545125600000006
8170.0 0.024333211875000003
8180.0 0.023224654875000004
8190.0 0.022256546175
8200.0 0.02146569245
8210.0 0.020884809100000002
8220.0 0.02053702945
8230.0 0.02043012905
8240.0 0.020552550025
8250.0 0.020873204050000004
8260.0 0.021345965075
8270.0 0.0219180341
8280.0 0.02253984315
8290.0 0.02317357175
8300.0 0.023798082725
8310.0 0.024409702900000003
8320.0 0.02501987915
8330.0 0.025651505225
8340.0 0.026335365125000003
8350.0 0.027107155525000003
8360.0 0.028004614575000003
8370.0 0.029064042050000002
8380.0 0.030315897275
8390.0 0.031779673700000004
8400.0 0.03345908335
8410.0 0.035340636950000004
8420.0 0.037394650325
8430.0 0.039579004525
8440.0 0.041844834575
8450.0 0.044142640025
8460.0 0.0464274113
8470.0 0.048661884775000004
8480.0 0.05081787570000001
8490.0 0.052876177375
8500.0 0.054825768425000004
8510.0 0.056662786975000004
8520.0 0.058389392899999996
8530.0 0.060012311875000016
8540.0 0.06154094745
8550.0 0.06298523319999999
8560.0 0.06435369115
8570.0 0.065652123825
8580.0 0.0668829871
8590.0 0.06804514415
8600.0 0.06913358147500001
8610.0 0.0701392017
8620.0 0.07104952195
8630.0 0.0718512768
8640.0 0.072534839775
8650.0 0.07309835440000001
8660.0 0.073548587975
8670.0 0.073897407325
8680.0 0.074156196425
8690.0 0.074332112925
8700.0 0.07442853677500001
8710.0 0.07444847515000001
8720.0 0.0743950823
8730.0 0.074270674425
8740.0 0.07407430617500001
8750.0 0.07379949792500001
8760.0 0.07343390555
8770.0 0.07296167732500002
8780.0 0.072367893925
8790.0 0.071643552325
8800.0 0.070789233425
8810.0 0.0698161325
8820.0 0.06874415925
8830.0 0.067597924225
8840.0 0.06640203705000002
8850.0 0.06517721495
8860.0 0.06393818855000001
8870.0 0.062693714825
8880.0 0.06144833090000001
8890.0 0.060205129050000014
8900.0 0.058968630675
8910.0 0.05774704145
8920.0 0.056587566900000004
8930.0 0.05548320477500001
8940.0 0.05444246045000001
8950.0 0.053484252025
8960.0 0.0526225803
8970.0 0.05186230430000001
8980.0 0.05119630985
8990.0 0.05060547350000001
9000.0 0.050062164575
9010.0 0.049536842275
9020.0 0.04900589135000001
9030.0 0.04845803790000001
9040.0 0.047896872775
9050.0 0.0473383402
9060.0 0.04680401765
9070.0 0.046312716850000005
9080.0 0.0458735879
9090.0 0.045483256400000005
9100.0 0.04512767715
9110.0 0.044787303975000005
9120.0 0.044442726675
9130.0 0.044078124975
9140.0 0.043681614475000005
9150.0 0.043243836025
9160.0 0.042757126925
9170.0 0.04221674655
9180.0 0.041623691125
9190.0 0.04098720880000001
9200.0 0.040325132650000005
9210.0 0.039661179675
9220.0 0.039019666274999996
9230.0 0.0384189426
9240.0 0.037865536375
9250.0 0.03735141675
9260.0 0.03685673692500001
9270.0 0.036358736350000004
9280.0 0.03584395905
9290.0 0.0353173991
9300.0 0.034802322100000005
