#lamb flux
1000.0 5.4425917e-06
1010.0 6.594161490000001e-06
1020.0 8.015120400000002e-06
1030.0 9.759813700000001e-06
1040.0 1.1895713200000002e-05
1050.0 1.4499807e-05
1060.0 1.7657904600000003e-05
1070.0 2.14630479e-05
1080.0 2.6012920500000002e-05
1090.0 3.14062539e-05
1100.0 3.773839020000001e-05
1110.0 4.509630300000001e-05
1120.0 5.3553479000000004e-05
1130.0 6.31650992e-05
1140.0 7.396391800000001e-05
1150.0 8.5957095e-05
1160.0 9.912409500000002e-05
1170.0 0.00011341569400000002
1180.0 0.000128753996
1190.0 0.000145033441
1200.0 0.00016212266700000002
1210.0 0.00017986727500000002
1220.0 0.000198093385
1230.0 0.00021661198300000002
1240.0 0.00023522387000000003
1250.0 0.00025372508000000006
1260.0 0.0002719125570000001
1270.0 0.000289589762
1280.0 0.000306572098
1290.0 0.00032269171200000003
1300.0 0.00033780168100000003
1310.0 0.00035177936500000004
1320.0 0.000364528794
1330.0 0.000375982278
1340.0 0.00038610112800000005
1350.0 0.000394875754
1360.0 0.0004023252310000001
1370.0 0.00040849669000000006
1380.0 0.00041346468100000004
1390.0 0.00041733094900000005
1400.0 0.0004202248050000001
1410.0 0.000422304302
1420.0 0.00042375839100000005
1430.0 0.00042480951800000005
1440.0 0.00042571639600000007
1450.0 0.000426775419
1460.0 0.000428319465
1470.0 0.0004307118620000001
1480.0 0.00043433374600000007
1490.0 0.00043956325
1500.0 0.000446746181
1510.0 0.0004561595010000001
1520.0 0.00046797107700000004
1530.0 0.00048220103400000005
1540.0 0.0004986917460000001
1550.0 0.000517093542
1560.0 0.0005368722450000001
1570.0 0.0005573415610000001
1580.0 0.0005777193870000001
1590.0 0.0005972027040000001
1600.0 0.0006150515070000001
1610.0 0.0006306700470000001
1620.0 0.000643673828
1630.0 0.000653932153
1640.0 0.000661581606
1650.0 0.000667009266
1660.0 0.000670810833
1670.0 0.0006737309740000001
1680.0 0.0006765953740000001
1690.0 0.0006802433820000001
1700.0 0.00068546793
1710.0 0.0006929658540000001
1720.0 0.0007033004300000001
1730.0 0.00071687441
1740.0 0.00073391164
1750.0 0.00075444726
1760.0 0.0007783232100000001
1770.0 0.00080519341
1780.0 0.0008345373400000002
1790.0 0.0008656851700000001
1800.0 0.0008978548600000002
1810.0 0.0009301996200000001
1820.0 0.0009618636300000001
1830.0 0.0009920403500000001
1840.0 0.0010200280300000002
1850.0 0.0010452755600000002
1860.0 0.0010674146
1870.0 0.0010862737900000001
1880.0 0.00110187504
1890.0 0.0011144130900000002
1900.0 0.0011242223300000002
1910.0 0.0011317350800000001
1920.0 0.00113743728
1930.0 0.00114182502
1940.0 0.00114536744
1950.0 0.0011484762800000002
1960.0 0.0011514857900000004
1970.0 0.0011546410400000001
1980.0 0.0011580961700000001
1990.0 0.0011619197100000002
2000.0 0.0011661069
2010.0 0.0011705952300000001
2020.0 0.0011752832000000003
2030.0 0.00118004852
2040.0 0.00118476449
2050.0 0.0011893140700000003
2060.0 0.0011935994700000003
2070.0 0.00119754831
2080.0 0.00120111544
2090.0 0.0012042825900000001
2100.0 0.0012070550800000002
2110.0 0.0012094580400000001
2120.0 0.0012115310900000001
2130.0 0.0012133234400000003
2140.0 0.00121488899
2150.0 0.0012162818500000001
2160.0 0.0012175518600000001
2170.0 0.0012187422100000001
2180.0 0.00121988727
2190.0 0.0012210129400000002
2200.0 0.0012221384
2210.0 0.00122328052
2220.0 0.0012244593200000002
2230.0 0.0012257037800000002
2240.0 0.0012270576500000002
2250.0 0.00122858148
2260.0 0.00123035227
2270.0 0.0012324578000000002
2280.0 0.0012349871099999999
2290.0 0.0012380167800000001
2300.0 0.0012415972800000003
2310.0 0.0012457399500000002
2320.0 0.0012504093000000002
2330.0 0.0012555221000000003
2340.0 0.0012609562000000002
2350.0 0.0012665688700000002
2360.0 0.00127222354
2370.0 0.0012778223500000002
2380.0 0.0012833397500000001
2390.0 0.0012888528800000002
2400.0 0.00129456138
2410.0 0.0013007925700000002
2420.0 0.0013079874500000002
2430.0 0.00131666549
2440.0 0.0013273694700000002
2450.0 0.0013405961800000003
2460.0 0.0013567198400000003
2470.0 0.0013759218200000002
2480.0 0.0013981370900000003
2490.0 0.0014230321
2500.0 0.00145001955
2510.0 0.0014783148100000001
2520.0 0.0015070272000000003
2530.0 0.0015352729700000003
2540.0 0.00156229206
2550.0 0.0015875475700000002
2560.0 0.0016107889700000002
2570.0 0.0016320701600000002
2580.0 0.00165171937
2590.0 0.0016702716100000005
2600.0 0.00168837879
2610.0 0.0017067152200000003
2620.0 0.0017258958500000001
2630.0 0.00174641614
2640.0 0.0017686225200000002
2650.0 0.0017935866200000001
2660.0 0.0018675112400000002
2670.0 0.00241405822
2680.0 0.0036958761700000005
2690.0 0.004640904730000001
2700.0 0.00508956581
2710.0 0.00532426405
2720.0 0.0055006149800000004
2730.0 0.005625697490000001
2740.0 0.005695297020000001
2750.0 0.005823683740000001
2760.0 0.006027190330000001
2770.0 0.00611912378
2780.0 0.006078454620000001
2790.0 0.005989720730000001
2800.0 0.00586774209
2810.0 0.00581305627
2820.0 0.00591925418
2830.0 0.00603601264
2840.0 0.006144861799999999
2850.0 0.00639903887
2860.0 0.006824121220000001
2870.0 0.007461946100000001
2880.0 0.008106742
2890.0 0.0085974329
2900.0 0.008902947900000001
2910.0 0.008808791600000001
2920.0 0.008264978400000001
2930.0 0.0079319555
2940.0 0.00783461
2950.0 0.0076686596
2960.0 0.0074407228
2970.0 0.0072575118
2980.0 0.0070897841000000005
2990.0 0.00693274148
3000.0 0.0067903354400000015
3010.0 0.006623780100000001
3020.0 0.006496740530000001
3030.0 0.006523635300000001
3040.0 0.006542623570000001
3050.0 0.00646761738
3060.0 0.0065537171
3070.0 0.006814337040000002
3080.0 0.006994414000000001
3090.0 0.0070377482
3100.0 0.0070543893
3110.0 0.007144376400000001
3120.0 0.007314536600000001
3130.0 0.007400607900000002
3140.0 0.007389147500000001
3150.0 0.007505169700000001
3160.0 0.0077279062000000015
3170.0 0.007936509700000002
3180.0 0.008145170600000001
3190.0 0.008366948800000001
3200.0 0.008458403100000001
3210.0 0.008280973400000002
3220.0 0.0079080134
3230.0 0.007480053700000001
3240.0 0.0070644301000000005
3250.0 0.006761354530000001
3260.0 0.006639205300000001
3270.0 0.006652154320000001
3280.0 0.00669364129
3290.0 0.00665367283
3300.0 0.00664891297
3310.0 0.006778402680000001
3320.0 0.00693103831
3330.0 0.007029213100000001
3340.0 0.007051180500000001
3350.0 0.007079310000000001
3360.0 0.007258567400000001
3370.0 0.007530754
3380.0 0.0078401757
3390.0 0.008206282700000001
3400.0 0.0085998143
3410.0 0.008969711800000002
3420.0 0.0092613087
3430.0 0.009462957000000001
3440.0 0.009623017600000002
3450.0 0.009797238500000001
3460.0 0.0099896468
3470.0 0.0101951122
3480.0 0.0104716549
3490.0 0.010903123
3500.0 0.011478175100000002
3510.0 0.012106913700000001
3520.0 0.012720068200000002
3530.0 0.013234837000000001
3540.0 0.013614706700000001
3550.0 0.013937872900000002
3560.0 0.014275312800000002
3570.0 0.014646632000000001
3580.0 0.015002070300000002
3590.0 0.0152404889
3600.0 0.015210928600000001
3610.0 0.014814275700000002
3620.0 0.0143454206
3630.0 0.014285318600000001
3640.0 0.014811363700000002
3650.0 0.015812769
3660.0 0.017072272700000002
3670.0 0.018349200800000003
3680.0 0.0194059523
3690.0 0.020049907500000002
3700.0 0.020187592600000002
3710.0 0.0198352595
3720.0 0.0191006739
3730.0 0.018130082600000003
3740.0 0.017017273000000003
3750.0 0.015776619600000003
3760.0 0.014452809700000001
3770.0 0.013186829600000002
3780.0 0.012138111299999999
3790.0 0.011428167099999999
3800.0 0.011151546
3810.0 0.0114035544
3820.0 0.012328718500000002
3830.0 0.0140939953
3840.0 0.0167039831
3850.0 0.019897577000000003
3860.0 0.023296778400000002
3870.0 0.026626233900000004
3880.0 0.029771798699999998
3890.0 0.0326831491
3900.0 0.035289436
3910.0 0.03752962220000001
3920.0 0.039419269400000005
3930.0 0.041023703
3940.0 0.042361251100000004
3950.0 0.043351161000000006
3960.0 0.043838719400000004
3970.0 0.0436717778
3980.0 0.0427758317
3990.0 0.041186793900000004
4000.0 0.039061511300000004
4010.0 0.036658588400000004
4020.0 0.034280144500000005
4030.0 0.0321909399
4040.0 0.030536198
4050.0 0.029303115800000005
4060.0 0.028359930900000004
4070.0 0.027539619100000006
4080.0 0.026730403700000002
4090.0 0.025936358000000003
4100.0 0.0252493234
4110.0 0.0247535946
4120.0 0.024460917600000007
4130.0 0.0243438041
4140.0 0.024395608300000003
4150.0 0.024626603400000002
4160.0 0.025026134000000002
4170.0 0.02554594
4180.0 0.026101649
4190.0 0.026595881200000004
4200.0 0.026965008700000005
4210.0 0.0272063386
4220.0 0.0273557424
4230.0 0.027450063900000005
4240.0 0.027519348500000002
4250.0 0.0276016104
4260.0 0.0277305399
4270.0 0.027923599900000005
4280.0 0.028189072800000003
4290.0 0.028518020300000006
4300.0 0.028840524300000003
4310.0 0.0289979396
4320.0 0.028787160500000002
4330.0 0.028060867100000005
4340.0 0.026815608400000003
4350.0 0.025202613800000002
4360.0 0.0234475934
4370.0 0.0217427609
4380.0 0.020197259600000003
4390.0 0.018861838800000003
4400.0 0.017773049699999998
4410.0 0.016970403100000003
4420.0 0.016495271100000004
4430.0 0.016375656500000002
4440.0 0.01660722
4450.0 0.017155400500000004
4460.0 0.0179792228
4470.0 0.0190528576
4480.0 0.020372778300000005
4490.0 0.021958657000000003
4500.0 0.023850490300000003
4510.0 0.026095927900000003
4520.0 0.028731209500000004
4530.0 0.0317625546
4540.0 0.0351429596
4550.0 0.0387463923
4560.0 0.0423687124
4570.0 0.045772756399999996
4580.0 0.04874574880000001
4590.0 0.051131574900000004
4600.0 0.052838411500000015
4610.0 0.0538315211
4620.0 0.05407551170000001
4630.0 0.0534911286
4640.0 0.051979723600000007
4650.0 0.0495121795
4660.0 0.0462122458
4670.0 0.042361136300000005
4680.0 0.03832059070000001
4690.0 0.03443330520000001
4700.0 0.0309536073
4710.0 0.028020233500000002
4720.0 0.0256648007
4730.0 0.023852747100000005
4740.0 0.0225408694
4750.0 0.021715429400000003
4760.0 0.021387577400000003
4770.0 0.021559296500000005
4780.0 0.0221842271
4790.0 0.023145439800000004
4800.0 0.0242597145
4810.0 0.025310761
4820.0 0.026115672100000004
4830.0 0.026600920500000003
4840.0 0.026842057900000004
4850.0 0.027035374800000005
4860.0 0.027418953100000004
4870.0 0.028193235700000003
4880.0 0.029474771200000003
4890.0 0.031280810400000005
4900.0 0.0335257132
4910.0 0.0360187961
4920.0 0.0384715751
4930.0 0.0405307686
4940.0 0.0418441681
4950.0 0.042148321600000004
4960.0 0.041350738100000006
4970.0 0.0395727773
4980.0 0.03712216200000001
4990.0 0.0343931021
5000.0 0.031749377100000004
5010.0 0.0294408611
5020.0 0.027578826100000002
5030.0 0.026160163400000002
5040.0 0.025114397000000004
5050.0 0.024349976000000002
5060.0 0.023785091400000003
5070.0 0.0233590455
5080.0 0.0230309891
5090.0 0.0227763221
5100.0 0.02258571
5110.0 0.022464852900000002
5120.0 0.0224315154
5130.0 0.022509868500000002
5140.0 0.0227255287
5150.0 0.023103539200000002
5160.0 0.023667427700000004
5170.0 0.0244355307
5180.0 0.0254138388
5190.0 0.0265889631
5200.0 0.027928350100000006
5210.0 0.029388255400000004
5220.0 0.030923585
5230.0 0.032495166900000004
5240.0 0.03407221790000001
5250.0 0.03563068600000001
5260.0 0.0371489272
5270.0 0.0386018115
5280.0 0.039955461
5290.0 0.041167131600000004
5300.0 0.0421941765
5310.0 0.04301049690000001
5320.0 0.0436224271
5330.0 0.0440745165
5340.0 0.044440783100000006
5350.0 0.0448056042
5360.0 0.04524447200000001
5370.0 0.04581385550000001
5380.0 0.0465527384
5390.0 0.047491685500000005
5400.0 0.0486622416
5410.0 0.0500997357
5420.0 0.051836024800000005
5430.0 0.0538834492
5440.0 0.056216714400000006
5450.0 0.0587633788
5460.0 0.06141072560000001
5470.0 0.06402606770000001
5480.0 0.06647937940000001
5490.0 0.0686599284
5500.0 0.07048556200000002
5510.0 0.07190276100000001
5520.0 0.07287395500000002
5530.0 0.07336343000000001
5540.0 0.073343746
5550.0 0.07281575000000001
5560.0 0.071810382
5570.0 0.07037037700000001
5580.0 0.068537476
5590.0 0.066354246
5600.0 0.06387057460000001
5610.0 0.0611438618
5620.0 0.05823761510000001
5630.0 0.055224810900000004
5640.0 0.052195104500000006
5650.0 0.049257961200000006
5660.0 0.0465356514
5670.0 0.0441484533
5680.0 0.042199434900000006
5690.0 0.0407646526
5700.0 0.039890453400000005
5710.0 0.03959581220000001
5720.0 0.0398750849
5730.0 0.0406970235
5740.0 0.042000023100000006
5750.0 0.04368830130000001
5760.0 0.045634839600000005
5770.0 0.04769284940000001
5780.0 0.049711963000000005
5790.0 0.0515534873
5800.0 0.0531016367
5810.0 0.054270617800000004
5820.0 0.05500763170000001
5830.0 0.055291517400000004
5840.0 0.0551283873
5850.0 0.05454816710000001
5860.0 0.05360370400000001
5870.0 0.052368241100000004
5880.0 0.050926705200000005
5890.0 0.049359589300000006
5900.0 0.04772478410000001
5910.0 0.04604737620000001
5920.0 0.044324804300000006
5930.0 0.04254531610000001
5940.0 0.0407090733
5950.0 0.03884096720000001
5960.0 0.0369909575
5970.0 0.035224344399999996
5980.0 0.0336070294
5990.0 0.0321911058
6000.0 0.031005587900000003
6010.0 0.030054803800000005
6020.0 0.029323079100000003
6030.0 0.028781867100000007
6040.0 0.0283964002
6050.0 0.028131113500000002
6060.0 0.0279536425
6070.0 0.027837075
6080.0 0.027759638200000002
6090.0 0.0277034121
6100.0 0.027655307400000002
6110.0 0.027610337300000003
6120.0 0.027575220400000006
6130.0 0.027569271100000004
6140.0 0.0276201751
6150.0 0.0277542993
6160.0 0.0279838986
6170.0 0.028295997099999998
6180.0 0.0286485689
6190.0 0.028978172300000004
6200.0 0.0292190913
6210.0 0.029326093300000005
6220.0 0.029284159100000002
6230.0 0.029095600800000003
6240.0 0.028763849100000002
6250.0 0.028303285500000004
6260.0 0.027765271100000002
6270.0 0.027241010300000004
6280.0 0.026833356200000002
6290.0 0.026627136900000004
6300.0 0.026677814800000005
6310.0 0.027011809300000002
6320.0 0.027627287100000005
6330.0 0.028496173300000004
6340.0 0.029577053800000003
6350.0 0.030833710600000005
6360.0 0.032242063700000004
6370.0 0.0337825313
6380.0 0.0354289033
6390.0 0.0371457947
6400.0 0.0388966067
6410.0 0.04065207790000001
6420.0 0.04238805130000001
6430.0 0.044075614799999996
6440.0 0.0456777769
6450.0 0.04715675720000001
6460.0 0.04848175710000001
6470.0 0.049629155800000005
6480.0 0.05057773280000001
6490.0 0.051305686600000004
6500.0 0.051792691300000006
6510.0 0.05202506400000001
6520.0 0.051999945900000004
6530.0 0.0517256803
6540.0 0.0512181586
6550.0 0.050494899
6560.0 0.0495700268
6570.0 0.048454739200000006
6580.0 0.04715736830000001
6590.0 0.04568723670000001
6600.0 0.044060046100000014
6610.0 0.042300380500000005
6620.0 0.04044070660000001
6630.0 0.0385183701
6640.0 0.036572387600000006
6650.0 0.034640928
6660.0 0.03275952050000001
6670.0 0.030959944400000005
6680.0 0.029269702700000004
6690.0 0.027711805800000006
6700.0 0.0263043347
6710.0 0.025059503700000006
6720.0 0.023982527800000004
6730.0 0.0230710228
6740.0 0.022315477099999998
6750.0 0.021700700000000003
6760.0 0.021207796400000003
6770.0 0.020816173700000003
6780.0 0.0205053842
6790.0 0.0202567211
6800.0 0.0200545513
6810.0 0.019887240100000002
6820.0 0.0197473675
6830.0 0.0196309344
6840.0 0.0195354971
6850.0 0.019457949000000002
6860.0 0.0193939935
6870.0 0.019338456200000003
6880.0 0.019286374800000002
6890.0 0.019234196800000002
6900.0 0.019180366800000005
6910.0 0.019124966
6920.0 0.0190685425
6930.0 0.0190105713
6940.0 0.018948304900000004
6950.0 0.0188766655
6960.0 0.018789495200000002
6970.0 0.0186818184
6980.0 0.018552222500000003
6990.0 0.0184043363
7000.0 0.0182468244
7010.0 0.018092013100000002
7020.0 0.017953819100000004
7030.0 0.017845726500000002
7040.0 0.017779325900000004
7050.0 0.0177635234
7060.0 0.0178043243
7070.0 0.0179050158
7080.0 0.018066580700000005
7090.0 0.0182881727
7100.0 0.018567487400000002
7110.0 0.018900874300000002
7120.0 0.019283226200000003
7130.0 0.019707778300000003
7140.0 0.0201660011
7150.0 0.020647236400000005
7160.0 0.0211385083
7170.0 0.0216246695
7180.0 0.022089145400000003
7190.0 0.022515507700000003
7200.0 0.022889794900000003
7210.0 0.023202921
7220.0 0.023452187500000003
7230.0 0.0236410958
7240.0 0.023777516000000002
7250.0 0.0238713034
7260.0 0.023932840400000002
7270.0 0.023973254200000006
7280.0 0.024005594900000003
7290.0 0.024045329700000003
7300.0 0.024109084300000003
7310.0 0.0242122041
7320.0 0.024366575100000003
7330.0 0.024579355500000004
7340.0 0.024852174900000003
7350.0 0.025180439899999997
7360.0 0.025553038000000004
7370.0 0.025952800300000002
7380.0 0.026357594900000003
7390.0 0.0267417556
7400.0 0.027077748600000003
7410.0 0.0273383551
7420.0 0.027499569300000005
7430.0 0.027544104
7440.0 0.027464468500000006
7450.0 0.027264400800000005
7460.0 0.0269585029
7470.0 0.0265707484
7480.0 0.0261323272
7490.0 0.025678277800000003
7500.0 0.025242325500000003
7510.0 0.024851327200000002
7520.0 0.024522969100000003
7530.0 0.024269161700000003
7540.0 0.024102625399999997
7550.0 0.0240404605
7560.0 0.024100806800000003
7570.0 0.0242949973
7580.0 0.024621611
7590.0 0.0250666969
7600.0 0.0256090135
7610.0 0.026225871700000004
7620.0 0.0268963478
7630.0 0.027601639100000002
7640.0 0.028324008300000002
7650.0 0.0290456145
7660.0 0.029747788700000003
7670.0 0.0304108833
7680.0 0.0310147761
7690.0 0.0315400505
7700.0 0.03196967480000001
7710.0 0.03229079000000001
7720.0 0.032496061500000006
7730.0 0.032584066200000004
7740.0 0.032559117500000005
7750.0 0.0324299185
7760.0 0.0322073507
7770.0 0.03190206810000001
7780.0 0.031522645700000004
7790.0 0.0310748319
7800.0 0.030562040600000003
7810.0 0.0299866994
7820.0 0.029351802200000006
7830.0 0.028662045299999998
7840.0 0.027924255100000003
7850.0 0.027147157800000002
7860.0 0.0263408236
7870.0 0.0255161053
7880.0 0.0246842743
7890.0 0.0238567861
7900.0 0.0230450549
7910.0 0.022260107800000005
7920.0 0.0215122971
7930.0 0.0208105051
7940.0 0.020162116800000005
7950.0 0.019572540400000005
7960.0 0.019044653600000003
7970.0 0.0185782065
7980.0 0.018169420500000002
7990.0 0.0178110597
8000.0 0.017493086100000003
8010.0 0.017204000800000004
8020.0 0.0169320354
8030.0 0.016665601400000004
8040.0 0.016393601000000004
8050.0 0.016105180000000004
8060.0 0.0157891188
8070.0 0.015433411700000002
8080.0 0.015025522400000003
8090.0 0.014553392000000002
8100.0 0.014006944700000001
8110.0 0.013379837100000003
8120.0 0.0126713958
8130.0 0.011888485
8140.0 0.011046744100000002
8150.0 0.010170465200000001
8160.0 0.009290738800000002
8170.0 0.0084420588
8180.0 0.0076581554
8190.0 0.006968013920000002
8200.0 0.006392964270000001
8210.0 0.005945280600000001
8220.0 0.005628261450000001
8230.0 0.005437374670000001
8240.0 0.00536196052
8250.0 0.00538714071
8260.0 0.005495801850000001
8270.0 0.005670625310000001
8280.0 0.0058960698300000005
8290.0 0.00616007462
8300.0 0.006455188460000001
8310.0 0.006778922780000001
8320.0 0.007133340200000001
8330.0 0.007524096300000001
8340.0 0.0079592415
8350.0 0.0084480151
8360.0 0.008999664800000001
8370.0 0.0096222266
8380.0 0.0103212417
8390.0 0.011098579800000001
8400.0 0.011951632700000001
8410.0 0.0128728586
8420.0 0.013850636800000003
8430.0 0.0148707139
8440.0 0.015917566
8450.0 0.016975340900000004
8460.0 0.018028164
8470.0 0.019059909400000002
8480.0 0.0200538926
8490.0 0.020993033600000002
8500.0 0.0218609209
8510.0 0.022643792500000003
8520.0 0.023332988
8530.0 0.023927095500000006
8540.0 0.0244329442
8550.0 0.024864876400000003
8560.0 0.025242277900000002
8570.0 0.025585947800000005
8580.0 0.025914354200000003
8590.0 0.0262408818
8600.0 0.026572784700000004
8610.0 0.026911850700000003
8620.0 0.027256117700000006
8630.0 0.0276016972
8640.0 0.027943981100000004
8650.0 0.0282780603
8660.0 0.0285986743
8670.0 0.028900200700000003
8680.0 0.029177009400000002
8690.0 0.029424103100000005
8700.0 0.029637806100000004
8710.0 0.029816530100000002
8720.0 0.0299598831
8730.0 0.030067509500000006
8740.0 0.030138273900000002
8750.0 0.030169925800000004
8760.0 0.030159348800000003
8770.0 0.030103224900000003
8780.0 0.029998684100000006
8790.0 0.0298436691
8800.0 0.029636943000000002
8810.0 0.029377985000000002
8820.0 0.0290669939
8830.0 0.0287051177
8840.0 0.028294735700000004
8850.0 0.027839590100000002
8860.0 0.027344609600000003
8870.0 0.0268155139
8880.0 0.026258383200000006
8890.0 0.0256794104
8900.0 0.025084913000000004
