#lamb flux
1000.0 5.33531266e-06
1010.0 6.475669670000001e-06
1020.0 7.88803587e-06
1030.0 9.62961339e-06
1040.0 1.1772142119999998e-05
1050.0 1.4398889610000001e-05
1060.0 1.760463464e-05
1070.0 2.149488478e-05
1080.0 2.618419681e-05
1090.0 3.1793562799999995e-05
1100.0 3.8446944e-05
1110.0 4.62672241e-05
1120.0 5.53718187e-05
1130.0 6.5868428e-05
1140.0 7.785113699999999e-05
1150.0 9.13971357e-05
1160.0 0.0001065641399
1170.0 0.0001233884785
1180.0 0.0001418837543
1190.0 0.0001620400535
1200.0 0.00018382358610000003
1210.0 0.000207176844
1220.0 0.0002320192055
1230.0 0.0002582481474
1240.0 0.000285740981
1250.0 0.000314357143
1260.0 0.000343941001
1270.0 0.000374324969
1280.0 0.00040533293599999995
1290.0 0.000436783831
1300.0 0.000468495219
1310.0 0.000500286742
1320.0 0.000531983343
1330.0 0.0005634184279999999
1340.0 0.000594436439
1350.0 0.000624895427
1360.0 0.000654668943
1370.0 0.000683647774
1380.0 0.0007117411210000001
1390.0 0.000738877498
1400.0 0.000765005104
1410.0 0.000790091699
1420.0 0.000814124015
1430.0 0.0008371068260000001
1440.0 0.000859061367
1450.0 0.000880023474
1460.0 0.00090004129
1470.0 0.00091917294
1480.0 0.000937483679
1490.0 0.000955043536
1500.0 0.000971924524
1510.0 0.000988198656
1520.0 0.001003935837
1530.0 0.001019202345
1540.0 0.001034059777
1550.0 0.001048564305
1560.0 0.00106276649
1570.0 0.00107671122
1580.0 0.0010904380200000001
1590.0 0.0011039816100000001
1600.0 0.0011173724629999998
1610.0 0.001130637301
1620.0 0.001143799932
1630.0 0.0011568815600000002
1640.0 0.001169901529
1650.0 0.001182877447
1660.0 0.001195825837
1670.0 0.0012087621369999998
1680.0 0.0012217010719999999
1690.0 0.001234656778
1700.0 0.001247643019
1710.0 0.0012606732180000001
1720.0 0.001273760643
1730.0 0.001286918531
1740.0 0.001300160305
1750.0 0.00131349976
1760.0 0.001326951466
1770.0 0.001340531233
1780.0 0.0013542571030000002
1790.0 0.001368150342
1800.0 0.001382237269
1810.0 0.001396551705
1820.0 0.0014111380420000002
1830.0 0.0014260552109999999
1840.0 0.001441381394
1850.0 0.0014572189529999998
1860.0 0.0014736993589999998
1870.0 0.0014909874700000001
1880.0 0.0015092838560000002
1890.0 0.001528824985
1900.0 0.001549880433
1910.0 0.0015727470249999997
1920.0 0.0015977406200000002
1930.0 0.0016251869659999999
1940.0 0.001655412927
1950.0 0.001688740407
1960.0 0.001725483994
1970.0 0.0017659522000000002
1980.0 0.001810450902
1990.0 0.0018592848299999998
2000.0 0.0019127528859999997
2010.0 0.0019711314349999997
2020.0 0.002034642437
2030.0 0.0021034047769999996
2040.0 0.002177372451
2050.0 0.0022562676370000002
2060.0 0.00233951978
2070.0 0.002426224734
2080.0 0.002515136485
2090.0 0.0026047006929999996
2100.0 0.002693132285
2110.0 0.0027785323870000004
2120.0 0.0028590323500000004
2130.0 0.0029329469519999997
2140.0 0.002998917308
2150.0 0.003056023958
2160.0 0.00310385702
2170.0 0.00314253448
2180.0 0.0031726714399999997
2190.0 0.0031953017500000003
2200.0 0.00321177143
2210.0 0.0032236087799999997
2220.0 0.00323239418
2230.0 0.0032396364
2240.0 0.00324667092
2250.0 0.00325458057
2260.0 0.0032641490299999995
2270.0 0.00327584254
2280.0 0.00328981982
2290.0 0.0033059621400000003
2300.0 0.0033239232300000003
2310.0 0.00334318415
2320.0 0.00336311064
2330.0 0.00338300799
2340.0 0.00340216351
2350.0 0.0034198775299999996
2360.0 0.00343548045
2370.0 0.00344834142
2380.0 0.00345786586
2390.0 0.00346349763
2400.0 0.00346472461
2410.0 0.00346110474
2420.0 0.0034523084899999996
2430.0 0.00343819233
2440.0 0.0034188895600000004
2450.0 0.0033949141600000004
2460.0 0.0033672602999999996
2470.0 0.0033374724000000003
2480.0 0.00330766466
2490.0 0.00328046774
2500.0 0.0032588892600000003
2510.0 0.00324609463
2520.0 0.00324512309
2530.0 0.0032585755400000005
2540.0 0.00328832469
2550.0 0.00333529155
2560.0 0.0033993319700000003
2570.0 0.0034792539999999998
2580.0 0.0035729604900000002
2590.0 0.0036776877900000005
2600.0 0.0037903011799999995
2610.0 0.00390758844
2620.0 0.00402652056
2630.0 0.00414444053
2640.0 0.0042591799
2650.0 0.0043697432599999995
2660.0 0.00450845493
2670.0 0.004972128439999999
2680.0 0.00586677139
2690.0 0.00656968678
2700.0 0.007398290740000001
2710.0 0.00808925532
2720.0 0.00861712487
2730.0 0.009108438290000001
2740.0 0.00965271335
2750.0 0.010117272220000001
2760.0 0.010430397950000002
2770.0 0.01094363271
2780.0 0.011988492359999998
2790.0 0.01336115469
2800.0 0.015022786309999998
2810.0 0.01697855492
2820.0 0.018964060589999998
2830.0 0.02062454087
2840.0 0.02167884994
2850.0 0.02228821911
2860.0 0.022723187239999998
2870.0 0.02286158302
2880.0 0.022793717510000002
2890.0 0.02255466318
2900.0 0.02267818764
2910.0 0.022965478900000003
2920.0 0.023138131229999997
2930.0 0.0233566679
2940.0 0.02372792793
2950.0 0.02423929463
2960.0 0.025097950610000003
2970.0 0.026795496350000003
2980.0 0.028959326110000006
2990.0 0.031411525
3000.0 0.0343530964
3010.0 0.0365541615
3020.0 0.0381011483
3030.0 0.0393809492
3040.0 0.0403523621
3050.0 0.040927663200000006
3060.0 0.0409789806
3070.0 0.040490739899999996
3080.0 0.0393701116
3090.0 0.037723968200000006
3100.0 0.035957644000000004
3110.0 0.034019617
3120.0 0.0326243473
3130.0 0.0317317364
3140.0 0.029725049979999998
3150.0 0.027241845509999998
3160.0 0.026311559999999998
3170.0 0.025898234830000002
3180.0 0.02445246954
3190.0 0.022240774539999997
3200.0 0.02000428667
3210.0 0.018435593360000002
3220.0 0.017534241699999998
3230.0 0.01679699753
3240.0 0.01628715386
3250.0 0.01592190163
3260.0 0.015709146460000004
3270.0 0.01591740353
3280.0 0.0166379914
3290.0 0.01774530365
3300.0 0.01903534447
3310.0 0.020355058800000003
3320.0 0.021619597159999997
3330.0 0.02277098924
3340.0 0.02385175991
3350.0 0.02488604329
3360.0 0.02588390477
3370.0 0.026987875529999997
3380.0 0.028420286020000005
3390.0 0.030275313310000003
3400.0 0.0325235973
3410.0 0.0352431281
3420.0 0.038397309899999996
3430.0 0.041461725000000005
3440.0 0.043968936800000004
3450.0 0.045760429899999996
3460.0 0.0468508177
3470.0 0.047256049700000004
3480.0 0.0469736273
3490.0 0.04618684730000001
3500.0 0.0449986545
3510.0 0.043132203400000006
3520.0 0.040031896500000004
3530.0 0.036072040199999995
3540.0 0.0327589059
3550.0 0.03031617782
3560.0 0.0281377607
3570.0 0.026041548759999998
3580.0 0.024047939070000003
3590.0 0.02211405894
3600.0 0.0203023929
3610.0 0.01882881131
3620.0 0.01776637683
3630.0 0.01701260408
3640.0 0.01650849634
3650.0 0.01626028306
3660.0 0.01627072727
3670.0 0.016533763820000002
3680.0 0.01702970337
3690.0 0.01760104546
3700.0 0.0178529062
3710.0 0.01790965976
3720.0 0.01857344416
3730.0 0.019947171649999998
3740.0 0.021609528670000003
3750.0 0.02336513307
3760.0 0.02518799972
3770.0 0.027094612869999996
3780.0 0.029133420869999996
3790.0 0.0312815668
3800.0 0.033171980899999995
3810.0 0.034595597000000006
3820.0 0.036021318
3830.0 0.037660340699999996
3840.0 0.0393181215
3850.0 0.040841362299999996
3860.0 0.0421405382
3870.0 0.0431745122
3880.0 0.043940472599999995
3890.0 0.04444114429999999
3900.0 0.044674177499999995
3910.0 0.0446364133
3920.0 0.0443337975
3930.0 0.0437917625
3940.0 0.043068293800000004
3950.0 0.0422453337
3960.0 0.0414328485
3970.0 0.04074704789999999
3980.0 0.0402508991
3990.0 0.039935774800000004
4000.0 0.0397489657
4010.0 0.0396283695
4020.0 0.0395196587
4030.0 0.039373589800000004
4040.0 0.039139220499999995
4050.0 0.038777813200000004
4060.0 0.0382780064
4070.0 0.0376470169
4080.0 0.0368982832
4090.0 0.0360560194
4100.0 0.0351556275
4110.0 0.0342403122
4120.0 0.0333455375
4130.0 0.032465338999999996
4140.0 0.0315523456
4150.0 0.030564045450000004
4160.0 0.02950119526
4170.0 0.028399215630000002
4180.0 0.02729448568
4190.0 0.02620959015
4200.0 0.02516230351
4210.0 0.02417730455
4220.0 0.02328727874
4230.0 0.02251520235
4240.0 0.02186055303
4250.0 0.02130896228
4260.0 0.02084181708
4270.0 0.02045017083
4280.0 0.02015634167
4290.0 0.02000290097
4300.0 0.02000630539
4310.0 0.020123160509999998
4320.0 0.02026340079
4330.0 0.02033704904
4340.0 0.020294800380000002
4350.0 0.020142298359999998
4360.0 0.01993321142
4370.0 0.019747327979999996
4380.0 0.01965699119
4390.0 0.01969961743
4400.0 0.01986869856
4410.0 0.02012198468
4420.0 0.020402735560000003
4430.0 0.020660000839999998
4440.0 0.02085645528
4450.0 0.02097725825
4460.0 0.0210410981
4470.0 0.021085245819999997
4480.0 0.021129405629999997
4490.0 0.021161265880000002
4500.0 0.02115156877
4510.0 0.02107831081
4520.0 0.02094589772
4530.0 0.02077775713
4540.0 0.020591722410000003
4550.0 0.02038715806
4560.0 0.02014694495
4570.0 0.019848268630000002
4580.0 0.019477521339999998
4590.0 0.01903941198
4600.0 0.01855846806
4610.0 0.01807486062
4620.0 0.017630851649999998
4630.0 0.017251379100000002
4640.0 0.01693381293
4650.0 0.01665723465
4660.0 0.01640205226
4670.0 0.01616142375
4680.0 0.01593767939
4690.0 0.01573360608
4700.0 0.015551040569999999
4710.0 0.01539691353
4720.0 0.01528597135
4730.0 0.01523091287
4740.0 0.015225792909999999
4750.0 0.01523844773
4760.0 0.015219565630000001
4770.0 0.015122002430000002
4780.0 0.014919637839999998
4790.0 0.014618188260000001
4800.0 0.01425211608
4810.0 0.013869408060000001
4820.0 0.013515834769999999
4830.0 0.01322710263
4840.0 0.013027204709999999
4850.0 0.01292752514
4860.0 0.01292517007
4870.0 0.01300474118
4880.0 0.01314529394
4890.0 0.013327372749999998
4900.0 0.013536427759999999
4910.0 0.01376414632
4920.0 0.014009022449999999
4930.0 0.01427461836
4940.0 0.01456418998
4950.0 0.0148746804
4960.0 0.01519450027
4970.0 0.015501328350000001
4980.0 0.01574844826
4990.0 0.01585653348
5000.0 0.01578243914
5010.0 0.01563235233
5020.0 0.01560223211
5030.0 0.01577292431
5040.0 0.01606973784
5050.0 0.016386113610000003
5060.0 0.016655029
5070.0 0.01684336082
5080.0 0.01694059604
5090.0 0.016957518629999998
5100.0 0.01692186057
5110.0 0.01686750641
5120.0 0.01682247178
5130.0 0.016799902230000004
5140.0 0.01679364829
5150.0 0.0167795095
5160.0 0.01672231109
5170.0 0.01658686434
5180.0 0.01634985198
5190.0 0.016009635969999998
5200.0 0.01559027851
5210.0 0.015136421459999999
5220.0 0.01469982025
5230.0 0.01432363153
5240.0 0.014031916260000001
5250.0 0.01382831942
5260.0 0.01370257877
5270.0 0.01363918842
5280.0 0.01362205379
5290.0 0.013633784500000001
5300.0 0.013654170410000001
5310.0 0.0136623851
5320.0 0.0136417763
5330.0 0.01358289056
5340.0 0.01348320758
5350.0 0.01334541971
5360.0 0.013175963169999999
5370.0 0.012984389369999998
5380.0 0.01278404288
5390.0 0.01259339598
5400.0 0.012435192130000002
5410.0 0.01233112637
5420.0 0.01229429155
5430.0 0.01232474719
5440.0 0.01241095323
5450.0 0.012534807220000001
5460.0 0.012676611760000001
5470.0 0.01281867019
5480.0 0.01294835776
5490.0 0.01306113049
5500.0 0.01316185135
5510.0 0.013261577419999998
5520.0 0.01336920322
5530.0 0.013482736070000001
5540.0 0.01358797673
5550.0 0.01366731999
5560.0 0.01371168316
5570.0 0.0137252035
5580.0 0.0137198281
5590.0 0.01370608301
5600.0 0.013687370170000001
5610.0 0.013659886500000001
5620.0 0.013616129999999999
5630.0 0.013549182710000001
5640.0 0.0134555252
5650.0 0.013335305339999999
5660.0 0.01319082891
5670.0 0.01302532983
5680.0 0.01284333379
5690.0 0.01265189205
5700.0 0.01246087935
5710.0 0.012281463440000001
5720.0 0.01212362384
5730.0 0.01199428905
5740.0 0.01189680738
5750.0 0.01183126811
5760.0 0.01179492154
5770.0 0.0117825203
5780.0 0.01178686092
5790.0 0.01179961339
5800.0 0.01181218916
5810.0 0.01181652203
5820.0 0.011805909179999999
5830.0 0.011775697509999999
5840.0 0.011723093609999999
5850.0 0.01164596003
5860.0 0.01154181863
5870.0 0.01140834131
5880.0 0.0112446796
5890.0 0.011051658410000002
5900.0 0.01083038227
5910.0 0.01058121605
5920.0 0.010304928550000002
5930.0 0.010005139639999999
5940.0 0.009689580409999999
5950.0 0.00936909683
5960.0 0.00905639053
5970.0 0.008767879420000001
5980.0 0.00852736623
5990.0 0.00835984254
6000.0 0.008267348150000001
6010.0 0.008210791129999999
6020.0 0.0081330701
6030.0 0.0080055485
6040.0 0.0078425598
6050.0 0.007675972929999999
6060.0 0.00752963805
6070.0 0.00741551434
6080.0 0.00734130995
6090.0 0.00731587972
6100.0 0.00734870748
6110.0 0.007446196899999999
6120.0 0.007608542040000001
6130.0 0.007829093399999999
6140.0 0.0080959011
6150.0 0.008394167599999999
6160.0 0.00870860153
6170.0 0.009025120519999999
6180.0 0.0093316541
6190.0 0.00961822027
6200.0 0.00987685296
6210.0 0.01010183577
6220.0 0.01029005878
6230.0 0.01044086076
6240.0 0.010555119629999998
6250.0 0.01063430448
6260.0 0.01068057942
6270.0 0.0106981279
6280.0 0.01069448044
6290.0 0.01068020432
6300.0 0.01066646295
6310.0 0.010661586649999999
6320.0 0.01066854491
6330.0 0.010684545560000001
6340.0 0.01070270536
6350.0 0.010714776139999998
6360.0 0.01071377174
6370.0 0.01069570773
6380.0 0.010660167779999999
6390.0 0.01060976519
6400.0 0.01054885174
6410.0 0.010482000549999999
6420.0 0.01041283893
6430.0 0.010343587410000002
6440.0 0.010275308669999999
6450.0 0.010208526919999999
6460.0 0.01014370468
6470.0 0.010081222630000001
6480.0 0.01002091771
6490.0 0.00996161285
6500.0 0.00990110364
6510.0 0.00983674671
6520.0 0.0097663547
6530.0 0.00968890895
6540.0 0.00960474302
6550.0 0.009515132249999999
6560.0 0.00942154697
6570.0 0.00932501297
6580.0 0.0092259751
6590.0 0.00912472135
6600.0 0.00902201804
6610.0 0.00891944803
6620.0 0.00881914288
6630.0 0.008723013120000001
6640.0 0.00863189203
6650.0 0.008545074670000001
6660.0 0.008460543559999999
6670.0 0.00837580723
6680.0 0.008288954220000002
6690.0 0.00819939739
6700.0 0.00810795731
6710.0 0.00801634053
6720.0 0.007926399300000001
6730.0 0.00783958008
6740.0 0.007756641440000001
6750.0 0.007677403270000001
6760.0 0.007600402990000001
6770.0 0.00752279852
6780.0 0.00744113553
6790.0 0.007353100180000001
6800.0 0.00725937447
6810.0 0.00716423423
6820.0 0.00707420434
6830.0 0.00699548418
6840.0 0.006931718419999999
6850.0 0.006883218920000001
6860.0 0.00684750258
6870.0 0.00682028489
6880.0 0.006796419539999999
6890.0 0.00677091367
6900.0 0.00674023669
6910.0 0.00670362848
6920.0 0.00666366235
6930.0 0.006625457330000001
6940.0 0.006594696339999999
6950.0 0.0065753895400000005
6960.0 0.00656855683
6970.0 0.0065724247
6980.0 0.006583791469999999
6990.0 0.006599584110000001
7000.0 0.006617753830000001
7010.0 0.0066372531399999995
7020.0 0.00665744406
7030.0 0.00667745952
7040.0 0.006695851819999999
7050.0 0.006710565039999999
7060.0 0.00671911298
7070.0 0.006718899079999999
7080.0 0.00670778682
7090.0 0.00668506351
7100.0 0.00665260217
7110.0 0.00661522454
7120.0 0.006578510619999999
7130.0 0.00654342451
7140.0 0.00650153018
7150.0 0.00643803288
7160.0 0.0063441314
7170.0 0.00622780204
7180.0 0.00611045712
7190.0 0.00601212822
7200.0 0.005940213799999999
7210.0 0.005890264429999999
7220.0 0.00585359577
7230.0 0.00582316772
7240.0 0.00579503274
7250.0 0.00576734106
7260.0 0.0057390889
7270.0 0.005709409810000001
7280.0 0.00567743114
7290.0 0.005642528859999999
7300.0 0.00560473211
7310.0 0.0055649659300000005
7320.0 0.00552490246
7330.0 0.00548640108
7340.0 0.0054507796
7350.0 0.00541825347
7360.0 0.00538778574
7370.0 0.00535736296
7380.0 0.00532453148
7390.0 0.005286983659999999
7400.0 0.00524307743
7410.0 0.005192278660000001
7420.0 0.00513553068
7430.0 0.00507543439
7440.0 0.00501603126
7450.0 0.00496204352
7460.0 0.00491766826
7470.0 0.00488531356
7480.0 0.0048647804
7490.0 0.00485326607
7500.0 0.004846274639999999
7510.0 0.0048392081899999995
7520.0 0.00482914621
7530.0 0.00481611071
7540.0 0.0048031440299999995
7550.0 0.00479496809
7560.0 0.00479577595
7570.0 0.004807337090000001
7580.0 0.004828461420000001
7590.0 0.00485598322
7600.0 0.0048864587
7610.0 0.004917456840000001
7620.0 0.0049478325
7630.0 0.004977170899999999
7640.0 0.00500502409
7650.0 0.005030474159999999
7660.0 0.005052165789999999
7670.0 0.00506866182
7680.0 0.0050788477999999995
7690.0 0.00508215488
7700.0 0.00507847611
7710.0 0.00506779506
7720.0 0.00504970935
7730.0 0.005023116
7740.0 0.00498625948
7750.0 0.0049371560999999994
7760.0 0.004874190760000001
7770.0 0.00479659776
7780.0 0.00470460836
7790.0 0.00459925765
7800.0 0.00448201689
7810.0 0.0043544974600000005
7820.0 0.0042183848300000005
7830.0 0.00407561092
7840.0 0.00392860303
7850.0 0.00378040846
7860.0 0.00363456741
7870.0 0.0034947583399999997
7880.0 0.00336438071
7890.0 0.00324624529
7900.0 0.0031424421
7910.0 0.0030543283509999997
7920.0 0.002982517657
7930.0 0.002926845191
7940.0 0.0028863907800000003
7950.0 0.0028597063520000004
7960.0 0.002845297242
7970.0 0.0028422330470000002
7980.0 0.0028506285289999996
7990.0 0.002871729764
8000.0 0.0029074637119999996
8010.0 0.0029594966850000006
8020.0 0.0030280441950000002
8030.0 0.00311082396
8040.0 0.0032025910900000004
8050.0 0.0032955957399999998
8060.0 0.00338107793
8070.0 0.0034514922600000003
8080.0 0.0035026435000000003
8090.0 0.0035346739399999996
8100.0 0.0035513252800000003
8110.0 0.00355795494
8120.0 0.0035595077300000005
8130.0 0.00355946867
8140.0 0.0035599749000000003
8150.0 0.0035625615399999997
8160.0 0.00356883439
8170.0 0.0035806153199999997
8180.0 0.00359953772
8190.0 0.00362643332
8200.0 0.0036609791000000004
8210.0 0.00370185167
8220.0 0.0037472393900000005
8230.0 0.0037953454999999996
8240.0 0.00384464418
8250.0 0.0038939366599999997
8260.0 0.00394239152
8270.0 0.00398966311
8280.0 0.004036018959999999
8290.0 0.00408234319
8300.0 0.004129917029999999
8310.0 0.00417998761
8320.0 0.00423324747
8330.0 0.00428942381
8340.0 0.0043471603799999994
8350.0 0.00440426486
8360.0 0.00445825074
8370.0 0.004506976540000001
8380.0 0.00454915173
8390.0 0.00458453761
8400.0 0.004613800990000001
8410.0 0.00463811243
8420.0 0.0046586753500000005
8430.0 0.00467636798
8440.0 0.00469161409
8450.0 0.00470448002
8460.0 0.0047148997399999995
8470.0 0.00472288813
8480.0 0.004728631810000001
8490.0 0.00473242497
8500.0 0.004734510650000001
8510.0 0.00473492667
8520.0 0.00473346192
8530.0 0.004729755249999999
8540.0 0.0047234895300000005
8550.0 0.00471458416
8560.0 0.00470327784
8570.0 0.00469006905
8580.0 0.00467554772
8590.0 0.00466020148
8600.0 0.00464427306
8610.0 0.00462770697
8620.0 0.00461020003
8630.0 0.00459133188
8640.0 0.00457073796
8650.0 0.00454826575
8660.0 0.00452405909
8670.0 0.00449854671
8680.0 0.00447234582
8690.0 0.00444611393
8700.0 0.00442039571
8710.0 0.00439549341
8720.0 0.0043713927699999995
8730.0 0.004347759299999999
8740.0 0.00432401299
8750.0 0.00429947153
8760.0 0.00427351337
8770.0 0.004245701409999999
8780.0 0.00421580842
8790.0 0.00418373179
8800.0 0.00414933822
8810.0 0.004112320809999999
8820.0 0.004072154729999999
8830.0 0.00402820045
8840.0 0.003979938099999999
8850.0 0.00392726073
8860.0 0.0038707219999999996
8870.0 0.0038116418899999996
8880.0 0.0037520198999999995
8890.0 0.0036942758900000002
8900.0 0.0036408796299999993
8910.0 0.00359395524
8920.0 0.00355493275
8930.0 0.00352431312
8940.0 0.00350161244
8950.0 0.00348551073
8960.0 0.00347420038
8970.0 0.0034658325500000003
8980.0 0.0034589412500000004
8990.0 0.0034527080799999998
9000.0 0.00344700346
9010.0 0.0034422121
9020.0 0.0034389267200000003
9030.0 0.00343763991
9040.0 0.0034385466599999998
9050.0 0.00344149972
9060.0 0.0034460929900000004
9070.0 0.00345179513
9080.0 0.00345807604
9090.0 0.00346448746
9100.0 0.00347068529
9110.0 0.00347637069
9120.0 0.00348115275
9130.0 0.00348437737
9140.0 0.00348500481
9150.0 0.00348161806
9160.0 0.00347258807
9170.0 0.0034563558499999996
9180.0 0.00343175952
9190.0 0.0033983244699999997
9200.0 0.00335645184
9210.0 0.0033074631600000003
9220.0 0.0032534940200000004
9230.0 0.0031972302600000004
9240.0 0.00314150373
9250.0 0.0030888180209999996
9260.0 0.003040925408
9270.0 0.0029986371299999997
9280.0 0.002961957713
9290.0 0.002930458086
9300.0 0.002903635832
9310.0 0.002881042443
9320.0 0.002862172681
9330.0 0.002846305672
9340.0 0.00283248829
9350.0 0.002819686561
9360.0 0.002806989736
9370.0 0.002793742041
9380.0 0.0027795628580000002
9390.0 0.002764293126
9400.0 0.002747923018
9410.0 0.0027305346840000005
9420.0 0.002712267314
9430.0 0.002693296988
9440.0 0.0026738241210000004
