#lamb flux
1000.0 1.13047452e-06
1010.0 1.3698113530000002e-06
1020.0 1.665212709e-06
1030.0 2.0280235960000004e-06
1040.0 2.4723391249999995e-06
1050.0 3.014263734e-06
1060.0 3.6717757799999995e-06
1070.0 4.4644091999999995e-06
1080.0 5.4127271e-06
1090.0 6.537589069999999e-06
1100.0 7.8592409e-06
1110.0 9.3962922e-06
1120.0 1.1164659609999999e-05
1130.0 1.3176572939999999e-05
1140.0 1.5439717709999998e-05
1150.0 1.795657082e-05
1160.0 2.07239557e-05
1170.0 2.37328188e-05
1180.0 2.696821161e-05
1190.0 3.040946891e-05
1200.0 3.40305662e-05
1210.0 3.7800656e-05
1220.0 4.16847638e-05
1230.0 4.5644648000000005e-05
1240.0 4.96398009e-05
1250.0 5.3628515099999996e-05
1260.0 5.7569042899999997e-05
1270.0 6.142074949999999e-05
1280.0 6.514518560000001e-05
1290.0 6.87071228e-05
1300.0 7.20753906e-05
1310.0 7.52235987e-05
1320.0 7.81306392e-05
1330.0 8.078104310000001e-05
1340.0 8.31651105e-05
1350.0 8.527890130000001e-05
1360.0 8.712408640000002e-05
1370.0 8.87076284e-05
1380.0 9.004139720000001e-05
1390.0 9.11416709e-05
1400.0 9.20285747e-05
1410.0 9.272547639999999e-05
1420.0 9.32583478e-05
1430.0 9.365507029999999e-05
1440.0 9.39447963e-05
1450.0 9.41572517e-05
1460.0 9.432210660000001e-05
1470.0 9.44683522e-05
1480.0 9.46237428e-05
1490.0 9.481429669999998e-05
1500.0 9.50638684e-05
1510.0 9.53938293e-05
1520.0 9.58228197e-05
1530.0 9.63666403e-05
1540.0 9.703825220000001e-05
1550.0 9.78478668e-05
1560.0 9.88031752e-05
1570.0 9.990966439999999e-05
1580.0 0.00010117096449999999
1590.0 0.0001025893013
1600.0 0.0001041658776
1610.0 0.00010590128549999999
1620.0 0.0001077958195
1630.0 0.00010984970589999999
1640.0 0.000112063264
1650.0 0.0001144369185
1660.0 0.0001169712057
1670.0 0.0001196666402
1680.0 0.0001225235971
1690.0 0.0001255421446
1700.0 0.0001287219107
1710.0 0.0001320619313
1720.0 0.0001355605169
1730.0 0.0001392151627
1740.0 0.00014302244009999998
1750.0 0.00014697791919999998
1760.0 0.0001510761099
1770.0 0.0001553104061
1780.0 0.00015967303919999998
1790.0 0.000164155106
1800.0 0.0001687465563
1810.0 0.00017343624869999998
1820.0 0.00017821202499999998
1830.0 0.0001830607815
1840.0 0.0001879685465
1850.0 0.0001929205702
1860.0 0.00019790138669999998
1870.0 0.0002028948574
1880.0 0.0002078842237
1890.0 0.00021285214109999998
1900.0 0.00021778072569999998
1910.0 0.0002226516317
1920.0 0.00022744614439999998
1930.0 0.0002321453507
1940.0 0.0002367303158
1950.0 0.000241182356
1960.0 0.0002454833115
1970.0 0.0002496158595
1980.0 0.0002535638614
1990.0 0.0002573126697
2000.0 0.0002608494411
2010.0 0.00026416334109999996
2020.0 0.0002672457951
2030.0 0.00027009062170000003
2040.0 0.0002726940265
2050.0 0.000275054599
2060.0 0.0002771733188
2070.0 0.0002790533231
2080.0 0.00028069976410000005
2090.0 0.0002821196633
2100.0 0.0002833216511
2110.0 0.00028431581180000004
2120.0 0.0002851134294
2130.0 0.000285726845
2140.0 0.0002861693049
2150.0 0.00028645479009999997
2160.0 0.00028659786439999996
2170.0 0.0002866136279
2180.0 0.0002865176147
2190.0 0.0002863256937
2200.0 0.0002860539911
2210.0 0.00028571889349999997
2220.0 0.00028533698899999997
2230.0 0.0002849250455
2240.0 0.000284499958
2250.0 0.00028407872379999997
2260.0 0.000283678458
2270.0 0.0002833163036
2280.0 0.00028300939119999994
2290.0 0.0002827748359
2300.0 0.0002826296722
2310.0 0.00028259086639999996
2320.0 0.0002826755057
2330.0 0.00028290101830000003
2340.0 0.0002832858926
2350.0 0.0002838506072
2360.0 0.0002846193483
2370.0 0.0002856223719
2380.0 0.00028689910379999997
2390.0 0.0002885020828
2400.0 0.00029050114260000003
2410.0 0.0002929874046
2420.0 0.0002960760524
2430.0 0.0002999066976
2440.0 0.0003046397652
2450.0 0.00031044795
2460.0 0.00031750159700000004
2470.0 0.000325948539
2480.0 0.000335889278
2490.0 0.00034735053599999993
2500.0 0.000360261137
2510.0 0.000374434678
2520.0 0.000389564042
2530.0 0.000405230481
2540.0 0.000420928881
2550.0 0.00043610679100000005
2560.0 0.00045021262799999995
2570.0 0.00046274518400000005
2580.0 0.000473297181
2590.0 0.00048158633299999996
2600.0 0.00048746945099999996
2610.0 0.000490940397
2620.0 0.000492112879
2630.0 0.000491194628
2640.0 0.000488456584
2650.0 0.000484147987
2660.0 0.000475782451
2670.0 0.000442266832
2680.0 0.000420372214
2690.0 0.0005768784729999999
2700.0 0.000919380702
2710.0 0.001323285716
2720.0 0.001603032413
2730.0 0.00169779994
2740.0 0.0017275305519999999
2750.0 0.001765651159
2760.0 0.0017804331060000001
2770.0 0.001780224321
2780.0 0.001826641334
2790.0 0.00196082502
2800.0 0.0020227235879999995
2810.0 0.002015665632
2820.0 0.001983150445
2830.0 0.0018933576120000002
2840.0 0.0018128159539999998
2850.0 0.0018109864890000003
2860.0 0.0018221232080000002
2870.0 0.0018283964299999997
2880.0 0.0018521375319999998
2890.0 0.0019665191
2900.0 0.0021690281809999996
2910.0 0.002381020162
2920.0 0.0025797210789999998
2930.0 0.00271661742
2940.0 0.002709878144
2950.0 0.0025408679109999994
2960.0 0.002401941411
2970.0 0.0023397540160000002
2980.0 0.002292569536
2990.0 0.002193127798
3000.0 0.0020328326880000003
3010.0 0.001888568112
3020.0 0.0018002545369999999
3030.0 0.0017923561710000001
3040.0 0.001783496061
3050.0 0.0017169435870000001
3060.0 0.001678459288
3070.0 0.0016765805950000002
3080.0 0.00169693938
3090.0 0.001688540519
3100.0 0.001658138912
3110.0 0.0017027579249999998
3120.0 0.001810681604
3130.0 0.0018910422219999997
3140.0 0.001923403246
3150.0 0.0019349887520000001
3160.0 0.001991040069
3170.0 0.002120419623
3180.0 0.002288711772
3190.0 0.002429398328
3200.0 0.002511189441
3210.0 0.002504383949
3220.0 0.0024194652769999997
3230.0 0.002280814429
3240.0 0.002140301597
3250.0 0.0020150170500000003
3260.0 0.0019186804270000001
3270.0 0.0018774446919999997
3280.0 0.001865429774
3290.0 0.0018453148349999997
3300.0 0.0018324430770000003
3310.0 0.0018485545519999998
3320.0 0.001886940891
3330.0 0.001921496498
3340.0 0.001944918238
3350.0 0.001971062801
3360.0 0.002023901154
3370.0 0.002105446871
3380.0 0.00219574674
3390.0 0.002281539891
3400.0 0.0023601432429999998
3410.0 0.002448442093
3420.0 0.002550495023
3430.0 0.002638495932
3440.0 0.0026994411879999996
3450.0 0.002733581426
3460.0 0.002742859912
3470.0 0.0027477718
3480.0 0.002762487283
3490.0 0.0027964073280000003
3500.0 0.002868110731
3510.0 0.0029925866119999995
3520.0 0.00315350476
3530.0 0.00332739058
3540.0 0.00349731305
3550.0 0.0036481478900000004
3560.0 0.00377508855
3570.0 0.00388836813
3580.0 0.00398832856
3590.0 0.004058892
3600.0 0.004090471700000001
3610.0 0.00408541901
3620.0 0.00406962668
3630.0 0.0040738076500000005
3640.0 0.00412551906
3650.0 0.0042490119
3660.0 0.004465669659999999
3670.0 0.004776300200000001
3680.0 0.0051390343
3690.0 0.005511339339999999
3700.0 0.00587960415
3710.0 0.00624625944
3720.0 0.006545801279999999
3730.0 0.006637625449999999
3740.0 0.00648790289
3750.0 0.00616123543
3760.0 0.005702884
3770.0 0.005139345849999999
3780.0 0.00452201681
3790.0 0.00392301714
3800.0 0.0033995250999999996
3810.0 0.003013402368
3820.0 0.002853020489
3830.0 0.0029757115759999997
3840.0 0.0033900825
3850.0 0.004054200149999999
3860.0 0.00487424687
3870.0 0.00574808107
3880.0 0.00661432337
3890.0 0.007465609409999999
3900.0 0.00832117066
3910.0 0.00917762068
3920.0 0.00998140263
3930.0 0.0106554905
3940.0 0.01114946341
3950.0 0.011457086949999999
3960.0 0.01160327675
3970.0 0.011623987849999998
3980.0 0.011543758920000001
3990.0 0.0113559696
4000.0 0.01102983875
4010.0 0.01055167708
4020.0 0.009960189950000002
4030.0 0.009331693470000001
4040.0 0.00873726227
4050.0 0.008224810260000001
4060.0 0.00782238872
4070.0 0.007529523969999999
4080.0 0.007308952460000001
4090.0 0.007110838279999999
4100.0 0.0069158061199999996
4110.0 0.00674735243
4120.0 0.00663968757
4130.0 0.0066019196499999995
4140.0 0.006614141399999999
4150.0 0.0066498661099999995
4160.0 0.0066985054200000005
4170.0 0.00676872166
4180.0 0.00687248238
4190.0 0.00700564629
4200.0 0.00714414778
4210.0 0.0072597629
4220.0 0.0073398799199999995
4230.0 0.0073937263
4240.0 0.007441680819999999
4250.0 0.00749900788
4260.0 0.00757009336
4270.0 0.00765706231
4280.0 0.00776783585
4290.0 0.007908647460000001
4300.0 0.00806946585
4310.0 0.00822111165
4320.0 0.00832352821
4330.0 0.0083329147
4340.0 0.00820962863
4350.0 0.0079344841
4360.0 0.00752383485
4370.0 0.0070257566099999995
4380.0 0.00649825441
4390.0 0.00599001964
4400.0 0.005537075539999999
4410.0 0.005167280880000001
4420.0 0.0049010724099999995
4430.0 0.00475024315
4440.0 0.004719661649999999
4450.0 0.0048097833
4460.0 0.00501552534
4470.0 0.005323766089999999
4480.0 0.00571652524
4490.0 0.0061802824499999996
4500.0 0.00671262902
4510.0 0.00731936412
4520.0 0.00800546542
4530.0 0.008767969939999998
4540.0 0.00959432361
4550.0 0.010463574150000002
4560.0 0.011346477089999998
4570.0 0.01220614739
4580.0 0.01300415435
4590.0 0.01370925152
4600.0 0.014299655199999999
4610.0 0.014757953
4620.0 0.01506618166
4630.0 0.015205214799999998
4640.0 0.015155160029999998
4650.0 0.014896423180000002
4660.0 0.01441771777
4670.0 0.01373084519
4680.0 0.01287935734
4690.0 0.011930752380000001
4700.0 0.01095865841
4710.0 0.01002808832
4720.0 0.00918693773
4730.0 0.008460148
4740.0 0.007848733450000001
4750.0 0.00733988798
4760.0 0.0069251715299999995
4770.0 0.00661207494
4780.0 0.006418623470000001
4790.0 0.00635676979
4800.0 0.0064176621599999996
4810.0 0.0065677077399999995
4820.0 0.00675491116
4830.0 0.00692304059
4840.0 0.00703209487
4850.0 0.00707828146
4860.0 0.00709972013
4870.0 0.0071597073
4880.0 0.007317128399999999
4890.0 0.00760355414
4900.0 0.00801740166
4910.0 0.00853013701
4920.0 0.00909432957
4930.0 0.00964874876
4940.0 0.010122443949999999
4950.0 0.01044231776
4960.0 0.010546461330000001
4970.0 0.01040107071
4980.0 0.010015191080000001
4990.0 0.00944375754
5000.0 0.00877593663
5010.0 0.00811036384
5020.0 0.007527395509999999
5030.0 0.00707155012
5040.0 0.006750374
5050.0 0.00654613639
5060.0 0.00643151854
5070.0 0.006381234370000001
5080.0 0.00637618416
5090.0 0.00640210481
5100.0 0.00644699405
5110.0 0.006500058919999999
5120.0 0.006552519289999999
5130.0 0.0065998287
5140.0 0.00664426286
5150.0 0.00669555732
5160.0 0.006767823280000001
5170.0 0.0068742431800000005
5180.0 0.00702326731
5190.0 0.00721792809
5200.0 0.007456860899999999
5210.0 0.007734570369999999
5220.0 0.00804122237
5230.0 0.00836425601
5240.0 0.00869222206
5250.0 0.0090181883
5260.0 0.00933966915
5270.0 0.00965510314
5280.0 0.0099601977
5290.0 0.010247269480000001
5300.0 0.01050722959
5310.0 0.010731294490000001
5320.0 0.01091218693
5330.0 0.01104870411
5340.0 0.01115061103
5350.0 0.011231994399999999
5360.0 0.011297003569999998
5370.0 0.01133714485
5380.0 0.01134145943
5390.0 0.011305747739999998
5400.0 0.011237433659999999
5410.0 0.011156358429999999
5420.0 0.011090238839999999
5430.0 0.01106648478
5440.0 0.0111043147
5450.0 0.01121025162
5460.0 0.011377520490000001
5470.0 0.011588450069999999
5480.0 0.01181859407
5490.0 0.01204096079
5500.0 0.01222899191
5510.0 0.01235827555
5520.0 0.01240816819
5530.0 0.012363929950000001
5540.0 0.01221842525
5550.0 0.011972096149999998
5560.0 0.011631281529999999
5570.0 0.011206134199999999
5580.0 0.010709172270000001
5590.0 0.010155187699999998
5600.0 0.00956045146
5610.0 0.00894105813
5620.0 0.00831265713
5630.0 0.007691082949999999
5640.0 0.00709368102
5650.0 0.00654050555
5660.0 0.00605446337
5670.0 0.00565997256
5680.0 0.0053803507000000006
5690.0 0.00523466217
5700.0 0.005235002549999999
5710.0 0.00538502984
5720.0 0.0056798888199999994
5730.0 0.00610700992
5740.0 0.00664717872
5750.0 0.00727562839
5760.0 0.00796322916
5770.0 0.00867801445
5780.0 0.009387177270000002
5790.0 0.01005926812
5800.0 0.01066605499
5810.0 0.011183923319999999
5820.0 0.0115953206
5830.0 0.011890451449999999
5840.0 0.012068400750000001
5850.0 0.01213627091
5860.0 0.01210670466
5870.0 0.011995481
5880.0 0.011818914299999999
5890.0 0.01159140933
5900.0 0.0113232584
5910.0 0.01101941593
5920.0 0.01068020866
5930.0 0.01030402211
5940.0 0.00989080606
5950.0 0.009444862689999998
5960.0 0.00897598893
5970.0 0.00849886855
5980.0 0.008031098080000002
5990.0 0.0075904944600000005
6000.0 0.00719248639
6010.0 0.00684830579
6020.0 0.00656427666
6030.0 0.006341985269999999
6040.0 0.0061788437399999995
6050.0 0.0060687057
6060.0 0.006002710109999999
6070.0 0.00597080615
6080.0 0.00596402211
6090.0 0.00597651201
6100.0 0.00600617715
6110.0 0.006053445639999999
6120.0 0.0061191061199999995
6130.0 0.00620259718
6140.0 0.006301479739999999
6150.0 0.006411755420000001
6160.0 0.006528163519999999
6170.0 0.00664392682
6180.0 0.00675009779
6190.0 0.00683520922
6200.0 0.006885953739999999
6210.0 0.00688917154
6220.0 0.006834698030000001
6230.0 0.006718120669999999
6240.0 0.006542495440000001
6250.0 0.0063185533
6260.0 0.006063453990000001
6270.0 0.005798456689999999
6280.0 0.00554606864
6290.0 0.00532739278
6300.0 0.00516036943
6310.0 0.005058837609999999
6320.0 0.00503124358
6330.0 0.00507836327
6340.0 0.005192550840000001
6350.0 0.00536136692
6360.0 0.00557358145
6370.0 0.005822210130000001
6380.0 0.00610325148
6390.0 0.0064130971
6400.0 0.00674629812
6410.0 0.00709338032
6420.0 0.00744012121
6430.0 0.007770414430000001
6440.0 0.008070893400000001
6450.0 0.008332865719999999
6460.0 0.0085506029
6470.0 0.008719046360000001
6480.0 0.00883321812
6490.0 0.008889007579999999
6500.0 0.008884127870000001
6510.0 0.00881856473
6520.0 0.00869444631
6530.0 0.00851558003
6540.0 0.00828697673
6550.0 0.00801449231
6560.0 0.00770458097
6570.0 0.00736400412
6580.0 0.00699960904
6590.0 0.006618383439999999
6600.0 0.00622765603
6610.0 0.00583515139
6620.0 0.00544867005
6630.0 0.00507543532
6640.0 0.0047213802899999996
6650.0 0.00439069027
6660.0 0.00408576497
6670.0 0.0038075728300000005
6680.0 0.00355619352
6690.0 0.00333131239
6700.0 0.0031324836599999997
6710.0 0.002959130048
6720.0 0.002810396605
6730.0 0.002685034372
6740.0 0.002581437642
6750.0 0.0024978233259999997
6760.0 0.0024324284540000003
6770.0 0.0023836171870000003
6780.0 0.002349899076
6790.0 0.0023299384549999996
6800.0 0.002322592695
6810.0 0.0023269293159999998
6820.0 0.002342164731
6830.0 0.002367547314
6840.0 0.002402270724
6850.0 0.002445489095
6860.0 0.0024963923660000003
6870.0 0.002554089721
6880.0 0.0026173173519999995
6890.0 0.0026840678539999997
6900.0 0.0027513978080000003
6910.0 0.0028156625750000003
6920.0 0.002873192592
6930.0 0.002921143392
6940.0 0.0029581497659999997
6950.0 0.0029845298050000003
6960.0 0.003002039194
6970.0 0.0030133667800000003
6980.0 0.00302159325
6990.0 0.003029742158
7000.0 0.003040440227
7010.0 0.0030556878250000002
7020.0 0.003076760075
7030.0 0.0031042594
7040.0 0.0031382915099999998
7050.0 0.00317866808
7060.0 0.00322505927
7070.0 0.00327706084
7080.0 0.00333421895
7090.0 0.00339605961
7100.0 0.0034621506799999997
7110.0 0.00353217813
7120.0 0.0036059975
7130.0 0.0036836066199999996
7140.0 0.0037649394599999996
7150.0 0.00384972849
7160.0 0.0039374619
7170.0 0.0040273079600000004
7180.0 0.004118065420000001
7190.0 0.0042081303399999995
7200.0 0.00429546323
7210.0 0.0043776011399999995
7220.0 0.00445175624
7230.0 0.00451503809
7240.0 0.00456481541
7250.0 0.00459917767
7260.0 0.00461742427
7270.0 0.00462042197
7280.0 0.00461066286
7290.0 0.00459193483
7300.0 0.004568671189999999
7310.0 0.0045441371699999995
7320.0 0.0045212353
7330.0 0.00450420142
7340.0 0.0044944528499999995
7350.0 0.00449233276
7360.0 0.00449726424
7370.0 0.00450792452
7380.0 0.004522429109999999
7390.0 0.00453849114
7400.0 0.00455350258
7410.0 0.00456455749
7420.0 0.00456853355
7430.0 0.00456215437
7440.0 0.0045423029
7450.0 0.004506493560000001
7460.0 0.00445337475
7470.0 0.00438324996
7480.0 0.00429860539
7490.0 0.004204472339999999
7500.0 0.00410818882
7510.0 0.00401811615
7520.0 0.003941409439999999
7530.0 0.0038818916100000003
7540.0 0.00383945943
7550.0 0.0038114655
7560.0 0.0037948147800000004
7570.0 0.00378709547
7580.0 0.0037864965500000003
7590.0 0.0037915901600000003
7600.0 0.00380170019
7610.0 0.00381742153
7620.0 0.0038405531099999996
7630.0 0.00387330585
7640.0 0.00391717147
7650.0 0.00397191344
7660.0 0.00403501828
7670.0 0.00410179848
7680.0 0.004166134950000001
7690.0 0.00422161782
7700.0 0.0042626819699999995
7710.0 0.00428538761
7720.0 0.00428766301
7730.0 0.0042691727499999995
7740.0 0.00423109793
7750.0 0.0041758953
7760.0 0.00410705794
7770.0 0.00402872435
7780.0 0.00394505473
7790.0 0.0038594612499999997
7800.0 0.0037739759600000002
7810.0 0.0036890365800000004
7820.0 0.00360378999
7830.0 0.00351674385
7840.0 0.00342644364
7850.0 0.0033318924
7860.0 0.0032326397
7870.0 0.00312866415
7880.0 0.003020254267
7890.0 0.002908012009
7900.0 0.0027929596009999996
7910.0 0.002676648314
7920.0 0.0025605339700000003
7930.0 0.002447744996
7940.0 0.0023406999810000003
7950.0 0.002241389094
7960.0 0.002151047034
7970.0 0.002070026426
7980.0 0.0019979325780000003
7990.0 0.0019339542819999998
8000.0 0.0018772302030000002
8010.0 0.0018270752099999999
8020.0 0.001782969371
8030.0 0.001744339186
8040.0 0.001710267706
8050.0 0.00167930038
8060.0 0.001649456184
8070.0 0.001618445179
8080.0 0.001583994011
8090.0 0.001544147355
8100.0 0.001497459836
8110.0 0.001443084844
8120.0 0.0013808351390000003
8130.0 0.0013112878169999997
8140.0 0.00123592908
8150.0 0.001157239362
8160.0 0.001078576676
8170.0 0.00100377256
8180.0 0.0009364905319999999
8190.0 0.000879536588
8200.0 0.000834365403
8210.0 0.000800961725
8220.0 0.000778126164
8230.0 0.000764037811
8240.0 0.0007568726880000001
8250.0 0.000755263819
8260.0 0.000758474768
8270.0 0.0007662864270000001
8280.0 0.000778710948
8290.0 0.00079570707
8300.0 0.000817044959
8310.0 0.000842370688
8320.0 0.000871409473
8330.0 0.000904188408
8340.0 0.0009411760579999999
8350.0 0.000983291821
8360.0 0.001031794576
8370.0 0.001088078951
8380.0 0.0011534135280000001
8390.0 0.001228659208
8400.0 0.001314024714
8410.0 0.001408917729
8420.0 0.00151192425
8430.0 0.0016209011540000001
8440.0 0.00173313126
8450.0 0.0018454935499999999
8460.0 0.001954637699
8470.0 0.002057195774
8480.0 0.002150073789
8490.0 0.002230829099
8500.0 0.002298070579
8510.0 0.002351758425
8520.0 0.00239327161
8530.0 0.002425163232
8540.0 0.0024506346609999997
8550.0 0.0024728701549999997
8560.0 0.0024944330729999996
8570.0 0.002516905221
8580.0 0.002540854674
8590.0 0.0025661064679999997
8600.0 0.0025921829859999997
8610.0 0.0026187354159999997
8620.0 0.0026458008959999997
8630.0 0.0026737894010000003
8640.0 0.002703230163
8650.0 0.002734414768
8660.0 0.0027671312380000003
8670.0 0.002800638859
8680.0 0.002833908648
8690.0 0.002866006079
8700.0 0.00289641091
8710.0 0.0029251002939999996
8720.0 0.002952344272
8730.0 0.0029783267979999997
8740.0 0.0030027886499999997
8750.0 0.003024873639
8760.0 0.003043235218
8770.0 0.003056326239
8780.0 0.0030627202990000002
8790.0 0.003061339559
8800.0 0.0030515474959999997
8810.0 0.003033148469
8820.0 0.003006355913
8830.0 0.00297177129
8840.0 0.0029303597540000005
8850.0 0.0028833883059999994
8860.0 0.002832298849
8870.0 0.002778529659
8880.0 0.002723329974
8890.0 0.002667629205
8900.0 0.0026119987750000003
8910.0 0.002556716878
8920.0 0.002501902461
8930.0 0.0024476685189999997
8940.0 0.002394246157
8950.0 0.002342050372
8960.0 0.002291682688
8970.0 0.0022438845939999996
8980.0 0.00219946147
8990.0 0.002159199662
9000.0 0.002123800018
9010.0 0.002093844284
9020.0 0.002069801397
9030.0 0.0020520624839999997
9040.0 0.002040978868
9050.0 0.002036874437
9060.0 0.002040017837
9070.0 0.00205055855
9080.0 0.0020684466659999998
9090.0 0.002093358824
9100.0 0.0021246533240000002
9110.0 0.002161374405
9120.0 0.00220232618
9130.0 0.002246226582
9140.0 0.002291927154
9150.0 0.002338646355
9160.0 0.00238612983
9170.0 0.002434647558
9180.0 0.002484780789
9190.0 0.0025370391630000003
9200.0 0.002591433065
9210.0 0.00264717959
9220.0 0.002702694824
9230.0 0.002755926195
9240.0 0.002804929631
9250.0 0.00284845422
9260.0 0.002886247405
9270.0 0.0029188926679999997
9280.0 0.0029472503830000004
9290.0 0.0029718373510000005
9300.0 0.002992539151
